#wls	flux	fluxerr
1.600000E+03	1.780889E-16	1.744514E-16
1.640000E+03	1.874217E-16	1.820476E-16
1.680000E+03	1.974532E-16	1.901294E-16
1.720000E+03	2.082211E-16	1.987103E-16
1.760000E+03	2.197817E-16	2.078196E-16
1.800000E+03	2.322109E-16	2.175025E-16
1.840000E+03	2.455063E-16	2.277282E-16
1.880000E+03	2.597612E-16	2.385533E-16
1.920000E+03	2.750079E-16	2.499750E-16
1.960000E+03	2.912748E-16	2.619854E-16
2.000000E+03	3.085637E-16	2.745513E-16
2.040000E+03	3.268905E-16	2.876515E-16
2.080000E+03	3.462199E-16	3.012196E-16
2.120000E+03	3.664614E-16	3.151430E-16
2.160000E+03	3.875777E-16	3.293581E-16
2.200000E+03	4.094292E-16	3.437171E-16
2.240000E+03	4.318831E-16	3.580842E-16
2.280000E+03	4.548378E-16	3.723556E-16
2.320000E+03	4.782253E-16	3.864597E-16
2.360000E+03	5.020368E-16	4.003760E-16
2.400000E+03	5.262765E-16	4.140959E-16
2.440000E+03	5.509375E-16	4.276034E-16
2.480000E+03	5.760720E-16	4.409294E-16
2.520000E+03	6.016470E-16	4.540397E-16
2.560000E+03	6.276614E-16	4.669268E-16
2.600000E+03	6.540252E-16	4.795198E-16
2.640000E+03	6.806548E-16	4.917577E-16
2.680000E+03	7.074011E-16	5.035383E-16
2.720000E+03	7.340992E-16	5.147556E-16
2.760000E+03	7.605697E-16	5.253024E-16
2.800000E+03	7.865987E-16	5.350561E-16
2.840000E+03	8.119649E-16	5.438989E-16
2.880000E+03	8.364884E-16	5.517496E-16
2.920000E+03	8.599442E-16	5.585046E-16
2.960000E+03	8.822206E-16	5.641411E-16
3.000000E+03	9.031452E-16	5.686010E-16
3.010000E+03	9.081767E-16	5.695456E-16
3.020000E+03	9.131017E-16	5.704071E-16
3.030000E+03	9.179169E-16	5.711843E-16
3.040000E+03	9.226600E-16	5.719014E-16
3.050000E+03	9.273065E-16	5.725443E-16
3.060000E+03	9.318530E-16	5.731115E-16
3.070000E+03	9.363162E-16	5.736142E-16
3.080000E+03	9.406725E-16	5.740387E-16
3.090000E+03	9.449189E-16	5.743841E-16
3.100000E+03	9.490916E-16	5.746731E-16
3.110000E+03	9.531480E-16	5.748807E-16
3.120000E+03	9.571047E-16	5.750178E-16
3.130000E+03	9.609396E-16	5.750719E-16
3.140000E+03	9.647072E-16	5.750766E-16
3.150000E+03	9.683476E-16	5.749965E-16
3.160000E+03	9.718773E-16	5.748425E-16
3.170000E+03	9.753125E-16	5.746250E-16
3.180000E+03	9.786506E-16	5.743430E-16
3.190000E+03	9.818527E-16	5.739744E-16
3.200000E+03	9.849715E-16	5.735509E-16
3.210000E+03	9.879687E-16	5.730508E-16
3.220000E+03	9.908605E-16	5.724842E-16
3.230000E+03	9.936276E-16	5.718407E-16
3.240000E+03	9.962863E-16	5.711303E-16
3.250000E+03	9.988352E-16	5.703530E-16
3.260000E+03	1.001273E-15	5.695086E-16
3.270000E+03	1.003582E-15	5.685877E-16
3.280000E+03	1.005778E-15	5.676001E-16
3.290000E+03	1.007861E-15	5.665462E-16
3.300000E+03	1.009815E-15	5.654171E-16
3.310000E+03	1.011654E-15	5.642226E-16
3.320000E+03	1.013364E-15	5.629544E-16
3.330000E+03	1.014961E-15	5.616223E-16
3.340000E+03	1.016429E-15	5.602182E-16
3.350000E+03	1.017769E-15	5.587433E-16
3.360000E+03	1.018983E-15	5.571990E-16
3.370000E+03	1.020072E-15	5.555864E-16
3.380000E+03	1.021038E-15	5.539069E-16
3.390000E+03	1.021867E-15	5.521540E-16
3.400000E+03	1.022576E-15	5.503375E-16
3.410000E+03	1.023139E-15	5.484433E-16
3.420000E+03	1.023588E-15	5.464891E-16
3.430000E+03	1.023896E-15	5.444614E-16
3.440000E+03	1.024066E-15	5.423627E-16
3.450000E+03	1.024103E-15	5.401955E-16
3.460000E+03	1.023997E-15	5.379549E-16
3.470000E+03	1.023765E-15	5.356510E-16
3.480000E+03	1.023399E-15	5.332791E-16
3.490000E+03	1.022889E-15	5.308354E-16
3.500000E+03	1.022240E-15	5.283230E-16
3.510000E+03	1.021446E-15	5.257384E-16
3.520000E+03	1.020524E-15	5.230916E-16
3.530000E+03	1.019442E-15	5.203665E-16
3.540000E+03	1.018219E-15	5.175734E-16
3.550000E+03	1.016850E-15	5.147098E-16
3.560000E+03	1.015340E-15	5.117797E-16
3.570000E+03	1.013674E-15	5.087748E-16
3.580000E+03	1.011847E-15	5.056936E-16
3.590000E+03	1.009878E-15	5.025467E-16
3.600000E+03	1.007740E-15	4.993210E-16
3.610000E+03	1.005455E-15	4.960271E-16
3.620000E+03	1.003018E-15	4.926643E-16
3.630000E+03	1.000417E-15	4.892263E-16
3.640000E+03	9.976494E-16	4.857129E-16
3.650000E+03	9.947251E-16	4.821295E-16
3.660000E+03	9.916321E-16	4.784708E-16
3.670000E+03	9.883913E-16	4.747476E-16
3.680000E+03	9.849807E-16	4.709499E-16
3.690000E+03	9.814109E-16	4.670834E-16
3.700000E+03	9.776819E-16	4.631487E-16
3.710000E+03	9.738042E-16	4.591515E-16
3.720000E+03	9.697682E-16	4.550878E-16
3.730000E+03	9.655844E-16	4.509632E-16
3.740000E+03	9.612536E-16	4.467786E-16
3.750000E+03	9.567862E-16	4.425395E-16
3.760000E+03	9.521830E-16	4.382468E-16
3.770000E+03	9.474541E-16	4.339058E-16
3.780000E+03	9.426003E-16	4.295172E-16
3.790000E+03	9.376221E-16	4.250819E-16
3.800000E+03	9.325479E-16	4.206131E-16
3.810000E+03	9.273595E-16	4.161032E-16
3.820000E+03	9.220755E-16	4.115608E-16
3.830000E+03	9.167136E-16	4.069943E-16
3.840000E+03	9.112646E-16	4.023999E-16
3.850000E+03	9.057373E-16	3.977818E-16
3.860000E+03	9.001483E-16	3.931476E-16
3.870000E+03	8.945051E-16	3.885008E-16
3.880000E+03	8.888152E-16	3.838447E-16
3.890000E+03	8.830771E-16	3.791790E-16
3.900000E+03	8.773060E-16	3.745103E-16
3.910000E+03	8.715083E-16	3.698412E-16
3.920000E+03	8.656898E-16	3.651745E-16
3.930000E+03	8.598563E-16	3.605125E-16
3.940000E+03	8.540133E-16	3.558574E-16
3.950000E+03	8.481736E-16	3.512146E-16
3.960000E+03	8.423417E-16	3.465858E-16
3.970000E+03	8.365145E-16	3.419695E-16
3.980000E+03	8.307113E-16	3.373736E-16
3.990000E+03	8.249281E-16	3.327960E-16
4.000000E+03	8.191760E-16	3.282412E-16
4.010000E+03	8.134581E-16	3.237099E-16
4.020000E+03	8.077700E-16	3.192001E-16
4.030000E+03	8.021288E-16	3.147184E-16
4.040000E+03	7.965298E-16	3.102625E-16
4.050000E+03	7.909823E-16	3.058355E-16
4.060000E+03	7.854879E-16	3.014377E-16
4.070000E+03	7.800485E-16	2.970695E-16
4.080000E+03	7.746654E-16	2.927308E-16
4.090000E+03	7.693468E-16	2.884242E-16
4.100000E+03	7.640869E-16	2.841471E-16
4.110000E+03	7.588866E-16	2.798993E-16
4.120000E+03	7.537600E-16	2.756856E-16
4.130000E+03	7.486943E-16	2.715007E-16
4.140000E+03	7.436965E-16	2.673465E-16
4.150000E+03	7.387667E-16	2.632227E-16
4.160000E+03	7.339051E-16	2.591287E-16
4.170000E+03	7.291116E-16	2.550640E-16
4.180000E+03	7.243860E-16	2.510279E-16
4.190000E+03	7.197280E-16	2.470197E-16
4.200000E+03	7.151371E-16	2.430389E-16
4.210000E+03	7.106127E-16	2.390845E-16
4.220000E+03	7.061542E-16	2.351560E-16
4.230000E+03	7.017547E-16	2.312505E-16
4.240000E+03	6.974134E-16	2.273673E-16
4.250000E+03	6.931354E-16	2.235077E-16
4.260000E+03	6.889196E-16	2.196706E-16
4.270000E+03	6.847528E-16	2.158516E-16
4.280000E+03	6.806398E-16	2.120518E-16
4.290000E+03	6.765794E-16	2.082705E-16
4.300000E+03	6.725701E-16	2.045067E-16
4.310000E+03	6.686103E-16	2.007597E-16
4.320000E+03	6.646926E-16	1.970270E-16
4.330000E+03	6.608270E-16	1.933112E-16
4.340000E+03	6.570000E-16	1.896082E-16
4.350000E+03	6.532214E-16	1.859205E-16
4.360000E+03	6.494890E-16	1.822472E-16
4.370000E+03	6.458066E-16	1.785891E-16
4.380000E+03	6.421718E-16	1.749454E-16
4.390000E+03	6.385880E-16	1.713166E-16
4.400000E+03	6.350527E-16	1.677018E-16
4.410000E+03	6.315748E-16	1.641030E-16
4.420000E+03	6.281515E-16	1.605192E-16
4.430000E+03	6.247803E-16	1.569495E-16
4.440000E+03	6.214694E-16	1.533956E-16
4.450000E+03	6.182160E-16	1.498565E-16
4.460000E+03	6.150229E-16	1.463324E-16
4.470000E+03	6.118980E-16	1.428251E-16
4.480000E+03	6.088328E-16	1.393320E-16
4.490000E+03	6.058353E-16	1.358547E-16
4.500000E+03	6.029078E-16	1.323933E-16
4.510000E+03	6.000472E-16	1.289468E-16
4.520000E+03	5.972557E-16	1.255153E-16
4.530000E+03	5.945356E-16	1.220989E-16
4.540000E+03	5.918892E-16	1.186978E-16
4.550000E+03	5.893186E-16	1.153122E-16
4.560000E+03	5.868206E-16	1.119411E-16
4.570000E+03	5.843918E-16	1.085837E-16
4.580000E+03	5.820454E-16	1.052425E-16
4.590000E+03	5.797728E-16	1.019156E-16
4.600000E+03	5.775705E-16	9.860259E-17
4.610000E+03	5.754465E-16	9.530503E-17
4.620000E+03	5.734029E-16	9.202354E-17
4.630000E+03	5.714256E-16	8.875631E-17
4.640000E+03	5.695335E-16	8.550703E-17
4.650000E+03	5.677072E-16	8.227362E-17
4.660000E+03	5.659602E-16	7.905938E-17
4.670000E+03	5.642897E-16	7.586545E-17
4.680000E+03	5.626930E-16	7.269348E-17
4.690000E+03	5.611675E-16	6.954574E-17
4.700000E+03	5.597110E-16	6.642521E-17
4.710000E+03	5.583323E-16	6.333700E-17
4.720000E+03	5.570240E-16	6.028524E-17
4.730000E+03	5.557844E-16	5.727606E-17
4.740000E+03	5.546179E-16	5.431767E-17
4.750000E+03	5.535124E-16	5.141857E-17
4.760000E+03	5.524842E-16	4.859229E-17
4.770000E+03	5.515166E-16	4.585218E-17
4.780000E+03	5.506214E-16	4.321760E-17
4.790000E+03	5.497998E-16	4.071112E-17
4.800000E+03	5.490426E-16	3.835943E-17
4.810000E+03	5.483577E-16	3.619588E-17
4.820000E+03	5.477541E-16	3.425920E-17
4.830000E+03	5.472240E-16	3.259171E-17
4.840000E+03	5.467770E-16	3.123912E-17
4.850000E+03	5.464164E-16	3.024506E-17
4.860000E+03	5.461392E-16	2.964537E-17
4.870000E+03	5.459463E-16	2.946239E-17
4.880000E+03	5.458419E-16	2.970026E-17
4.890000E+03	5.458166E-16	3.034289E-17
4.900000E+03	5.458706E-16	3.135821E-17
4.910000E+03	5.459858E-16	3.270234E-17
4.920000E+03	5.461608E-16	3.432782E-17
4.930000E+03	5.463884E-16	3.618748E-17
4.940000E+03	5.466562E-16	3.823756E-17
4.950000E+03	5.469637E-16	4.044045E-17
4.960000E+03	5.472999E-16	4.276343E-17
4.970000E+03	5.476655E-16	4.517997E-17
4.980000E+03	5.480507E-16	4.766739E-17
4.990000E+03	5.484519E-16	5.020736E-17
5.000000E+03	5.488604E-16	5.278431E-17
5.010000E+03	5.492847E-16	5.538694E-17
5.020000E+03	5.497114E-16	5.800393E-17
5.030000E+03	5.501386E-16	6.062672E-17
5.040000E+03	5.505704E-16	6.324885E-17
5.050000E+03	5.509997E-16	6.586370E-17
5.060000E+03	5.514254E-16	6.846622E-17
5.070000E+03	5.518467E-16	7.105209E-17
5.080000E+03	5.522628E-16	7.361763E-17
5.090000E+03	5.526673E-16	7.615889E-17
5.100000E+03	5.530598E-16	7.867304E-17
5.110000E+03	5.534456E-16	8.115845E-17
5.120000E+03	5.538130E-16	8.361133E-17
5.130000E+03	5.541731E-16	8.603147E-17
5.140000E+03	5.545086E-16	8.841453E-17
5.150000E+03	5.548309E-16	9.076075E-17
5.160000E+03	5.551342E-16	9.306783E-17
5.170000E+03	5.554184E-16	9.533452E-17
5.180000E+03	5.556836E-16	9.755969E-17
5.190000E+03	5.559242E-16	9.974130E-17
5.200000E+03	5.561401E-16	1.018784E-16
5.210000E+03	5.563259E-16	1.039689E-16
5.220000E+03	5.564930E-16	1.060143E-16
5.230000E+03	5.566247E-16	1.080105E-16
5.240000E+03	5.567267E-16	1.099578E-16
5.250000E+03	5.567993E-16	1.118557E-16
5.260000E+03	5.568429E-16	1.137035E-16
5.270000E+03	5.568462E-16	1.154983E-16
5.280000E+03	5.568154E-16	1.172407E-16
5.290000E+03	5.567451E-16	1.189291E-16
5.300000E+03	5.566357E-16	1.205630E-16
5.310000E+03	5.564821E-16	1.221408E-16
5.320000E+03	5.562903E-16	1.236632E-16
5.330000E+03	5.560495E-16	1.251275E-16
5.340000E+03	5.557604E-16	1.265333E-16
5.350000E+03	5.554178E-16	1.278791E-16
5.360000E+03	5.550281E-16	1.291658E-16
5.370000E+03	5.545751E-16	1.303893E-16
5.380000E+03	5.540651E-16	1.315508E-16
5.390000E+03	5.534934E-16	1.326487E-16
5.400000E+03	5.528552E-16	1.336816E-16
5.410000E+03	5.521347E-16	1.346453E-16
5.420000E+03	5.513274E-16	1.355384E-16
5.430000E+03	5.504290E-16	1.363594E-16
5.440000E+03	5.494129E-16	1.371014E-16
5.450000E+03	5.482750E-16	1.377630E-16
5.460000E+03	5.469948E-16	1.383387E-16
5.470000E+03	5.455629E-16	1.388256E-16
5.480000E+03	5.439976E-16	1.392281E-16
5.490000E+03	5.422950E-16	1.395451E-16
5.500000E+03	5.404732E-16	1.397811E-16
5.510000E+03	5.385394E-16	1.399380E-16
5.520000E+03	5.365170E-16	1.400219E-16
5.530000E+03	5.344020E-16	1.400321E-16
5.540000E+03	5.322070E-16	1.399722E-16
5.550000E+03	5.299333E-16	1.398428E-16
5.560000E+03	5.275988E-16	1.396492E-16
5.570000E+03	5.251994E-16	1.393906E-16
5.580000E+03	5.227421E-16	1.390695E-16
5.590000E+03	5.202282E-16	1.386867E-16
5.600000E+03	5.176699E-16	1.382461E-16
5.610000E+03	5.150632E-16	1.377473E-16
5.620000E+03	5.124148E-16	1.371927E-16
5.630000E+03	5.097312E-16	1.365847E-16
5.640000E+03	5.070139E-16	1.359245E-16
5.650000E+03	5.042692E-16	1.352144E-16
5.660000E+03	5.014932E-16	1.344541E-16
5.670000E+03	4.986923E-16	1.336462E-16
5.680000E+03	4.958730E-16	1.327930E-16
5.690000E+03	4.930362E-16	1.318957E-16
5.700000E+03	4.901831E-16	1.309554E-16
5.710000E+03	4.873148E-16	1.299731E-16
5.720000E+03	4.844425E-16	1.289526E-16
5.730000E+03	4.815569E-16	1.278923E-16
5.740000E+03	4.786691E-16	1.267959E-16
5.750000E+03	4.757801E-16	1.256645E-16
5.760000E+03	4.728855E-16	1.244976E-16
5.770000E+03	4.699912E-16	1.232978E-16
5.780000E+03	4.671031E-16	1.220672E-16
5.790000E+03	4.642167E-16	1.208056E-16
5.800000E+03	4.613327E-16	1.195139E-16
5.810000E+03	4.584617E-16	1.181956E-16
5.820000E+03	4.555943E-16	1.168491E-16
5.830000E+03	4.527359E-16	1.154765E-16
5.840000E+03	4.498871E-16	1.140788E-16
5.850000E+03	4.470483E-16	1.126568E-16
5.860000E+03	4.442247E-16	1.112127E-16
5.870000E+03	4.414069E-16	1.097447E-16
5.880000E+03	4.386050E-16	1.082563E-16
5.890000E+03	4.358143E-16	1.067469E-16
5.900000E+03	4.330350E-16	1.052174E-16
5.910000E+03	4.302674E-16	1.036686E-16
5.920000E+03	4.275116E-16	1.021012E-16
5.930000E+03	4.247725E-16	1.005173E-16
5.940000E+03	4.220406E-16	9.891532E-17
5.950000E+03	4.193158E-16	9.729602E-17
5.960000E+03	4.166030E-16	9.566134E-17
5.970000E+03	4.139023E-16	9.401207E-17
5.980000E+03	4.112039E-16	9.234683E-17
5.990000E+03	4.085173E-16	9.066859E-17
6.000000E+03	4.058284E-16	8.897503E-17
6.010000E+03	4.031510E-16	8.727014E-17
6.020000E+03	4.004711E-16	8.555172E-17
6.030000E+03	3.977884E-16	8.382071E-17
6.040000E+03	3.951075E-16	8.207908E-17
6.050000E+03	3.924237E-16	8.032682E-17
6.060000E+03	3.897367E-16	7.856498E-17
6.070000E+03	3.870372E-16	7.679279E-17
6.080000E+03	3.843343E-16	7.501324E-17
6.090000E+03	3.816140E-16	7.322484E-17
6.100000E+03	3.788855E-16	7.143068E-17
6.110000E+03	3.761441E-16	6.963120E-17
6.120000E+03	3.733851E-16	6.782698E-17
6.130000E+03	3.706085E-16	6.601957E-17
6.140000E+03	3.678189E-16	6.421138E-17
6.150000E+03	3.650117E-16	6.240326E-17
6.160000E+03	3.621870E-16	6.059700E-17
6.170000E+03	3.593540E-16	5.879598E-17
6.180000E+03	3.565037E-16	5.700065E-17
6.190000E+03	3.536408E-16	5.521385E-17
6.200000E+03	3.507701E-16	5.343846E-17
6.210000E+03	3.478961E-16	5.167749E-17
6.220000E+03	3.450149E-16	4.993272E-17
6.230000E+03	3.421267E-16	4.820685E-17
6.240000E+03	3.392366E-16	4.650339E-17
6.250000E+03	3.363406E-16	4.482485E-17
6.260000E+03	3.334439E-16	4.317522E-17
6.270000E+03	3.305472E-16	4.155817E-17
6.280000E+03	3.276556E-16	3.997822E-17
6.290000E+03	3.247702E-16	3.843967E-17
6.300000E+03	3.218920E-16	3.694719E-17
6.310000E+03	3.190264E-16	3.550634E-17
6.320000E+03	3.161788E-16	3.412305E-17
6.330000E+03	3.133464E-16	3.280267E-17
6.340000E+03	3.105346E-16	3.155188E-17
6.350000E+03	3.077491E-16	3.037763E-17
6.360000E+03	3.049869E-16	2.928624E-17
6.370000E+03	3.022581E-16	2.828532E-17
6.380000E+03	2.995637E-16	2.738150E-17
6.390000E+03	2.969048E-16	2.658099E-17
6.400000E+03	2.942824E-16	2.588926E-17
6.410000E+03	2.917055E-16	2.531143E-17
6.420000E+03	2.891702E-16	2.485001E-17
6.430000E+03	2.866847E-16	2.450686E-17
6.440000E+03	2.842484E-16	2.428110E-17
6.450000E+03	2.818604E-16	2.416983E-17
6.460000E+03	2.795233E-16	2.416852E-17
6.470000E+03	2.772352E-16	2.427055E-17
6.480000E+03	2.749981E-16	2.446825E-17
6.490000E+03	2.728011E-16	2.475186E-17
6.500000E+03	2.706501E-16	2.511255E-17
6.510000E+03	2.685423E-16	2.554058E-17
6.520000E+03	2.664709E-16	2.602593E-17
6.530000E+03	2.644373E-16	2.655982E-17
6.540000E+03	2.624392E-16	2.713363E-17
6.550000E+03	2.604740E-16	2.773944E-17
6.560000E+03	2.585397E-16	2.837006E-17
6.570000E+03	2.566382E-16	2.901952E-17
6.580000E+03	2.547635E-16	2.968163E-17
6.590000E+03	2.529141E-16	3.035135E-17
6.600000E+03	2.510925E-16	3.102476E-17
6.610000E+03	2.492973E-16	3.169804E-17
6.620000E+03	2.475233E-16	3.236735E-17
6.630000E+03	2.457735E-16	3.303036E-17
6.640000E+03	2.440430E-16	3.368405E-17
6.650000E+03	2.423393E-16	3.432746E-17
6.660000E+03	2.406535E-16	3.495767E-17
6.670000E+03	2.389850E-16	3.557316E-17
6.680000E+03	2.373377E-16	3.617327E-17
6.690000E+03	2.357111E-16	3.675696E-17
6.700000E+03	2.341010E-16	3.732274E-17
6.710000E+03	2.325072E-16	3.786991E-17
6.720000E+03	2.309338E-16	3.839859E-17
6.730000E+03	2.293765E-16	3.890768E-17
6.740000E+03	2.278395E-16	3.939758E-17
6.750000E+03	2.263148E-16	3.986669E-17
6.760000E+03	2.248106E-16	4.031630E-17
6.770000E+03	2.233190E-16	4.074493E-17
6.780000E+03	2.218482E-16	4.115407E-17
6.790000E+03	2.203904E-16	4.154235E-17
6.800000E+03	2.189499E-16	4.191064E-17
6.810000E+03	2.175268E-16	4.225915E-17
6.820000E+03	2.161176E-16	4.258735E-17
6.830000E+03	2.147265E-16	4.289629E-17
6.840000E+03	2.133498E-16	4.318549E-17
6.850000E+03	2.119917E-16	4.345609E-17
6.860000E+03	2.106448E-16	4.370684E-17
6.870000E+03	2.093172E-16	4.393975E-17
6.880000E+03	2.080053E-16	4.415443E-17
6.890000E+03	2.067094E-16	4.435130E-17
6.900000E+03	2.054260E-16	4.452996E-17
6.910000E+03	2.041632E-16	4.469257E-17
6.920000E+03	2.029097E-16	4.483705E-17
6.930000E+03	2.016774E-16	4.496645E-17
6.940000E+03	2.004589E-16	4.507954E-17
6.950000E+03	1.992546E-16	4.517684E-17
6.960000E+03	1.980686E-16	4.525973E-17
6.970000E+03	1.968974E-16	4.532786E-17
6.980000E+03	1.957413E-16	4.538175E-17
6.990000E+03	1.946007E-16	4.542193E-17
7.000000E+03	1.934758E-16	4.544896E-17
7.010000E+03	1.923669E-16	4.546337E-17
7.020000E+03	1.912707E-16	4.546481E-17
7.030000E+03	1.901948E-16	4.545564E-17
7.040000E+03	1.891284E-16	4.543371E-17
7.050000E+03	1.880829E-16	4.540229E-17
7.060000E+03	1.870476E-16	4.535923E-17
7.070000E+03	1.860300E-16	4.530690E-17
7.080000E+03	1.850268E-16	4.524498E-17
7.090000E+03	1.840382E-16	4.517403E-17
7.100000E+03	1.830683E-16	4.509553E-17
7.110000E+03	1.821100E-16	4.500824E-17
7.120000E+03	1.811671E-16	4.491366E-17
7.130000E+03	1.802364E-16	4.481145E-17
7.140000E+03	1.793217E-16	4.470310E-17
7.150000E+03	1.784234E-16	4.458921E-17
7.160000E+03	1.775381E-16	4.446944E-17
7.170000E+03	1.766697E-16	4.434529E-17
7.180000E+03	1.758112E-16	4.421555E-17
7.190000E+03	1.749701E-16	4.408260E-17
7.200000E+03	1.741432E-16	4.394613E-17
7.210000E+03	1.733271E-16	4.380584E-17
7.220000E+03	1.725257E-16	4.366322E-17
7.230000E+03	1.717393E-16	4.351884E-17
7.240000E+03	1.709645E-16	4.337242E-17
7.250000E+03	1.702018E-16	4.322453E-17
7.260000E+03	1.694513E-16	4.307575E-17
7.270000E+03	1.687135E-16	4.292668E-17
7.280000E+03	1.679885E-16	4.277789E-17
7.290000E+03	1.672697E-16	4.262818E-17
7.300000E+03	1.665643E-16	4.247990E-17
7.310000E+03	1.658693E-16	4.233271E-17
7.320000E+03	1.651813E-16	4.218630E-17
7.330000E+03	1.645041E-16	4.204209E-17
7.340000E+03	1.638313E-16	4.189886E-17
7.350000E+03	1.631629E-16	4.175714E-17
7.360000E+03	1.624995E-16	4.161744E-17
7.370000E+03	1.618378E-16	4.147940E-17
7.380000E+03	1.611816E-16	4.134436E-17
7.390000E+03	1.605209E-16	4.121019E-17
7.400000E+03	1.598628E-16	4.107906E-17
7.410000E+03	1.592008E-16	4.094966E-17
7.420000E+03	1.585386E-16	4.082326E-17
7.430000E+03	1.578730E-16	4.069937E-17
7.440000E+03	1.572043E-16	4.057832E-17
7.450000E+03	1.565360E-16	4.046131E-17
7.460000E+03	1.558649E-16	4.034775E-17
7.470000E+03	1.552013E-16	4.024048E-17
7.480000E+03	1.545385E-16	4.013800E-17
7.490000E+03	1.538834E-16	4.004222E-17
7.500000E+03	1.532325E-16	3.995244E-17
7.510000E+03	1.525961E-16	3.987137E-17
7.520000E+03	1.519707E-16	3.979825E-17
7.530000E+03	1.513563E-16	3.973314E-17
7.540000E+03	1.507562E-16	3.967695E-17
7.550000E+03	1.501704E-16	3.962968E-17
7.560000E+03	1.496054E-16	3.959306E-17
7.570000E+03	1.490544E-16	3.956530E-17
7.580000E+03	1.485207E-16	3.954722E-17
7.590000E+03	1.480074E-16	3.953958E-17
7.600000E+03	1.475112E-16	3.954141E-17
7.610000E+03	1.470351E-16	3.955346E-17
7.620000E+03	1.465758E-16	3.957467E-17
7.630000E+03	1.461395E-16	3.960665E-17
7.640000E+03	1.457197E-16	3.964745E-17
7.650000E+03	1.453226E-16	3.969863E-17
7.660000E+03	1.449415E-16	3.975820E-17
7.670000E+03	1.445829E-16	3.982771E-17
7.680000E+03	1.442398E-16	3.990512E-17
7.690000E+03	1.439188E-16	3.999199E-17
7.700000E+03	1.436163E-16	4.008715E-17
7.710000E+03	1.433320E-16	4.019033E-17
7.720000E+03	1.430659E-16	4.030127E-17
7.730000E+03	1.428177E-16	4.041967E-17
7.740000E+03	1.425871E-16	4.054526E-17
7.750000E+03	1.423707E-16	4.067681E-17
7.760000E+03	1.421749E-16	4.081592E-17
