#wls	flux	fluxerr
1.600000E+03	1.831203E-16	1.781432E-16
1.640000E+03	1.929370E-16	1.860494E-16
1.680000E+03	2.035034E-16	1.944686E-16
1.720000E+03	2.148624E-16	2.034163E-16
1.760000E+03	2.270762E-16	2.129244E-16
1.800000E+03	2.402278E-16	2.230407E-16
1.840000E+03	2.543197E-16	2.337356E-16
1.880000E+03	2.694537E-16	2.450687E-16
1.920000E+03	2.856692E-16	2.570394E-16
1.960000E+03	3.030014E-16	2.696410E-16
2.000000E+03	3.214586E-16	2.828411E-16
2.040000E+03	3.410635E-16	2.966192E-16
2.080000E+03	3.617855E-16	3.109078E-16
2.120000E+03	3.835361E-16	3.255913E-16
2.160000E+03	4.062818E-16	3.406041E-16
2.200000E+03	4.298811E-16	3.557930E-16
2.240000E+03	4.541985E-16	3.710161E-16
2.280000E+03	4.791299E-16	3.861637E-16
2.320000E+03	5.046057E-16	4.011590E-16
2.360000E+03	5.306174E-16	4.159774E-16
2.400000E+03	5.571694E-16	4.306063E-16
2.440000E+03	5.842537E-16	4.450250E-16
2.480000E+03	6.119240E-16	4.592609E-16
2.520000E+03	6.401422E-16	4.732732E-16
2.560000E+03	6.689030E-16	4.870487E-16
2.600000E+03	6.981044E-16	5.005073E-16
2.640000E+03	7.276494E-16	5.135785E-16
2.680000E+03	7.573684E-16	5.261485E-16
2.720000E+03	7.870721E-16	5.380990E-16
2.760000E+03	8.165533E-16	5.493099E-16
2.800000E+03	8.455644E-16	5.596450E-16
2.840000E+03	8.738473E-16	5.689731E-16
2.880000E+03	9.011864E-16	5.772015E-16
2.920000E+03	9.273153E-16	5.842147E-16
2.960000E+03	9.520888E-16	5.899824E-16
3.000000E+03	9.752955E-16	5.944384E-16
3.010000E+03	9.808619E-16	5.953611E-16
3.020000E+03	9.863047E-16	5.961914E-16
3.030000E+03	9.916199E-16	5.969282E-16
3.040000E+03	9.968477E-16	5.975967E-16
3.050000E+03	1.001962E-15	5.981820E-16
3.060000E+03	1.006957E-15	5.986826E-16
3.070000E+03	1.011853E-15	5.991103E-16
3.080000E+03	1.016622E-15	5.994506E-16
3.090000E+03	1.021261E-15	5.997025E-16
3.100000E+03	1.025810E-15	5.998899E-16
3.110000E+03	1.030220E-15	5.999866E-16
3.120000E+03	1.034512E-15	6.000040E-16
3.130000E+03	1.038659E-15	5.999292E-16
3.140000E+03	1.042721E-15	5.997970E-16
3.150000E+03	1.046632E-15	5.995707E-16
3.160000E+03	1.050411E-15	5.992618E-16
3.170000E+03	1.054075E-15	5.988810E-16
3.180000E+03	1.057620E-15	5.984273E-16
3.190000E+03	1.061005E-15	5.978780E-16
3.200000E+03	1.064285E-15	5.972660E-16
3.210000E+03	1.067420E-15	5.965687E-16
3.220000E+03	1.070427E-15	5.957969E-16
3.230000E+03	1.073285E-15	5.949398E-16
3.240000E+03	1.076012E-15	5.940080E-16
3.250000E+03	1.078605E-15	5.930014E-16
3.260000E+03	1.081064E-15	5.919201E-16
3.270000E+03	1.083368E-15	5.907543E-16
3.280000E+03	1.085537E-15	5.895146E-16
3.290000E+03	1.087568E-15	5.882013E-16
3.300000E+03	1.089445E-15	5.868055E-16
3.310000E+03	1.091184E-15	5.853374E-16
3.320000E+03	1.092769E-15	5.837887E-16
3.330000E+03	1.094217E-15	5.821696E-16
3.340000E+03	1.095512E-15	5.804720E-16
3.350000E+03	1.096655E-15	5.786975E-16
3.360000E+03	1.097648E-15	5.768474E-16
3.370000E+03	1.098492E-15	5.749233E-16
3.380000E+03	1.099189E-15	5.729269E-16
3.390000E+03	1.099725E-15	5.708517E-16
3.400000E+03	1.100120E-15	5.687079E-16
3.410000E+03	1.100343E-15	5.664814E-16
3.420000E+03	1.100431E-15	5.641907E-16
3.430000E+03	1.100355E-15	5.618221E-16
3.440000E+03	1.100119E-15	5.593785E-16
3.450000E+03	1.099729E-15	5.568626E-16
3.460000E+03	1.099172E-15	5.542698E-16
3.470000E+03	1.098470E-15	5.516107E-16
3.480000E+03	1.097613E-15	5.488810E-16
3.490000E+03	1.096592E-15	5.460767E-16
3.500000E+03	1.095412E-15	5.432016E-16
3.510000E+03	1.094067E-15	5.402524E-16
3.520000E+03	1.092577E-15	5.372396E-16
3.530000E+03	1.090907E-15	5.341469E-16
3.540000E+03	1.089080E-15	5.309854E-16
3.550000E+03	1.087088E-15	5.277528E-16
3.560000E+03	1.084940E-15	5.244535E-16
3.570000E+03	1.082619E-15	5.210793E-16
3.580000E+03	1.080120E-15	5.176291E-16
3.590000E+03	1.077466E-15	5.141140E-16
3.600000E+03	1.074629E-15	5.105210E-16
3.610000E+03	1.071630E-15	5.068613E-16
3.620000E+03	1.068467E-15	5.031344E-16
3.630000E+03	1.065127E-15	4.993342E-16
3.640000E+03	1.061609E-15	4.954610E-16
3.650000E+03	1.057923E-15	4.915205E-16
3.660000E+03	1.054058E-15	4.875077E-16
3.670000E+03	1.050037E-15	4.834339E-16
3.680000E+03	1.045837E-15	4.792891E-16
3.690000E+03	1.041470E-15	4.750795E-16
3.700000E+03	1.036938E-15	4.708061E-16
3.710000E+03	1.032251E-15	4.664749E-16
3.720000E+03	1.027401E-15	4.620820E-16
3.730000E+03	1.022399E-15	4.576336E-16
3.740000E+03	1.017247E-15	4.531306E-16
3.750000E+03	1.011956E-15	4.485790E-16
3.760000E+03	1.006529E-15	4.439799E-16
3.770000E+03	1.000977E-15	4.393387E-16
3.780000E+03	9.953005E-16	4.346566E-16
3.790000E+03	9.895016E-16	4.299345E-16
3.800000E+03	9.836105E-16	4.251859E-16
3.810000E+03	9.776087E-16	4.204033E-16
3.820000E+03	9.715163E-16	4.155957E-16
3.830000E+03	9.653526E-16	4.107714E-16
3.840000E+03	9.591084E-16	4.059268E-16
3.850000E+03	9.527932E-16	4.010662E-16
3.860000E+03	9.464251E-16	3.961973E-16
3.870000E+03	9.400125E-16	3.913237E-16
3.880000E+03	9.335633E-16	3.864488E-16
3.890000E+03	9.270767E-16	3.815722E-16
3.900000E+03	9.205687E-16	3.767006E-16
3.910000E+03	9.140463E-16	3.718368E-16
3.920000E+03	9.075160E-16	3.669832E-16
3.930000E+03	9.009840E-16	3.621423E-16
3.940000E+03	8.944563E-16	3.573163E-16
3.950000E+03	8.879464E-16	3.525104E-16
3.960000E+03	8.814593E-16	3.477263E-16
3.970000E+03	8.749919E-16	3.429625E-16
3.980000E+03	8.685642E-16	3.382266E-16
3.990000E+03	8.621725E-16	3.335166E-16
4.000000E+03	8.558281E-16	3.288367E-16
4.010000E+03	8.495344E-16	3.241877E-16
4.020000E+03	8.432870E-16	3.195673E-16
4.030000E+03	8.371036E-16	3.149820E-16
4.040000E+03	8.309793E-16	3.104293E-16
4.050000E+03	8.249236E-16	3.059123E-16
4.060000E+03	8.189385E-16	3.014311E-16
4.070000E+03	8.130256E-16	2.969857E-16
4.080000E+03	8.071865E-16	2.925760E-16
4.090000E+03	8.014294E-16	2.882046E-16
4.100000E+03	7.957482E-16	2.838684E-16
4.110000E+03	7.901440E-16	2.795673E-16
4.120000E+03	7.846311E-16	2.753056E-16
4.130000E+03	7.791962E-16	2.710780E-16
4.140000E+03	7.738464E-16	2.668863E-16
4.150000E+03	7.685819E-16	2.627298E-16
4.160000E+03	7.634026E-16	2.586078E-16
4.170000E+03	7.583083E-16	2.545196E-16
4.180000E+03	7.532987E-16	2.504643E-16
4.190000E+03	7.483733E-16	2.464410E-16
4.200000E+03	7.435316E-16	2.424489E-16
4.210000E+03	7.387728E-16	2.384871E-16
4.220000E+03	7.340961E-16	2.345545E-16
4.230000E+03	7.294942E-16	2.306482E-16
4.240000E+03	7.249662E-16	2.267672E-16
4.250000E+03	7.205172E-16	2.229126E-16
4.260000E+03	7.161460E-16	2.190832E-16
4.270000E+03	7.118388E-16	2.152742E-16
4.280000E+03	7.076004E-16	2.114867E-16
4.290000E+03	7.034293E-16	2.077194E-16
4.300000E+03	6.993239E-16	2.039715E-16
4.310000E+03	6.952825E-16	2.002419E-16
4.320000E+03	6.912972E-16	1.965278E-16
4.330000E+03	6.873782E-16	1.928317E-16
4.340000E+03	6.835115E-16	1.891490E-16
4.350000E+03	6.797069E-16	1.854822E-16
4.360000E+03	6.759622E-16	1.818302E-16
4.370000E+03	6.722810E-16	1.781933E-16
4.380000E+03	6.686609E-16	1.745705E-16
4.390000E+03	6.651052E-16	1.709621E-16
4.400000E+03	6.616111E-16	1.673670E-16
4.410000E+03	6.581877E-16	1.637868E-16
4.420000E+03	6.548321E-16	1.602203E-16
4.430000E+03	6.515413E-16	1.566662E-16
4.440000E+03	6.483239E-16	1.531260E-16
4.450000E+03	6.451769E-16	1.495984E-16
4.460000E+03	6.421027E-16	1.460833E-16
4.470000E+03	6.391098E-16	1.425820E-16
4.480000E+03	6.361889E-16	1.390918E-16
4.490000E+03	6.333482E-16	1.356138E-16
4.500000E+03	6.305901E-16	1.321478E-16
4.510000E+03	6.279110E-16	1.286923E-16
4.520000E+03	6.253131E-16	1.252472E-16
4.530000E+03	6.227986E-16	1.218121E-16
4.540000E+03	6.203696E-16	1.183867E-16
4.550000E+03	6.180281E-16	1.149707E-16
4.560000E+03	6.157706E-16	1.115627E-16
4.570000E+03	6.135930E-16	1.081614E-16
4.580000E+03	6.115092E-16	1.047686E-16
4.590000E+03	6.095095E-16	1.013818E-16
4.600000E+03	6.075899E-16	9.800001E-17
4.610000E+03	6.057584E-16	9.462399E-17
4.620000E+03	6.040167E-16	9.125357E-17
4.630000E+03	6.023496E-16	8.788611E-17
4.640000E+03	6.007763E-16	8.452429E-17
4.650000E+03	5.992754E-16	8.116503E-17
4.660000E+03	5.978608E-16	7.781042E-17
4.670000E+03	5.965284E-16	7.446030E-17
4.680000E+03	5.952745E-16	7.111486E-17
4.690000E+03	5.940953E-16	6.777473E-17
4.700000E+03	5.929871E-16	6.444108E-17
4.710000E+03	5.919580E-16	6.111691E-17
4.720000E+03	5.909986E-16	5.780408E-17
4.730000E+03	5.901055E-16	5.450614E-17
4.740000E+03	5.892814E-16	5.122845E-17
4.750000E+03	5.885115E-16	4.797657E-17
4.760000E+03	5.878107E-16	4.476081E-17
4.770000E+03	5.871591E-16	4.159164E-17
4.780000E+03	5.865666E-16	3.848600E-17
4.790000E+03	5.860320E-16	3.546554E-17
4.800000E+03	5.855430E-16	3.255900E-17
4.810000E+03	5.851059E-16	2.980686E-17
4.820000E+03	5.847283E-16	2.726350E-17
4.830000E+03	5.844012E-16	2.499994E-17
4.840000E+03	5.841354E-16	2.310717E-17
4.850000E+03	5.839375E-16	2.169063E-17
4.860000E+03	5.838103E-16	2.085488E-17
4.870000E+03	5.837647E-16	2.067670E-17
4.880000E+03	5.838080E-16	2.116999E-17
4.890000E+03	5.839198E-16	2.227551E-17
4.900000E+03	5.840924E-16	2.389339E-17
4.910000E+03	5.843030E-16	2.591254E-17
4.920000E+03	5.845483E-16	2.823285E-17
4.930000E+03	5.848209E-16	3.077272E-17
4.940000E+03	5.851090E-16	3.346908E-17
4.950000E+03	5.854139E-16	3.627526E-17
4.960000E+03	5.857260E-16	3.915601E-17
4.970000E+03	5.860484E-16	4.208573E-17
4.980000E+03	5.863730E-16	4.504449E-17
4.990000E+03	5.866980E-16	4.801744E-17
5.000000E+03	5.870163E-16	5.099263E-17
5.010000E+03	5.873389E-16	5.396219E-17
5.020000E+03	5.876532E-16	5.691800E-17
5.030000E+03	5.879587E-16	5.985437E-17
5.040000E+03	5.882611E-16	6.276733E-17
5.050000E+03	5.885542E-16	6.565249E-17
5.060000E+03	5.888379E-16	6.850673E-17
5.070000E+03	5.891123E-16	7.132740E-17
5.080000E+03	5.893773E-16	7.411231E-17
5.090000E+03	5.896269E-16	7.685876E-17
5.100000E+03	5.898613E-16	7.956507E-17
5.110000E+03	5.900868E-16	8.223060E-17
5.120000E+03	5.902912E-16	8.485239E-17
5.130000E+03	5.904869E-16	8.743102E-17
5.140000E+03	5.906558E-16	8.996281E-17
5.150000E+03	5.908104E-16	9.244861E-17
5.160000E+03	5.909446E-16	9.488664E-17
5.170000E+03	5.910588E-16	9.727615E-17
5.180000E+03	5.911530E-16	9.961642E-17
5.190000E+03	5.912215E-16	1.019058E-16
5.200000E+03	5.912644E-16	1.041436E-16
5.210000E+03	5.912761E-16	1.063282E-16
5.220000E+03	5.912687E-16	1.084613E-16
5.230000E+03	5.912244E-16	1.105390E-16
5.240000E+03	5.911496E-16	1.125619E-16
5.250000E+03	5.910446E-16	1.145297E-16
5.260000E+03	5.909097E-16	1.164419E-16
5.270000E+03	5.907331E-16	1.182958E-16
5.280000E+03	5.905214E-16	1.200922E-16
5.290000E+03	5.902689E-16	1.218296E-16
5.300000E+03	5.899761E-16	1.235077E-16
5.310000E+03	5.896375E-16	1.251249E-16
5.320000E+03	5.892596E-16	1.266823E-16
5.330000E+03	5.888310E-16	1.281771E-16
5.340000E+03	5.883523E-16	1.296091E-16
5.350000E+03	5.878184E-16	1.309768E-16
5.360000E+03	5.872358E-16	1.322814E-16
5.370000E+03	5.865876E-16	1.335188E-16
5.380000E+03	5.858805E-16	1.346903E-16
5.390000E+03	5.851095E-16	1.357945E-16
5.400000E+03	5.842698E-16	1.368299E-16
5.410000E+03	5.833447E-16	1.377926E-16
5.420000E+03	5.823296E-16	1.386810E-16
5.430000E+03	5.812198E-16	1.394939E-16
5.440000E+03	5.799878E-16	1.402243E-16
5.450000E+03	5.786291E-16	1.408708E-16
5.460000E+03	5.771224E-16	1.414280E-16
5.470000E+03	5.754579E-16	1.418932E-16
5.480000E+03	5.736551E-16	1.422708E-16
5.490000E+03	5.717101E-16	1.425599E-16
5.500000E+03	5.696422E-16	1.427653E-16
5.510000E+03	5.674590E-16	1.428889E-16
5.520000E+03	5.651855E-16	1.429372E-16
5.530000E+03	5.628176E-16	1.429096E-16
5.540000E+03	5.603686E-16	1.428098E-16
5.550000E+03	5.578404E-16	1.426386E-16
5.560000E+03	5.552515E-16	1.424014E-16
5.570000E+03	5.525981E-16	1.420977E-16
5.580000E+03	5.498875E-16	1.417300E-16
5.590000E+03	5.471214E-16	1.412993E-16
5.600000E+03	5.443126E-16	1.408096E-16
5.610000E+03	5.414571E-16	1.402607E-16
5.620000E+03	5.385621E-16	1.396549E-16
5.630000E+03	5.356347E-16	1.389950E-16
5.640000E+03	5.326762E-16	1.382822E-16
5.650000E+03	5.296938E-16	1.375188E-16
5.660000E+03	5.266833E-16	1.367048E-16
5.670000E+03	5.236515E-16	1.358427E-16
5.680000E+03	5.206054E-16	1.349352E-16
5.690000E+03	5.175462E-16	1.339832E-16
5.700000E+03	5.144750E-16	1.329880E-16
5.710000E+03	5.113932E-16	1.319508E-16
5.720000E+03	5.083127E-16	1.308754E-16
5.730000E+03	5.052237E-16	1.297602E-16
5.740000E+03	5.021381E-16	1.286090E-16
5.750000E+03	4.990569E-16	1.274229E-16
5.760000E+03	4.959756E-16	1.262016E-16
5.770000E+03	4.929005E-16	1.249475E-16
5.780000E+03	4.898377E-16	1.236629E-16
5.790000E+03	4.867827E-16	1.223475E-16
5.800000E+03	4.837362E-16	1.210023E-16
5.810000E+03	4.807094E-16	1.196307E-16
5.820000E+03	4.776925E-16	1.182312E-16
5.830000E+03	4.746912E-16	1.168059E-16
5.840000E+03	4.717060E-16	1.153556E-16
5.850000E+03	4.687374E-16	1.138813E-16
5.860000E+03	4.657910E-16	1.123849E-16
5.870000E+03	4.628568E-16	1.108648E-16
5.880000E+03	4.599453E-16	1.093243E-16
5.890000E+03	4.570518E-16	1.077628E-16
5.900000E+03	4.541763E-16	1.061810E-16
5.910000E+03	4.513190E-16	1.045798E-16
5.920000E+03	4.484800E-16	1.029598E-16
5.930000E+03	4.456643E-16	1.013229E-16
5.940000E+03	4.428620E-16	9.966735E-17
5.950000E+03	4.400728E-16	9.799391E-17
5.960000E+03	4.373018E-16	9.630437E-17
5.970000E+03	4.345487E-16	9.459938E-17
5.980000E+03	4.318034E-16	9.287740E-17
5.990000E+03	4.290756E-16	9.114127E-17
6.000000E+03	4.263501E-16	8.938847E-17
6.010000E+03	4.236416E-16	8.762286E-17
6.020000E+03	4.209347E-16	8.584201E-17
6.030000E+03	4.182291E-16	8.404671E-17
6.040000E+03	4.155293E-16	8.223871E-17
6.050000E+03	4.128301E-16	8.041780E-17
6.060000E+03	4.101309E-16	7.858481E-17
6.070000E+03	4.074214E-16	7.673872E-17
6.080000E+03	4.047110E-16	7.488233E-17
6.090000E+03	4.019846E-16	7.301387E-17
6.100000E+03	3.992513E-16	7.113618E-17
6.110000E+03	3.965058E-16	6.924946E-17
6.120000E+03	3.937428E-16	6.735400E-17
6.130000E+03	3.909617E-16	6.545108E-17
6.140000E+03	3.881668E-16	6.354281E-17
6.150000E+03	3.853530E-16	6.162974E-17
6.160000E+03	3.825196E-16	5.971337E-17
6.170000E+03	3.796758E-16	5.779671E-17
6.180000E+03	3.768117E-16	5.587993E-17
6.190000E+03	3.739316E-16	5.396550E-17
6.200000E+03	3.710399E-16	5.205595E-17
6.210000E+03	3.681410E-16	5.015392E-17
6.220000E+03	3.652301E-16	4.826085E-17
6.230000E+03	3.623068E-16	4.637909E-17
6.240000E+03	3.593759E-16	4.451181E-17
6.250000E+03	3.564327E-16	4.266124E-17
6.260000E+03	3.534821E-16	4.083110E-17
6.270000E+03	3.505244E-16	3.902485E-17
6.280000E+03	3.475646E-16	3.724691E-17
6.290000E+03	3.446033E-16	3.550164E-17
6.300000E+03	3.416413E-16	3.379398E-17
6.310000E+03	3.386839E-16	3.213002E-17
6.320000E+03	3.357370E-16	3.051655E-17
6.330000E+03	3.327971E-16	2.896046E-17
6.340000E+03	3.298703E-16	2.747049E-17
6.350000E+03	3.269628E-16	2.605650E-17
6.360000E+03	3.240720E-16	2.472879E-17
6.370000E+03	3.212090E-16	2.349995E-17
6.380000E+03	3.183760E-16	2.238290E-17
6.390000E+03	3.155754E-16	2.139123E-17
6.400000E+03	3.128095E-16	2.053862E-17
6.410000E+03	3.100896E-16	1.983837E-17
6.420000E+03	3.074130E-16	1.930071E-17
6.430000E+03	3.047899E-16	1.893307E-17
6.440000E+03	3.022205E-16	1.873744E-17
6.450000E+03	2.997035E-16	1.871019E-17
6.460000E+03	2.972413E-16	1.884246E-17
6.470000E+03	2.948305E-16	1.912055E-17
6.480000E+03	2.924716E-16	1.952796E-17
6.490000E+03	2.901515E-16	2.004583E-17
6.500000E+03	2.878750E-16	2.065635E-17
6.510000E+03	2.856382E-16	2.134205E-17
6.520000E+03	2.834330E-16	2.208665E-17
6.530000E+03	2.812606E-16	2.287632E-17
6.540000E+03	2.791180E-16	2.369879E-17
6.550000E+03	2.770026E-16	2.454357E-17
6.560000E+03	2.749122E-16	2.540180E-17
6.570000E+03	2.728493E-16	2.626645E-17
6.580000E+03	2.708076E-16	2.713092E-17
6.590000E+03	2.687859E-16	2.799003E-17
6.600000E+03	2.667873E-16	2.883997E-17
6.610000E+03	2.648109E-16	2.967726E-17
6.620000E+03	2.628514E-16	3.049851E-17
6.630000E+03	2.609127E-16	3.130187E-17
6.640000E+03	2.589899E-16	3.208488E-17
6.650000E+03	2.570914E-16	3.284708E-17
6.660000E+03	2.552083E-16	3.358615E-17
6.670000E+03	2.533404E-16	3.430110E-17
6.680000E+03	2.514922E-16	3.499176E-17
6.690000E+03	2.496636E-16	3.565758E-17
6.700000E+03	2.478505E-16	3.629759E-17
6.710000E+03	2.460532E-16	3.691149E-17
6.720000E+03	2.442760E-16	3.749982E-17
6.730000E+03	2.425151E-16	3.806190E-17
6.740000E+03	2.407750E-16	3.859847E-17
6.750000E+03	2.390476E-16	3.910830E-17
6.760000E+03	2.373417E-16	3.959299E-17
6.770000E+03	2.356493E-16	4.005140E-17
6.780000E+03	2.339792E-16	4.048527E-17
6.790000E+03	2.323233E-16	4.089352E-17
6.800000E+03	2.306865E-16	4.127728E-17
6.810000E+03	2.290689E-16	4.163699E-17
6.820000E+03	2.274670E-16	4.197235E-17
6.830000E+03	2.258853E-16	4.228461E-17
6.840000E+03	2.243201E-16	4.257351E-17
6.850000E+03	2.227759E-16	4.284036E-17
6.860000E+03	2.212449E-16	4.308410E-17
6.870000E+03	2.197358E-16	4.330691E-17
6.880000E+03	2.182448E-16	4.350853E-17
6.890000E+03	2.167723E-16	4.368955E-17
6.900000E+03	2.153146E-16	4.384973E-17
6.910000E+03	2.138803E-16	4.399131E-17
6.920000E+03	2.124576E-16	4.411238E-17
6.930000E+03	2.110589E-16	4.421608E-17
6.940000E+03	2.096765E-16	4.430131E-17
6.950000E+03	2.083107E-16	4.436869E-17
6.960000E+03	2.069660E-16	4.441969E-17
6.970000E+03	2.056386E-16	4.445405E-17
6.980000E+03	2.043288E-16	4.447241E-17
6.990000E+03	2.030369E-16	4.447536E-17
7.000000E+03	2.017633E-16	4.446355E-17
7.010000E+03	2.005082E-16	4.443758E-17
7.020000E+03	1.992680E-16	4.439720E-17
7.030000E+03	1.980507E-16	4.434479E-17
7.040000E+03	1.968450E-16	4.427835E-17
7.050000E+03	1.956628E-16	4.420112E-17
7.060000E+03	1.944927E-16	4.411111E-17
7.070000E+03	1.933427E-16	4.401069E-17
7.080000E+03	1.922092E-16	4.389962E-17
7.090000E+03	1.910925E-16	4.377854E-17
7.100000E+03	1.899966E-16	4.364894E-17
7.110000E+03	1.889142E-16	4.350971E-17
7.120000E+03	1.878493E-16	4.336236E-17
7.130000E+03	1.867983E-16	4.320667E-17
7.140000E+03	1.857654E-16	4.304414E-17
7.150000E+03	1.847507E-16	4.287543E-17
7.160000E+03	1.837508E-16	4.270029E-17
7.170000E+03	1.827695E-16	4.252027E-17
7.180000E+03	1.817999E-16	4.233427E-17
7.190000E+03	1.808494E-16	4.214468E-17
7.200000E+03	1.799147E-16	4.195130E-17
7.210000E+03	1.789924E-16	4.175393E-17
7.220000E+03	1.780864E-16	4.155410E-17
7.230000E+03	1.771970E-16	4.135246E-17
7.240000E+03	1.763207E-16	4.114883E-17
7.250000E+03	1.754580E-16	4.094389E-17
7.260000E+03	1.746090E-16	4.073830E-17
7.270000E+03	1.737740E-16	4.053274E-17
7.280000E+03	1.729534E-16	4.032788E-17
7.290000E+03	1.721403E-16	4.012271E-17
7.300000E+03	1.713421E-16	3.991956E-17
7.310000E+03	1.705555E-16	3.971828E-17
7.320000E+03	1.697774E-16	3.951868E-17
7.330000E+03	1.690115E-16	3.932225E-17
7.340000E+03	1.682512E-16	3.912797E-17
7.350000E+03	1.674967E-16	3.893650E-17
7.360000E+03	1.667484E-16	3.874844E-17
7.370000E+03	1.660031E-16	3.856361E-17
7.380000E+03	1.652646E-16	3.838339E-17
7.390000E+03	1.645228E-16	3.820593E-17
7.400000E+03	1.637849E-16	3.803341E-17
7.410000E+03	1.630444E-16	3.786473E-17
7.420000E+03	1.623050E-16	3.770118E-17
7.430000E+03	1.615636E-16	3.754244E-17
7.440000E+03	1.608203E-16	3.738893E-17
7.450000E+03	1.600788E-16	3.724183E-17
7.460000E+03	1.593360E-16	3.710070E-17
7.470000E+03	1.586022E-16	3.696823E-17
7.480000E+03	1.578708E-16	3.684309E-17
7.490000E+03	1.571486E-16	3.672710E-17
7.500000E+03	1.564324E-16	3.661963E-17
7.510000E+03	1.557323E-16	3.652320E-17
7.520000E+03	1.550449E-16	3.643711E-17
7.530000E+03	1.543702E-16	3.636141E-17
7.540000E+03	1.537116E-16	3.629690E-17
7.550000E+03	1.530689E-16	3.624356E-17
7.560000E+03	1.524487E-16	3.620292E-17
7.570000E+03	1.518443E-16	3.617328E-17
7.580000E+03	1.512588E-16	3.615531E-17
7.590000E+03	1.506953E-16	3.614965E-17
7.600000E+03	1.501505E-16	3.615529E-17
7.610000E+03	1.496274E-16	3.617282E-17
7.620000E+03	1.491224E-16	3.620119E-17
7.630000E+03	1.486420E-16	3.624174E-17
7.640000E+03	1.481794E-16	3.629255E-17
7.650000E+03	1.477409E-16	3.635494E-17
7.660000E+03	1.473196E-16	3.642695E-17
7.670000E+03	1.469220E-16	3.650987E-17
7.680000E+03	1.465410E-16	3.660169E-17
7.690000E+03	1.461831E-16	3.670370E-17
7.700000E+03	1.458448E-16	3.681469E-17
7.710000E+03	1.455257E-16	3.693429E-17
7.720000E+03	1.452255E-16	3.706209E-17
7.730000E+03	1.449441E-16	3.719771E-17
7.740000E+03	1.446811E-16	3.734075E-17
7.750000E+03	1.444329E-16	3.748996E-17
7.760000E+03	1.442059E-16	3.764667E-17
