#wls	flux	fluxerr
1.600000E+03	2.494379E-16	2.290205E-16
1.640000E+03	2.627808E-16	2.384267E-16
1.680000E+03	2.771486E-16	2.483871E-16
1.720000E+03	2.926673E-16	2.589669E-16
1.760000E+03	3.094058E-16	2.701738E-16
1.800000E+03	3.274699E-16	2.820420E-16
1.840000E+03	3.470070E-16	2.946342E-16
1.880000E+03	3.681014E-16	3.079504E-16
1.920000E+03	3.909143E-16	3.220481E-16
1.960000E+03	4.155383E-16	3.369182E-16
2.000000E+03	4.421873E-16	3.526410E-16
2.040000E+03	4.709630E-16	3.691950E-16
2.080000E+03	5.020507E-16	3.866151E-16
2.120000E+03	5.356416E-16	4.049275E-16
2.160000E+03	5.720684E-16	4.242505E-16
2.200000E+03	6.115877E-16	4.446252E-16
2.240000E+03	6.548014E-16	4.663212E-16
2.280000E+03	7.022015E-16	4.894936E-16
2.320000E+03	7.541958E-16	5.142079E-16
2.360000E+03	8.110347E-16	5.403978E-16
2.400000E+03	8.728893E-16	5.679296E-16
2.440000E+03	9.399473E-16	5.966691E-16
2.480000E+03	1.012409E-15	6.264801E-16
2.520000E+03	1.090538E-15	6.572564E-16
2.560000E+03	1.174544E-15	6.888481E-16
2.600000E+03	1.264438E-15	7.209889E-16
2.640000E+03	1.360320E-15	7.534706E-16
2.680000E+03	1.461988E-15	7.859343E-16
2.720000E+03	1.569165E-15	8.180129E-16
2.760000E+03	1.681353E-15	8.492688E-16
2.800000E+03	1.797806E-15	8.792042E-16
2.840000E+03	1.917651E-15	9.073386E-16
2.880000E+03	2.039680E-15	9.331271E-16
2.920000E+03	2.163008E-15	9.562773E-16
2.960000E+03	2.287010E-15	9.766961E-16
3.000000E+03	2.411373E-15	9.944882E-16
3.010000E+03	2.442432E-15	9.985217E-16
3.020000E+03	2.473461E-15	1.002392E-15
3.030000E+03	2.504488E-15	1.006116E-15
3.040000E+03	2.535477E-15	1.009684E-15
3.050000E+03	2.566388E-15	1.013085E-15
3.060000E+03	2.597311E-15	1.016362E-15
3.070000E+03	2.628077E-15	1.019452E-15
3.080000E+03	2.658772E-15	1.022397E-15
3.090000E+03	2.689355E-15	1.025186E-15
3.100000E+03	2.719846E-15	1.027834E-15
3.110000E+03	2.750200E-15	1.030329E-15
3.120000E+03	2.780435E-15	1.032685E-15
3.130000E+03	2.810504E-15	1.034892E-15
3.140000E+03	2.840362E-15	1.036939E-15
3.150000E+03	2.870021E-15	1.038838E-15
3.160000E+03	2.899496E-15	1.040602E-15
3.170000E+03	2.928737E-15	1.042219E-15
3.180000E+03	2.957694E-15	1.043679E-15
3.190000E+03	2.986377E-15	1.044993E-15
3.200000E+03	3.014795E-15	1.046171E-15
3.210000E+03	3.042896E-15	1.047202E-15
3.220000E+03	3.070627E-15	1.048076E-15
3.230000E+03	3.097938E-15	1.048783E-15
3.240000E+03	3.124894E-15	1.049353E-15
3.250000E+03	3.151441E-15	1.049774E-15
3.260000E+03	3.177526E-15	1.050037E-15
3.270000E+03	3.203099E-15	1.050132E-15
3.280000E+03	3.228164E-15	1.050069E-15
3.290000E+03	3.252615E-15	1.049819E-15
3.300000E+03	3.276569E-15	1.049428E-15
3.310000E+03	3.299865E-15	1.048852E-15
3.320000E+03	3.322457E-15	1.048084E-15
3.330000E+03	3.344407E-15	1.047149E-15
3.340000E+03	3.365616E-15	1.046024E-15
3.350000E+03	3.386041E-15	1.044702E-15
3.360000E+03	3.405643E-15	1.043179E-15
3.370000E+03	3.424383E-15	1.041449E-15
3.380000E+03	3.442228E-15	1.039508E-15
3.390000E+03	3.459095E-15	1.037338E-15
3.400000E+03	3.475054E-15	1.034967E-15
3.410000E+03	3.489933E-15	1.032348E-15
3.420000E+03	3.503713E-15	1.029484E-15
3.430000E+03	3.516423E-15	1.026388E-15
3.440000E+03	3.527958E-15	1.023036E-15
3.450000E+03	3.538220E-15	1.019405E-15
3.460000E+03	3.547252E-15	1.015513E-15
3.470000E+03	3.554969E-15	1.011341E-15
3.480000E+03	3.561293E-15	1.006872E-15
3.490000E+03	3.566199E-15	1.002105E-15
3.500000E+03	3.569624E-15	9.970282E-16
3.510000E+03	3.571434E-15	9.916082E-16
3.520000E+03	3.571629E-15	9.858509E-16
3.530000E+03	3.570097E-15	9.797304E-16
3.540000E+03	3.566776E-15	9.732354E-16
3.550000E+03	3.561504E-15	9.663267E-16
3.560000E+03	3.554246E-15	9.590008E-16
3.570000E+03	3.544906E-15	9.512372E-16
3.580000E+03	3.533366E-15	9.430099E-16
3.590000E+03	3.519630E-15	9.343258E-16
3.600000E+03	3.503643E-15	9.251755E-16
3.610000E+03	3.485361E-15	9.155529E-16
3.620000E+03	3.464854E-15	9.054814E-16
3.630000E+03	3.442194E-15	8.949847E-16
3.640000E+03	3.417524E-15	8.841035E-16
3.650000E+03	3.390888E-15	8.728526E-16
3.660000E+03	3.362427E-15	8.612715E-16
3.670000E+03	3.332251E-15	8.493903E-16
3.680000E+03	3.300556E-15	8.372610E-16
3.690000E+03	3.267386E-15	8.248955E-16
3.700000E+03	3.232960E-15	8.123494E-16
3.710000E+03	3.197342E-15	7.996396E-16
3.720000E+03	3.160683E-15	7.868030E-16
3.730000E+03	3.123126E-15	7.738743E-16
3.740000E+03	3.084779E-15	7.608796E-16
3.750000E+03	3.045748E-15	7.478431E-16
3.760000E+03	3.006183E-15	7.348000E-16
3.770000E+03	2.966152E-15	7.217647E-16
3.780000E+03	2.925816E-15	7.087742E-16
3.790000E+03	2.885208E-15	6.958336E-16
3.800000E+03	2.844475E-15	6.829759E-16
3.810000E+03	2.803664E-15	6.702092E-16
3.820000E+03	2.762885E-15	6.575569E-16
3.830000E+03	2.722218E-15	6.450351E-16
3.840000E+03	2.681696E-15	6.326478E-16
3.850000E+03	2.641433E-15	6.204187E-16
3.860000E+03	2.601469E-15	6.083542E-16
3.870000E+03	2.561845E-15	5.964599E-16
3.880000E+03	2.522635E-15	5.847499E-16
3.890000E+03	2.483849E-15	5.732229E-16
3.900000E+03	2.445572E-15	5.618950E-16
3.910000E+03	2.407805E-15	5.507632E-16
3.920000E+03	2.370605E-15	5.398369E-16
3.930000E+03	2.333986E-15	5.291158E-16
3.940000E+03	2.297960E-15	5.185994E-16
3.950000E+03	2.262571E-15	5.082943E-16
3.960000E+03	2.227809E-15	4.981945E-16
3.970000E+03	2.193711E-15	4.883055E-16
3.980000E+03	2.160278E-15	4.786243E-16
3.990000E+03	2.127510E-15	4.691475E-16
4.000000E+03	2.095421E-15	4.598752E-16
4.010000E+03	2.064023E-15	4.508071E-16
4.020000E+03	2.033295E-15	4.419352E-16
4.030000E+03	2.003245E-15	4.332588E-16
4.040000E+03	1.973881E-15	4.247766E-16
4.050000E+03	1.945194E-15	4.164837E-16
4.060000E+03	1.917159E-15	4.083721E-16
4.070000E+03	1.889795E-15	4.004432E-16
4.080000E+03	1.863092E-15	3.926920E-16
4.090000E+03	1.837036E-15	3.851133E-16
4.100000E+03	1.811616E-15	3.777020E-16
4.110000E+03	1.786819E-15	3.704529E-16
4.120000E+03	1.762633E-15	3.633612E-16
4.130000E+03	1.739072E-15	3.564272E-16
4.140000E+03	1.716109E-15	3.496431E-16
4.150000E+03	1.693731E-15	3.430037E-16
4.160000E+03	1.671924E-15	3.365042E-16
4.170000E+03	1.650701E-15	3.301447E-16
4.180000E+03	1.630035E-15	3.239177E-16
4.190000E+03	1.609924E-15	3.178207E-16
4.200000E+03	1.590356E-15	3.118487E-16
4.210000E+03	1.571329E-15	3.059995E-16
4.220000E+03	1.552829E-15	3.002680E-16
4.230000E+03	1.534867E-15	2.946541E-16
4.240000E+03	1.517427E-15	2.891529E-16
4.250000E+03	1.500521E-15	2.837640E-16
4.260000E+03	1.484134E-15	2.784824E-16
4.270000E+03	1.468275E-15	2.733076E-16
4.280000E+03	1.452953E-15	2.682389E-16
4.290000E+03	1.438164E-15	2.632733E-16
4.300000E+03	1.423918E-15	2.584097E-16
4.310000E+03	1.410232E-15	2.536492E-16
4.320000E+03	1.397104E-15	2.489882E-16
4.330000E+03	1.384540E-15	2.444254E-16
4.340000E+03	1.372547E-15	2.399593E-16
4.350000E+03	1.361101E-15	2.355823E-16
4.360000E+03	1.350209E-15	2.312929E-16
4.370000E+03	1.339846E-15	2.270840E-16
4.380000E+03	1.329999E-15	2.229503E-16
4.390000E+03	1.320654E-15	2.188867E-16
4.400000E+03	1.311788E-15	2.148865E-16
4.410000E+03	1.303369E-15	2.109415E-16
4.420000E+03	1.295385E-15	2.070471E-16
4.430000E+03	1.287792E-15	2.031938E-16
4.440000E+03	1.280570E-15	1.993759E-16
4.450000E+03	1.273709E-15	1.955895E-16
4.460000E+03	1.267188E-15	1.918289E-16
4.470000E+03	1.260988E-15	1.880890E-16
4.480000E+03	1.255097E-15	1.843662E-16
4.490000E+03	1.249496E-15	1.806556E-16
4.500000E+03	1.244167E-15	1.769524E-16
4.510000E+03	1.239119E-15	1.732565E-16
4.520000E+03	1.234333E-15	1.695634E-16
4.530000E+03	1.229801E-15	1.658702E-16
4.540000E+03	1.225512E-15	1.621742E-16
4.550000E+03	1.221458E-15	1.584730E-16
4.560000E+03	1.217640E-15	1.547654E-16
4.570000E+03	1.214048E-15	1.510495E-16
4.580000E+03	1.210674E-15	1.473232E-16
4.590000E+03	1.207508E-15	1.435849E-16
4.600000E+03	1.204552E-15	1.398347E-16
4.610000E+03	1.201798E-15	1.360715E-16
4.620000E+03	1.199225E-15	1.322938E-16
4.630000E+03	1.196835E-15	1.285025E-16
4.640000E+03	1.194621E-15	1.246984E-16
4.650000E+03	1.192572E-15	1.208826E-16
4.660000E+03	1.190661E-15	1.170550E-16
4.670000E+03	1.188890E-15	1.132197E-16
4.680000E+03	1.187230E-15	1.093788E-16
4.690000E+03	1.185683E-15	1.055384E-16
4.700000E+03	1.184252E-15	1.017061E-16
4.710000E+03	1.182919E-15	9.788915E-17
4.720000E+03	1.181698E-15	9.409937E-17
4.730000E+03	1.180592E-15	9.034968E-17
4.740000E+03	1.179605E-15	8.665549E-17
4.750000E+03	1.178742E-15	8.303512E-17
4.760000E+03	1.178009E-15	7.951022E-17
4.770000E+03	1.177389E-15	7.610500E-17
4.780000E+03	1.176890E-15	7.284948E-17
4.790000E+03	1.176518E-15	6.977838E-17
4.800000E+03	1.176270E-15	6.693064E-17
4.810000E+03	1.176143E-15	6.434984E-17
4.820000E+03	1.176147E-15	6.208381E-17
4.830000E+03	1.176267E-15	6.018099E-17
4.840000E+03	1.176513E-15	5.868982E-17
4.850000E+03	1.176882E-15	5.765297E-17
4.860000E+03	1.177358E-15	5.710281E-17
4.870000E+03	1.177945E-15	5.705865E-17
4.880000E+03	1.178635E-15	5.752235E-17
4.890000E+03	1.179414E-15	5.847849E-17
4.900000E+03	1.180270E-15	5.989648E-17
4.910000E+03	1.181176E-15	6.173405E-17
4.920000E+03	1.182136E-15	6.394396E-17
4.930000E+03	1.183112E-15	6.647439E-17
4.940000E+03	1.184098E-15	6.927601E-17
4.950000E+03	1.185078E-15	7.230195E-17
4.960000E+03	1.186025E-15	7.550877E-17
4.970000E+03	1.186935E-15	7.885896E-17
4.980000E+03	1.187792E-15	8.231897E-17
4.990000E+03	1.188584E-15	8.585952E-17
5.000000E+03	1.189277E-15	8.945356E-17
5.010000E+03	1.189890E-15	9.308146E-17
5.020000E+03	1.190379E-15	9.672158E-17
5.030000E+03	1.190758E-15	1.003591E-16
5.040000E+03	1.191015E-15	1.039796E-16
5.050000E+03	1.191120E-15	1.075686E-16
5.060000E+03	1.191076E-15	1.111161E-16
5.070000E+03	1.190887E-15	1.146135E-16
5.080000E+03	1.190524E-15	1.180503E-16
5.090000E+03	1.189992E-15	1.214200E-16
5.100000E+03	1.189286E-15	1.247162E-16
5.110000E+03	1.188402E-15	1.279331E-16
5.120000E+03	1.187324E-15	1.310644E-16
5.130000E+03	1.186049E-15	1.341058E-16
5.140000E+03	1.184586E-15	1.370544E-16
5.150000E+03	1.182922E-15	1.399058E-16
5.160000E+03	1.181054E-15	1.426569E-16
5.170000E+03	1.178981E-15	1.453052E-16
5.180000E+03	1.176705E-15	1.478485E-16
5.190000E+03	1.174212E-15	1.502837E-16
5.200000E+03	1.171516E-15	1.526108E-16
5.210000E+03	1.168617E-15	1.548285E-16
5.220000E+03	1.165506E-15	1.569346E-16
5.230000E+03	1.162184E-15	1.589284E-16
5.240000E+03	1.158665E-15	1.608112E-16
5.250000E+03	1.154941E-15	1.625812E-16
5.260000E+03	1.151004E-15	1.642371E-16
5.270000E+03	1.146869E-15	1.657807E-16
5.280000E+03	1.142540E-15	1.672125E-16
5.290000E+03	1.138021E-15	1.685333E-16
5.300000E+03	1.133306E-15	1.697423E-16
5.310000E+03	1.128399E-15	1.708405E-16
5.320000E+03	1.123307E-15	1.718292E-16
5.330000E+03	1.118035E-15	1.727096E-16
5.340000E+03	1.112589E-15	1.734833E-16
5.350000E+03	1.106963E-15	1.741502E-16
5.360000E+03	1.101175E-15	1.747136E-16
5.370000E+03	1.095222E-15	1.751738E-16
5.380000E+03	1.089109E-15	1.755326E-16
5.390000E+03	1.082832E-15	1.757903E-16
5.400000E+03	1.076411E-15	1.759508E-16
5.410000E+03	1.069841E-15	1.760144E-16
5.420000E+03	1.063129E-15	1.759836E-16
5.430000E+03	1.056283E-15	1.758605E-16
5.440000E+03	1.049322E-15	1.756494E-16
5.450000E+03	1.042252E-15	1.753526E-16
5.460000E+03	1.035092E-15	1.749744E-16
5.470000E+03	1.027818E-15	1.745120E-16
5.480000E+03	1.020437E-15	1.739680E-16
5.490000E+03	1.012937E-15	1.733413E-16
5.500000E+03	1.005325E-15	1.726346E-16
5.510000E+03	9.976106E-16	1.718505E-16
5.520000E+03	9.897908E-16	1.709899E-16
5.530000E+03	9.818935E-16	1.700589E-16
5.540000E+03	9.739165E-16	1.690583E-16
5.550000E+03	9.658574E-16	1.679890E-16
5.560000E+03	9.577240E-16	1.668537E-16
5.570000E+03	9.495335E-16	1.656567E-16
5.580000E+03	9.412834E-16	1.643989E-16
5.590000E+03	9.329808E-16	1.630827E-16
5.600000E+03	9.246330E-16	1.617107E-16
5.610000E+03	9.162467E-16	1.602855E-16
5.620000E+03	9.078286E-16	1.588094E-16
5.630000E+03	8.993853E-16	1.572849E-16
5.640000E+03	8.909138E-16	1.557128E-16
5.650000E+03	8.824295E-16	1.540970E-16
5.660000E+03	8.739293E-16	1.524382E-16
5.670000E+03	8.654283E-16	1.507403E-16
5.680000E+03	8.569228E-16	1.490040E-16
5.690000E+03	8.484185E-16	1.472313E-16
5.700000E+03	8.399296E-16	1.454260E-16
5.710000E+03	8.314522E-16	1.435886E-16
5.720000E+03	8.230001E-16	1.417227E-16
5.730000E+03	8.145692E-16	1.398287E-16
5.740000E+03	8.061641E-16	1.379086E-16
5.750000E+03	7.977893E-16	1.359643E-16
5.760000E+03	7.894662E-16	1.340006E-16
5.770000E+03	7.811731E-16	1.320149E-16
5.780000E+03	7.729395E-16	1.300133E-16
5.790000E+03	7.647437E-16	1.279932E-16
5.800000E+03	7.566146E-16	1.259606E-16
5.810000E+03	7.485474E-16	1.239156E-16
5.820000E+03	7.405369E-16	1.218586E-16
5.830000E+03	7.326031E-16	1.197937E-16
5.840000E+03	7.247407E-16	1.177211E-16
5.850000E+03	7.169608E-16	1.156437E-16
5.860000E+03	7.092502E-16	1.135603E-16
5.870000E+03	7.016357E-16	1.114762E-16
5.880000E+03	6.941041E-16	1.093901E-16
5.890000E+03	6.866737E-16	1.073059E-16
5.900000E+03	6.793312E-16	1.052225E-16
5.910000E+03	6.720947E-16	1.031435E-16
5.920000E+03	6.649663E-16	1.010702E-16
5.930000E+03	6.579482E-16	9.900379E-17
5.940000E+03	6.510347E-16	9.694420E-17
5.950000E+03	6.442431E-16	9.489489E-17
5.960000E+03	6.375751E-16	9.285689E-17
5.970000E+03	6.310247E-16	9.083016E-17
5.980000E+03	6.246087E-16	8.881785E-17
5.990000E+03	6.183208E-16	8.681985E-17
6.000000E+03	6.121696E-16	8.483810E-17
6.010000E+03	6.061637E-16	8.287448E-17
6.020000E+03	6.002964E-16	8.092876E-17
6.030000E+03	5.945757E-16	7.900269E-17
6.040000E+03	5.890094E-16	7.709796E-17
6.050000E+03	5.836048E-16	7.521610E-17
6.060000E+03	5.783546E-16	7.335672E-17
6.070000E+03	5.732656E-16	7.152128E-17
6.080000E+03	5.683516E-16	6.971202E-17
6.090000E+03	5.636044E-16	6.792838E-17
6.100000E+03	5.590370E-16	6.617243E-17
6.110000E+03	5.546404E-16	6.444355E-17
6.120000E+03	5.504342E-16	6.274442E-17
6.130000E+03	5.464086E-16	6.107433E-17
6.140000E+03	5.425607E-16	5.943340E-17
6.150000E+03	5.389017E-16	5.782328E-17
6.160000E+03	5.354204E-16	5.624324E-17
6.170000E+03	5.321057E-16	5.469267E-17
6.180000E+03	5.289671E-16	5.317319E-17
6.190000E+03	5.259994E-16	5.168498E-17
6.200000E+03	5.231899E-16	5.022763E-17
6.210000E+03	5.205395E-16	4.880221E-17
6.220000E+03	5.180272E-16	4.740798E-17
6.230000E+03	5.156530E-16	4.604639E-17
6.240000E+03	5.134090E-16	4.471844E-17
6.250000E+03	5.112800E-16	4.342483E-17
6.260000E+03	5.092572E-16	4.216720E-17
6.270000E+03	5.073240E-16	4.094701E-17
6.280000E+03	5.054781E-16	3.976733E-17
6.290000E+03	5.037094E-16	3.863109E-17
6.300000E+03	5.020073E-16	3.754172E-17
6.310000E+03	5.003467E-16	3.650216E-17
6.320000E+03	4.987382E-16	3.551857E-17
6.330000E+03	4.971562E-16	3.459498E-17
6.340000E+03	4.956037E-16	3.373799E-17
6.350000E+03	4.940623E-16	3.295308E-17
6.360000E+03	4.925205E-16	3.224654E-17
6.370000E+03	4.909747E-16	3.162520E-17
6.380000E+03	4.894212E-16	3.109576E-17
6.390000E+03	4.878424E-16	3.066349E-17
6.400000E+03	4.862359E-16	3.033387E-17
6.410000E+03	4.845929E-16	3.011071E-17
6.420000E+03	4.828985E-16	2.999589E-17
6.430000E+03	4.811391E-16	2.998942E-17
6.440000E+03	4.793179E-16	3.009015E-17
6.450000E+03	4.774182E-16	3.029336E-17
6.460000E+03	4.754400E-16	3.059326E-17
6.470000E+03	4.733855E-16	3.098235E-17
6.480000E+03	4.712508E-16	3.145145E-17
6.490000E+03	4.690407E-16	3.199111E-17
6.500000E+03	4.667607E-16	3.259160E-17
6.510000E+03	4.644024E-16	3.324220E-17
6.520000E+03	4.619795E-16	3.393403E-17
6.530000E+03	4.594984E-16	3.465826E-17
6.540000E+03	4.569658E-16	3.540667E-17
6.550000E+03	4.543736E-16	3.617062E-17
6.560000E+03	4.517355E-16	3.694385E-17
6.570000E+03	4.490577E-16	3.772027E-17
6.580000E+03	4.463388E-16	3.849387E-17
6.590000E+03	4.435844E-16	3.925988E-17
6.600000E+03	4.408070E-16	4.001475E-17
6.610000E+03	4.380044E-16	4.075424E-17
6.620000E+03	4.351811E-16	4.147522E-17
6.630000E+03	4.323414E-16	4.217501E-17
6.640000E+03	4.294890E-16	4.285133E-17
6.650000E+03	4.266274E-16	4.350223E-17
6.660000E+03	4.237527E-16	4.412537E-17
6.670000E+03	4.208747E-16	4.472010E-17
6.680000E+03	4.179960E-16	4.528531E-17
6.690000E+03	4.151186E-16	4.582009E-17
6.700000E+03	4.122374E-16	4.632296E-17
6.710000E+03	4.093681E-16	4.679489E-17
6.720000E+03	4.064980E-16	4.723389E-17
6.730000E+03	4.036285E-16	4.763962E-17
6.740000E+03	4.007742E-16	4.801351E-17
6.750000E+03	3.979223E-16	4.835380E-17
6.760000E+03	3.950803E-16	4.866130E-17
6.770000E+03	3.922421E-16	4.893519E-17
6.780000E+03	3.894216E-16	4.917727E-17
6.790000E+03	3.866057E-16	4.938600E-17
6.800000E+03	3.838015E-16	4.956244E-17
6.810000E+03	3.810094E-16	4.970683E-17
6.820000E+03	3.782296E-16	4.981948E-17
6.830000E+03	3.754624E-16	4.990071E-17
6.840000E+03	3.727081E-16	4.995088E-17
6.850000E+03	3.699602E-16	4.996948E-17
6.860000E+03	3.672325E-16	4.995872E-17
6.870000E+03	3.645120E-16	4.991723E-17
6.880000E+03	3.618121E-16	4.984726E-17
6.890000E+03	3.591268E-16	4.974841E-17
6.900000E+03	3.564499E-16	4.962025E-17
6.910000E+03	3.537949E-16	4.946510E-17
6.920000E+03	3.511557E-16	4.928257E-17
6.930000E+03	3.485330E-16	4.907319E-17
6.940000E+03	3.459271E-16	4.883748E-17
6.950000E+03	3.433452E-16	4.857691E-17
6.960000E+03	3.407749E-16	4.829019E-17
6.970000E+03	3.382297E-16	4.797968E-17
6.980000E+03	3.357038E-16	4.764501E-17
6.990000E+03	3.331977E-16	4.728672E-17
7.000000E+03	3.307120E-16	4.690535E-17
7.010000E+03	3.282537E-16	4.650231E-17
7.020000E+03	3.258170E-16	4.607722E-17
7.030000E+03	3.234023E-16	4.563058E-17
7.040000E+03	3.210165E-16	4.516377E-17
7.050000E+03	3.186536E-16	4.467639E-17
7.060000E+03	3.163203E-16	4.416975E-17
7.070000E+03	3.140107E-16	4.364343E-17
7.080000E+03	3.117250E-16	4.309786E-17
7.090000E+03	3.094697E-16	4.253431E-17
7.100000E+03	3.072447E-16	4.195315E-17
7.110000E+03	3.050440E-16	4.135389E-17
7.120000E+03	3.028797E-16	4.073856E-17
7.130000E+03	3.007333E-16	4.010499E-17
7.140000E+03	2.986229E-16	3.945597E-17
7.150000E+03	2.965359E-16	3.879015E-17
7.160000E+03	2.944781E-16	3.810862E-17
7.170000E+03	2.924548E-16	3.741242E-17
7.180000E+03	2.904533E-16	3.670023E-17
7.190000E+03	2.884791E-16	3.597308E-17
7.200000E+03	2.865372E-16	3.523196E-17
7.210000E+03	2.846148E-16	3.447560E-17
7.220000E+03	2.827228E-16	3.370571E-17
7.230000E+03	2.808601E-16	3.292250E-17
7.240000E+03	2.790196E-16	3.212550E-17
7.250000E+03	2.772001E-16	3.131501E-17
7.260000E+03	2.754003E-16	3.049132E-17
7.270000E+03	2.736308E-16	2.965605E-17
7.280000E+03	2.718723E-16	2.880762E-17
7.290000E+03	2.701412E-16	2.794832E-17
7.300000E+03	2.684184E-16	2.707677E-17
7.310000E+03	2.667199E-16	2.619531E-17
7.320000E+03	2.650267E-16	2.530278E-17
7.330000E+03	2.633491E-16	2.440108E-17
7.340000E+03	2.616797E-16	2.349047E-17
7.350000E+03	2.600170E-16	2.257196E-17
7.360000E+03	2.583598E-16	2.164671E-17
7.370000E+03	2.566951E-16	2.071513E-17
7.380000E+03	2.550331E-16	1.977985E-17
7.390000E+03	2.533555E-16	1.884144E-17
7.400000E+03	2.516727E-16	1.790315E-17
7.410000E+03	2.499722E-16	1.696690E-17
7.420000E+03	2.482477E-16	1.603570E-17
7.430000E+03	2.464985E-16	1.511360E-17
7.440000E+03	2.447358E-16	1.420616E-17
7.450000E+03	2.429536E-16	1.331883E-17
7.460000E+03	2.411691E-16	1.245956E-17
7.470000E+03	2.393711E-16	1.163622E-17
7.480000E+03	2.375716E-16	1.085968E-17
7.490000E+03	2.357771E-16	1.014250E-17
7.500000E+03	2.339886E-16	9.499074E-18
7.510000E+03	2.322076E-16	8.945603E-18
7.520000E+03	2.304356E-16	8.499075E-18
7.530000E+03	2.286800E-16	8.175502E-18
7.540000E+03	2.269365E-16	7.986551E-18
7.550000E+03	2.252120E-16	7.937515E-18
7.560000E+03	2.235070E-16	8.025031E-18
7.570000E+03	2.218160E-16	8.237493E-18
7.580000E+03	2.201388E-16	8.557785E-18
7.590000E+03	2.184807E-16	8.966452E-18
7.600000E+03	2.168413E-16	9.444001E-18
7.610000E+03	2.152097E-16	9.972310E-18
7.620000E+03	2.135970E-16	1.053683E-17
7.630000E+03	2.119983E-16	1.112498E-17
7.640000E+03	2.104142E-16	1.172689E-17
7.650000E+03	2.088402E-16	1.233445E-17
7.660000E+03	2.072879E-16	1.294218E-17
7.670000E+03	2.057530E-16	1.354506E-17
7.680000E+03	2.042313E-16	1.413906E-17
7.690000E+03	2.027344E-16	1.472211E-17
7.700000E+03	2.012528E-16	1.529132E-17
7.710000E+03	1.997928E-16	1.584545E-17
7.720000E+03	1.983554E-16	1.638333E-17
7.730000E+03	1.969416E-16	1.690408E-17
7.740000E+03	1.955520E-16	1.740714E-17
7.750000E+03	1.941927E-16	1.789260E-17
7.760000E+03	1.928540E-16	1.835931E-17
