#wls	flux	fluxerr
1.600000E+03	1.849503E-16	1.622956E-16
1.640000E+03	1.901371E-16	1.645149E-16
1.680000E+03	1.955943E-16	1.667744E-16
1.720000E+03	2.013758E-16	1.691029E-16
1.760000E+03	2.074604E-16	1.714640E-16
1.800000E+03	2.139480E-16	1.739199E-16
1.840000E+03	2.208210E-16	1.764332E-16
1.880000E+03	2.281468E-16	1.790330E-16
1.920000E+03	2.359541E-16	1.817139E-16
1.960000E+03	2.443205E-16	1.845051E-16
2.000000E+03	2.532345E-16	1.873642E-16
2.040000E+03	2.627814E-16	1.903182E-16
2.080000E+03	2.730032E-16	1.933576E-16
2.120000E+03	2.839984E-16	1.965078E-16
2.160000E+03	2.958205E-16	1.997561E-16
2.200000E+03	3.084682E-16	2.030491E-16
2.240000E+03	3.221151E-16	2.064444E-16
2.280000E+03	3.367074E-16	2.098443E-16
2.320000E+03	3.524343E-16	2.133010E-16
2.360000E+03	3.693736E-16	2.167865E-16
2.400000E+03	3.874698E-16	2.201901E-16
2.440000E+03	4.070087E-16	2.235923E-16
2.480000E+03	4.279400E-16	2.268727E-16
2.520000E+03	4.503494E-16	2.299842E-16
2.560000E+03	4.744058E-16	2.329138E-16
2.600000E+03	5.002922E-16	2.356428E-16
2.640000E+03	5.279480E-16	2.380290E-16
2.680000E+03	5.575569E-16	2.400426E-16
2.720000E+03	5.893155E-16	2.416475E-16
2.760000E+03	6.233365E-16	2.427633E-16
2.800000E+03	6.596296E-16	2.432684E-16
2.840000E+03	6.985995E-16	2.431859E-16
2.880000E+03	7.403649E-16	2.424223E-16
2.920000E+03	7.850326E-16	2.408832E-16
2.960000E+03	8.330407E-16	2.385767E-16
3.000000E+03	8.846134E-16	2.354376E-16
3.010000E+03	8.980404E-16	2.345025E-16
3.020000E+03	9.118415E-16	2.335456E-16
3.030000E+03	9.257743E-16	2.325022E-16
3.040000E+03	9.400861E-16	2.314332E-16
3.050000E+03	9.546555E-16	2.303058E-16
3.060000E+03	9.694832E-16	2.291186E-16
3.070000E+03	9.845699E-16	2.278703E-16
3.080000E+03	1.000045E-15	2.265887E-16
3.090000E+03	1.015652E-15	2.252139E-16
3.100000E+03	1.031780E-15	2.238312E-16
3.110000E+03	1.048038E-15	2.223529E-16
3.120000E+03	1.064691E-15	2.208346E-16
3.130000E+03	1.081738E-15	2.192740E-16
3.140000E+03	1.099048E-15	2.176421E-16
3.150000E+03	1.116753E-15	2.159645E-16
3.160000E+03	1.134856E-15	2.142392E-16
3.170000E+03	1.153217E-15	2.124386E-16
3.180000E+03	1.172112E-15	2.106124E-16
3.190000E+03	1.191264E-15	2.087078E-16
3.200000E+03	1.210808E-15	2.067486E-16
3.210000E+03	1.230885E-15	2.047568E-16
3.220000E+03	1.251353E-15	2.027059E-16
3.230000E+03	1.272062E-15	2.005713E-16
3.240000E+03	1.293444E-15	1.984198E-16
3.250000E+03	1.315204E-15	1.962032E-16
3.260000E+03	1.337336E-15	1.939196E-16
3.270000E+03	1.359983E-15	1.915884E-16
3.280000E+03	1.383138E-15	1.892066E-16
3.290000E+03	1.406644E-15	1.867510E-16
3.300000E+03	1.430641E-15	1.842396E-16
3.310000E+03	1.455273E-15	1.816884E-16
3.320000E+03	1.480378E-15	1.790744E-16
3.330000E+03	1.505786E-15	1.763763E-16
3.340000E+03	1.531949E-15	1.736456E-16
3.350000E+03	1.558540E-15	1.708421E-16
3.360000E+03	1.585540E-15	1.679631E-16
3.370000E+03	1.613086E-15	1.650220E-16
3.380000E+03	1.641155E-15	1.620149E-16
3.390000E+03	1.669724E-15	1.589380E-16
3.400000E+03	1.698764E-15	1.557880E-16
3.410000E+03	1.728244E-15	1.525618E-16
3.420000E+03	1.758291E-15	1.492707E-16
3.430000E+03	1.788706E-15	1.458981E-16
3.440000E+03	1.819611E-15	1.424557E-16
3.450000E+03	1.850797E-15	1.389294E-16
3.460000E+03	1.882540E-15	1.353438E-16
3.470000E+03	1.914624E-15	1.316869E-16
3.480000E+03	1.946825E-15	1.279502E-16
3.490000E+03	1.979571E-15	1.241701E-16
3.500000E+03	2.012465E-15	1.203302E-16
3.510000E+03	2.045430E-15	1.164388E-16
3.520000E+03	2.078550E-15	1.125159E-16
3.530000E+03	2.111902E-15	1.085824E-16
3.540000E+03	2.145060E-15	1.046364E-16
3.550000E+03	2.178254E-15	1.007136E-16
3.560000E+03	2.211209E-15	9.682787E-17
3.570000E+03	2.243972E-15	9.301207E-17
3.580000E+03	2.276419E-15	8.929442E-17
3.590000E+03	2.308252E-15	8.570008E-17
3.600000E+03	2.339656E-15	8.227493E-17
3.610000E+03	2.370317E-15	7.904682E-17
3.620000E+03	2.400238E-15	7.605402E-17
3.630000E+03	2.429091E-15	7.332050E-17
3.640000E+03	2.456864E-15	7.087432E-17
3.650000E+03	2.483220E-15	6.872515E-17
3.660000E+03	2.508293E-15	6.688575E-17
3.670000E+03	2.531736E-15	6.534433E-17
3.680000E+03	2.553520E-15	6.408711E-17
3.690000E+03	2.573307E-15	6.308335E-17
3.700000E+03	2.591079E-15	6.230348E-17
3.710000E+03	2.606535E-15	6.170657E-17
3.720000E+03	2.619849E-15	6.126119E-17
3.730000E+03	2.630781E-15	6.092655E-17
3.740000E+03	2.639293E-15	6.066872E-17
3.750000E+03	2.645397E-15	6.045841E-17
3.760000E+03	2.649298E-15	6.027482E-17
3.770000E+03	2.651113E-15	6.009940E-17
3.780000E+03	2.650884E-15	5.991588E-17
3.790000E+03	2.649094E-15	5.972154E-17
3.800000E+03	2.645743E-15	5.950562E-17
3.810000E+03	2.641371E-15	5.927181E-17
3.820000E+03	2.636154E-15	5.901730E-17
3.830000E+03	2.630514E-15	5.874626E-17
3.840000E+03	2.624627E-15	5.845845E-17
3.850000E+03	2.618776E-15	5.815693E-17
3.860000E+03	2.613327E-15	5.784750E-17
3.870000E+03	2.608498E-15	5.753334E-17
3.880000E+03	2.604477E-15	5.721746E-17
3.890000E+03	2.601316E-15	5.690042E-17
3.900000E+03	2.599246E-15	5.658717E-17
3.910000E+03	2.598459E-15	5.628239E-17
3.920000E+03	2.598826E-15	5.598437E-17
3.930000E+03	2.600491E-15	5.569798E-17
3.940000E+03	2.603568E-15	5.542780E-17
3.950000E+03	2.607867E-15	5.517226E-17
3.960000E+03	2.613457E-15	5.493531E-17
3.970000E+03	2.620284E-15	5.471814E-17
3.980000E+03	2.628353E-15	5.452283E-17
3.990000E+03	2.637383E-15	5.434503E-17
4.000000E+03	2.647244E-15	5.418310E-17
4.010000E+03	2.657947E-15	5.403779E-17
4.020000E+03	2.669154E-15	5.390220E-17
4.030000E+03	2.680682E-15	5.377227E-17
4.040000E+03	2.692421E-15	5.364509E-17
4.050000E+03	2.704183E-15	5.351589E-17
4.060000E+03	2.715638E-15	5.337699E-17
4.070000E+03	2.726703E-15	5.322572E-17
4.080000E+03	2.737242E-15	5.305847E-17
4.090000E+03	2.747066E-15	5.287113E-17
4.100000E+03	2.756087E-15	5.266214E-17
4.110000E+03	2.764305E-15	5.243246E-17
4.120000E+03	2.771523E-15	5.218005E-17
4.130000E+03	2.777689E-15	5.190649E-17
4.140000E+03	2.782746E-15	5.161372E-17
4.150000E+03	2.786682E-15	5.130472E-17
4.160000E+03	2.789196E-15	5.097707E-17
4.170000E+03	2.790215E-15	5.063228E-17
4.180000E+03	2.789568E-15	5.026953E-17
4.190000E+03	2.786984E-15	4.988568E-17
4.200000E+03	2.782237E-15	4.947777E-17
4.210000E+03	2.774973E-15	4.903996E-17
4.220000E+03	2.765030E-15	4.856927E-17
4.230000E+03	2.752218E-15	4.806178E-17
4.240000E+03	2.736288E-15	4.751234E-17
4.250000E+03	2.717122E-15	4.691814E-17
4.260000E+03	2.694795E-15	4.627986E-17
4.270000E+03	2.669362E-15	4.559806E-17
4.280000E+03	2.640974E-15	4.487514E-17
4.290000E+03	2.609869E-15	4.411507E-17
4.300000E+03	2.576369E-15	4.332315E-17
4.310000E+03	2.540957E-15	4.250725E-17
4.320000E+03	2.504029E-15	4.167369E-17
4.330000E+03	2.466073E-15	4.083042E-17
4.340000E+03	2.427607E-15	3.998589E-17
4.350000E+03	2.389246E-15	3.915013E-17
4.360000E+03	2.351441E-15	3.833020E-17
4.370000E+03	2.314754E-15	3.753463E-17
4.380000E+03	2.279716E-15	3.677098E-17
4.390000E+03	2.246703E-15	3.604401E-17
4.400000E+03	2.216217E-15	3.536035E-17
4.410000E+03	2.188508E-15	3.472256E-17
4.420000E+03	2.163816E-15	3.413327E-17
4.430000E+03	2.142360E-15	3.359493E-17
4.440000E+03	2.124194E-15	3.310769E-17
4.450000E+03	2.109281E-15	3.267048E-17
4.460000E+03	2.097523E-15	3.228162E-17
4.470000E+03	2.088710E-15	3.193791E-17
4.480000E+03	2.082560E-15	3.163521E-17
4.490000E+03	2.078826E-15	3.136960E-17
4.500000E+03	2.077131E-15	3.113433E-17
4.510000E+03	2.077086E-15	3.092108E-17
4.520000E+03	2.078367E-15	3.072118E-17
4.530000E+03	2.080650E-15	3.052544E-17
4.540000E+03	2.083655E-15	3.032601E-17
4.550000E+03	2.087158E-15	3.011780E-17
4.560000E+03	2.090996E-15	2.989912E-17
4.570000E+03	2.095087E-15	2.967178E-17
4.580000E+03	2.099331E-15	2.943859E-17
4.590000E+03	2.103732E-15	2.920334E-17
4.600000E+03	2.108204E-15	2.896628E-17
4.610000E+03	2.112631E-15	2.872400E-17
4.620000E+03	2.116966E-15	2.847070E-17
4.630000E+03	2.120977E-15	2.819567E-17
4.640000E+03	2.124471E-15	2.788748E-17
4.650000E+03	2.127201E-15	2.753375E-17
4.660000E+03	2.128915E-15	2.712267E-17
4.670000E+03	2.129400E-15	2.664414E-17
4.680000E+03	2.128410E-15	2.608936E-17
4.690000E+03	2.125750E-15	2.545183E-17
4.700000E+03	2.121258E-15	2.472617E-17
4.710000E+03	2.114726E-15	2.390534E-17
4.720000E+03	2.105990E-15	2.298007E-17
4.730000E+03	2.094842E-15	2.193752E-17
4.740000E+03	2.081110E-15	2.076460E-17
4.750000E+03	2.064785E-15	1.945474E-17
4.760000E+03	2.045895E-15	1.801656E-17
4.770000E+03	2.024735E-15	1.649165E-17
4.780000E+03	2.001804E-15	1.497681E-17
4.790000E+03	1.977843E-15	1.365289E-17
4.800000E+03	1.953853E-15	1.279995E-17
4.810000E+03	1.930948E-15	1.272753E-17
4.820000E+03	1.909536E-15	1.340314E-17
4.830000E+03	1.889279E-15	1.448837E-17
4.840000E+03	1.869935E-15	1.570833E-17
4.850000E+03	1.851459E-15	1.690100E-17
4.860000E+03	1.833875E-15	1.799071E-17
4.870000E+03	1.817215E-15	1.895528E-17
4.880000E+03	1.801373E-15	1.979057E-17
4.890000E+03	1.785955E-15	2.049073E-17
4.900000E+03	1.770550E-15	2.105977E-17
4.910000E+03	1.754804E-15	2.150967E-17
4.920000E+03	1.738383E-15	2.185646E-17
4.930000E+03	1.721031E-15	2.211776E-17
4.940000E+03	1.702503E-15	2.230951E-17
4.950000E+03	1.682735E-15	2.244651E-17
4.960000E+03	1.661679E-15	2.253950E-17
4.970000E+03	1.639398E-15	2.259635E-17
4.980000E+03	1.616067E-15	2.262245E-17
4.990000E+03	1.591914E-15	2.262091E-17
5.000000E+03	1.567214E-15	2.259333E-17
5.010000E+03	1.542333E-15	2.254166E-17
5.020000E+03	1.517603E-15	2.246735E-17
5.030000E+03	1.493373E-15	2.237277E-17
5.040000E+03	1.469987E-15	2.226127E-17
5.050000E+03	1.447723E-15	2.213641E-17
5.060000E+03	1.426866E-15	2.200281E-17
5.070000E+03	1.407571E-15	2.186402E-17
5.080000E+03	1.390036E-15	2.172491E-17
5.090000E+03	1.374346E-15	2.158910E-17
5.100000E+03	1.360541E-15	2.145989E-17
5.110000E+03	1.348662E-15	2.134103E-17
5.120000E+03	1.338657E-15	2.123512E-17
5.130000E+03	1.330500E-15	2.114555E-17
5.140000E+03	1.324100E-15	2.107489E-17
5.150000E+03	1.319362E-15	2.102564E-17
5.160000E+03	1.316176E-15	2.099982E-17
5.170000E+03	1.314425E-15	2.099870E-17
5.180000E+03	1.313980E-15	2.102253E-17
5.190000E+03	1.314718E-15	2.107073E-17
5.200000E+03	1.316482E-15	2.114127E-17
5.210000E+03	1.319112E-15	2.123144E-17
5.220000E+03	1.322441E-15	2.133787E-17
5.230000E+03	1.326287E-15	2.145672E-17
5.240000E+03	1.330457E-15	2.158384E-17
5.250000E+03	1.334749E-15	2.171492E-17
5.260000E+03	1.338970E-15	2.184578E-17
5.270000E+03	1.342880E-15	2.197153E-17
5.280000E+03	1.346303E-15	2.208824E-17
5.290000E+03	1.349012E-15	2.219113E-17
5.300000E+03	1.350833E-15	2.227639E-17
5.310000E+03	1.351598E-15	2.234034E-17
5.320000E+03	1.351158E-15	2.237997E-17
5.330000E+03	1.349389E-15	2.239301E-17
5.340000E+03	1.346193E-15	2.237814E-17
5.350000E+03	1.341489E-15	2.233475E-17
5.360000E+03	1.335244E-15	2.226329E-17
5.370000E+03	1.327487E-15	2.216543E-17
5.380000E+03	1.318215E-15	2.204219E-17
5.390000E+03	1.307533E-15	2.189608E-17
5.400000E+03	1.295555E-15	2.172943E-17
5.410000E+03	1.282419E-15	2.154451E-17
5.420000E+03	1.268305E-15	2.134402E-17
5.430000E+03	1.253419E-15	2.113081E-17
5.440000E+03	1.237984E-15	2.090785E-17
5.450000E+03	1.222230E-15	2.067811E-17
5.460000E+03	1.206385E-15	2.044442E-17
5.470000E+03	1.190667E-15	2.020930E-17
5.480000E+03	1.175264E-15	1.997471E-17
5.490000E+03	1.160362E-15	1.974261E-17
5.500000E+03	1.146097E-15	1.951426E-17
5.510000E+03	1.132596E-15	1.929107E-17
5.520000E+03	1.119934E-15	1.907399E-17
5.530000E+03	1.108168E-15	1.886418E-17
5.540000E+03	1.097342E-15	1.866308E-17
5.550000E+03	1.087458E-15	1.847187E-17
5.560000E+03	1.078533E-15	1.829242E-17
5.570000E+03	1.070524E-15	1.812578E-17
5.580000E+03	1.063446E-15	1.797411E-17
5.590000E+03	1.057274E-15	1.783876E-17
5.600000E+03	1.051999E-15	1.772113E-17
5.610000E+03	1.047629E-15	1.762255E-17
5.620000E+03	1.044149E-15	1.754349E-17
5.630000E+03	1.041581E-15	1.748463E-17
5.640000E+03	1.039948E-15	1.744619E-17
5.650000E+03	1.039242E-15	1.742741E-17
5.660000E+03	1.039483E-15	1.742771E-17
5.670000E+03	1.040636E-15	1.744525E-17
5.680000E+03	1.042689E-15	1.747831E-17
5.690000E+03	1.045563E-15	1.752394E-17
5.700000E+03	1.049186E-15	1.757919E-17
5.710000E+03	1.053453E-15	1.764058E-17
5.720000E+03	1.058227E-15	1.770416E-17
5.730000E+03	1.063362E-15	1.776603E-17
5.740000E+03	1.068714E-15	1.782243E-17
5.750000E+03	1.074105E-15	1.786953E-17
5.760000E+03	1.079378E-15	1.790432E-17
5.770000E+03	1.084346E-15	1.792411E-17
5.780000E+03	1.088858E-15	1.792765E-17
5.790000E+03	1.092764E-15	1.791450E-17
5.800000E+03	1.095931E-15	1.788503E-17
5.810000E+03	1.098236E-15	1.784003E-17
5.820000E+03	1.099598E-15	1.778102E-17
5.830000E+03	1.099936E-15	1.770919E-17
5.840000E+03	1.099242E-15	1.762644E-17
5.850000E+03	1.097506E-15	1.753403E-17
5.860000E+03	1.094753E-15	1.743304E-17
5.870000E+03	1.091058E-15	1.732459E-17
5.880000E+03	1.086502E-15	1.720923E-17
5.890000E+03	1.081211E-15	1.708766E-17
5.900000E+03	1.075309E-15	1.696014E-17
5.910000E+03	1.068932E-15	1.682689E-17
5.920000E+03	1.062254E-15	1.668866E-17
5.930000E+03	1.055411E-15	1.654563E-17
5.940000E+03	1.048567E-15	1.639862E-17
5.950000E+03	1.041857E-15	1.624836E-17
5.960000E+03	1.035415E-15	1.609597E-17
5.970000E+03	1.029371E-15	1.594295E-17
5.980000E+03	1.023808E-15	1.579045E-17
5.990000E+03	1.018831E-15	1.564029E-17
6.000000E+03	1.014489E-15	1.549366E-17
6.010000E+03	1.010851E-15	1.535229E-17
6.020000E+03	1.007930E-15	1.521718E-17
6.030000E+03	1.005738E-15	1.508943E-17
6.040000E+03	1.004288E-15	1.497021E-17
6.050000E+03	1.003534E-15	1.485967E-17
6.060000E+03	1.003436E-15	1.475791E-17
6.070000E+03	1.003921E-15	1.466416E-17
6.080000E+03	1.004895E-15	1.457688E-17
6.090000E+03	1.006226E-15	1.449367E-17
6.100000E+03	1.007797E-15	1.441185E-17
6.110000E+03	1.009430E-15	1.432780E-17
6.120000E+03	1.010974E-15	1.423823E-17
6.130000E+03	1.012235E-15	1.413952E-17
6.140000E+03	1.013033E-15	1.402891E-17
6.150000E+03	1.013206E-15	1.390489E-17
6.160000E+03	1.012570E-15	1.376722E-17
6.170000E+03	1.010961E-15	1.361795E-17
6.180000E+03	1.008244E-15	1.346209E-17
6.190000E+03	1.004334E-15	1.330797E-17
6.200000E+03	9.991688E-16	1.316675E-17
6.210000E+03	9.927414E-16	1.305199E-17
6.220000E+03	9.850827E-16	1.297696E-17
6.230000E+03	9.761386E-16	1.293843E-17
6.240000E+03	9.658369E-16	1.291944E-17
6.250000E+03	9.541658E-16	1.290415E-17
6.260000E+03	9.411719E-16	1.287981E-17
6.270000E+03	9.269619E-16	1.283740E-17
6.280000E+03	9.117285E-16	1.277204E-17
6.290000E+03	8.957252E-16	1.268229E-17
6.300000E+03	8.792298E-16	1.256907E-17
6.310000E+03	8.625936E-16	1.243575E-17
6.320000E+03	8.461707E-16	1.228666E-17
6.330000E+03	8.303101E-16	1.212667E-17
6.340000E+03	8.153711E-16	1.196130E-17
6.350000E+03	8.016490E-16	1.179563E-17
6.360000E+03	7.894281E-16	1.163518E-17
6.370000E+03	7.789219E-16	1.148527E-17
6.380000E+03	7.702757E-16	1.135105E-17
6.390000E+03	7.635936E-16	1.123797E-17
6.400000E+03	7.588900E-16	1.115096E-17
6.410000E+03	7.561289E-16	1.109482E-17
6.420000E+03	7.551955E-16	1.107355E-17
6.430000E+03	7.559222E-16	1.109039E-17
6.440000E+03	7.581030E-16	1.114752E-17
6.450000E+03	7.614721E-16	1.124282E-17
6.460000E+03	7.658011E-16	1.136943E-17
6.470000E+03	7.708258E-16	1.151895E-17
6.480000E+03	7.762783E-16	1.168288E-17
6.490000E+03	7.818843E-16	1.185290E-17
6.500000E+03	7.873837E-16	1.202145E-17
6.510000E+03	7.925668E-16	1.218250E-17
6.520000E+03	7.972524E-16	1.233123E-17
6.530000E+03	8.013114E-16	1.246440E-17
6.540000E+03	8.046382E-16	1.257981E-17
6.550000E+03	8.072020E-16	1.267693E-17
6.560000E+03	8.090115E-16	1.275617E-17
6.570000E+03	8.101087E-16	1.281862E-17
6.580000E+03	8.105698E-16	1.286592E-17
6.590000E+03	8.105038E-16	1.290017E-17
6.600000E+03	8.100249E-16	1.292349E-17
6.610000E+03	8.092591E-16	1.293817E-17
6.620000E+03	8.082992E-16	1.294600E-17
6.630000E+03	8.072580E-16	1.294919E-17
6.640000E+03	8.062003E-16	1.294937E-17
6.650000E+03	8.051830E-16	1.294821E-17
6.660000E+03	8.042264E-16	1.294700E-17
6.670000E+03	8.033235E-16	1.294672E-17
6.680000E+03	8.024336E-16	1.294788E-17
6.690000E+03	8.015215E-16	1.295110E-17
6.700000E+03	8.005100E-16	1.295623E-17
6.710000E+03	7.993127E-16	1.296286E-17
6.720000E+03	7.978666E-16	1.297077E-17
6.730000E+03	7.960851E-16	1.297914E-17
6.740000E+03	7.939078E-16	1.298732E-17
6.750000E+03	7.912686E-16	1.299433E-17
6.760000E+03	7.881253E-16	1.299930E-17
6.770000E+03	7.844612E-16	1.300150E-17
6.780000E+03	7.802584E-16	1.299995E-17
6.790000E+03	7.755326E-16	1.299397E-17
6.800000E+03	7.702970E-16	1.298254E-17
6.810000E+03	7.645957E-16	1.296482E-17
6.820000E+03	7.584674E-16	1.293942E-17
6.830000E+03	7.519869E-16	1.290508E-17
6.840000E+03	7.451931E-16	1.285949E-17
6.850000E+03	7.381816E-16	1.280106E-17
6.860000E+03	7.310066E-16	1.272760E-17
6.870000E+03	7.237469E-16	1.263785E-17
6.880000E+03	7.164680E-16	1.253131E-17
6.890000E+03	7.092286E-16	1.240855E-17
6.900000E+03	7.020705E-16	1.227107E-17
6.910000E+03	6.950417E-16	1.212155E-17
6.920000E+03	6.881715E-16	1.196303E-17
6.930000E+03	6.814711E-16	1.179862E-17
6.940000E+03	6.749594E-16	1.163156E-17
6.950000E+03	6.686320E-16	1.146446E-17
6.960000E+03	6.625031E-16	1.129996E-17
6.970000E+03	6.565439E-16	1.113959E-17
6.980000E+03	6.507628E-16	1.098523E-17
6.990000E+03	6.451507E-16	1.083817E-17
7.000000E+03	6.396898E-16	1.069935E-17
7.010000E+03	6.343687E-16	1.056954E-17
7.020000E+03	6.291823E-16	1.044938E-17
7.030000E+03	6.241081E-16	1.033900E-17
7.040000E+03	6.191293E-16	1.023832E-17
7.050000E+03	6.142272E-16	1.014698E-17
7.060000E+03	6.093813E-16	1.006432E-17
7.070000E+03	6.045629E-16	9.989272E-18
7.080000E+03	5.997650E-16	9.920878E-18
7.090000E+03	5.949521E-16	9.857483E-18
7.100000E+03	5.901126E-16	9.797654E-18
7.110000E+03	5.852234E-16	9.739688E-18
7.120000E+03	5.802722E-16	9.682099E-18
7.130000E+03	5.752589E-16	9.623735E-18
7.140000E+03	5.701746E-16	9.563495E-18
7.150000E+03	5.650237E-16	9.500708E-18
7.160000E+03	5.598176E-16	9.434949E-18
7.170000E+03	5.545675E-16	9.365808E-18
7.180000E+03	5.493058E-16	9.293115E-18
7.190000E+03	5.440640E-16	9.216536E-18
7.200000E+03	5.388733E-16	9.135622E-18
7.210000E+03	5.337757E-16	9.050152E-18
7.220000E+03	5.288167E-16	8.960148E-18
7.230000E+03	5.240496E-16	8.866082E-18
7.240000E+03	5.195075E-16	8.768479E-18
7.250000E+03	5.152410E-16	8.668573E-18
7.260000E+03	5.112830E-16	8.567698E-18
7.270000E+03	5.076783E-16	8.467742E-18
7.280000E+03	5.044315E-16	8.370200E-18
7.290000E+03	5.015682E-16	8.277126E-18
7.300000E+03	4.990832E-16	8.190176E-18
7.310000E+03	4.969720E-16	8.110987E-18
7.320000E+03	4.951996E-16	8.040515E-18
7.330000E+03	4.937455E-16	7.979601E-18
7.340000E+03	4.925562E-16	7.928068E-18
7.350000E+03	4.915967E-16	7.885506E-18
7.360000E+03	4.908043E-16	7.850531E-18
7.370000E+03	4.901402E-16	7.821687E-18
7.380000E+03	4.895425E-16	7.796815E-18
7.390000E+03	4.889768E-16	7.774016E-18
7.400000E+03	4.883940E-16	7.751154E-18
7.410000E+03	4.877490E-16	7.726334E-18
7.420000E+03	4.870192E-16	7.698343E-18
7.430000E+03	4.861734E-16	7.666240E-18
7.440000E+03	4.851714E-16	7.629376E-18
7.450000E+03	4.839945E-16	7.587854E-18
7.460000E+03	4.826206E-16	7.542104E-18
7.470000E+03	4.810366E-16	7.493106E-18
7.480000E+03	4.792134E-16	7.442095E-18
7.490000E+03	4.771434E-16	7.391310E-18
7.500000E+03	4.748099E-16	7.343737E-18
7.510000E+03	4.722175E-16	7.303754E-18
7.520000E+03	4.693507E-16	7.276474E-18
7.530000E+03	4.662097E-16	7.268011E-18
7.540000E+03	4.628051E-16	7.284719E-18
7.550000E+03	4.591392E-16	7.331473E-18
7.560000E+03	4.552257E-16	7.404041E-18
7.570000E+03	4.510822E-16	7.490293E-18
7.580000E+03	4.467340E-16	7.578061E-18
7.590000E+03	4.421960E-16	7.656279E-18
7.600000E+03	4.374956E-16	7.716204E-18
7.610000E+03	4.326442E-16	7.751381E-18
7.620000E+03	4.276767E-16	7.758435E-18
7.630000E+03	4.226114E-16	7.736191E-18
7.640000E+03	4.174788E-16	7.685790E-18
7.650000E+03	4.122984E-16	7.609793E-18
7.660000E+03	4.070960E-16	7.511961E-18
7.670000E+03	4.019028E-16	7.396797E-18
7.680000E+03	3.967401E-16	7.268910E-18
7.690000E+03	3.916407E-16	7.133169E-18
7.700000E+03	3.866281E-16	6.994166E-18
7.710000E+03	3.817365E-16	6.856489E-18
7.720000E+03	3.769897E-16	6.724255E-18
7.730000E+03	3.724255E-16	6.601435E-18
7.740000E+03	3.680597E-16	6.491090E-18
7.750000E+03	3.639148E-16	6.395736E-18
7.760000E+03	3.600195E-16	6.317204E-18
