#wls	flux	fluxerr
1.600000E+03	1.704714E-16	1.496427E-16
1.640000E+03	1.748450E-16	1.513537E-16
1.680000E+03	1.795030E-16	1.531443E-16
1.720000E+03	1.843897E-16	1.549520E-16
1.760000E+03	1.895163E-16	1.567720E-16
1.800000E+03	1.949706E-16	1.586609E-16
1.840000E+03	2.007714E-16	1.606146E-16
1.880000E+03	2.068983E-16	1.625966E-16
1.920000E+03	2.133687E-16	1.646002E-16
1.960000E+03	2.202862E-16	1.666823E-16
2.000000E+03	2.276338E-16	1.688034E-16
2.040000E+03	2.354810E-16	1.709873E-16
2.080000E+03	2.438110E-16	1.731912E-16
2.120000E+03	2.527468E-16	1.754700E-16
2.160000E+03	2.622264E-16	1.777442E-16
2.200000E+03	2.723820E-16	1.800661E-16
2.240000E+03	2.832541E-16	1.824194E-16
2.280000E+03	2.948854E-16	1.847854E-16
2.320000E+03	3.072638E-16	1.871085E-16
2.360000E+03	3.204881E-16	1.893988E-16
2.400000E+03	3.346656E-16	1.916638E-16
2.440000E+03	3.498512E-16	1.938735E-16
2.480000E+03	3.659727E-16	1.959257E-16
2.520000E+03	3.832737E-16	1.978866E-16
2.560000E+03	4.017499E-16	1.996811E-16
2.600000E+03	4.215303E-16	2.012985E-16
2.640000E+03	4.426064E-16	2.026563E-16
2.680000E+03	4.651859E-16	2.037690E-16
2.720000E+03	4.892597E-16	2.045463E-16
2.760000E+03	5.150478E-16	2.049927E-16
2.800000E+03	5.426198E-16	2.050420E-16
2.840000E+03	5.721255E-16	2.046561E-16
2.880000E+03	6.037174E-16	2.037917E-16
2.920000E+03	6.376403E-16	2.024294E-16
2.960000E+03	6.740539E-16	2.005139E-16
3.000000E+03	7.132096E-16	1.980122E-16
3.010000E+03	7.235315E-16	1.973110E-16
3.020000E+03	7.340302E-16	1.965654E-16
3.030000E+03	7.446070E-16	1.957478E-16
3.040000E+03	7.554600E-16	1.949093E-16
3.050000E+03	7.665915E-16	1.940477E-16
3.060000E+03	7.779025E-16	1.931353E-16
3.070000E+03	7.893929E-16	1.921708E-16
3.080000E+03	8.011654E-16	1.911775E-16
3.090000E+03	8.131181E-16	1.901287E-16
3.100000E+03	8.253549E-16	1.890470E-16
3.110000E+03	8.377722E-16	1.879065E-16
3.120000E+03	8.504749E-16	1.867293E-16
3.130000E+03	8.634640E-16	1.855129E-16
3.140000E+03	8.766333E-16	1.842327E-16
3.150000E+03	8.901968E-16	1.829316E-16
3.160000E+03	9.039401E-16	1.815629E-16
3.170000E+03	9.179705E-16	1.801467E-16
3.180000E+03	9.323974E-16	1.787020E-16
3.190000E+03	9.470017E-16	1.771841E-16
3.200000E+03	9.620029E-16	1.756326E-16
3.210000E+03	9.772900E-16	1.740244E-16
3.220000E+03	9.928618E-16	1.723573E-16
3.230000E+03	1.008830E-15	1.706485E-16
3.240000E+03	1.025080E-15	1.688762E-16
3.250000E+03	1.041723E-15	1.670568E-16
3.260000E+03	1.058645E-15	1.651693E-16
3.270000E+03	1.075957E-15	1.632296E-16
3.280000E+03	1.093657E-15	1.612348E-16
3.290000E+03	1.111742E-15	1.591823E-16
3.300000E+03	1.130210E-15	1.570692E-16
3.310000E+03	1.149057E-15	1.548933E-16
3.320000E+03	1.168277E-15	1.526521E-16
3.330000E+03	1.187985E-15	1.503585E-16
3.340000E+03	1.208058E-15	1.479948E-16
3.350000E+03	1.228488E-15	1.455592E-16
3.360000E+03	1.249388E-15	1.430641E-16
3.370000E+03	1.270752E-15	1.405071E-16
3.380000E+03	1.292571E-15	1.378862E-16
3.390000E+03	1.314714E-15	1.351871E-16
3.400000E+03	1.337414E-15	1.324342E-16
3.410000E+03	1.360537E-15	1.296139E-16
3.420000E+03	1.384194E-15	1.267372E-16
3.430000E+03	1.408122E-15	1.237816E-16
3.440000E+03	1.432676E-15	1.207810E-16
3.450000E+03	1.457590E-15	1.177148E-16
3.460000E+03	1.482968E-15	1.145956E-16
3.470000E+03	1.508786E-15	1.114259E-16
3.480000E+03	1.535019E-15	1.082096E-16
3.490000E+03	1.561638E-15	1.049516E-16
3.500000E+03	1.588737E-15	1.016664E-16
3.510000E+03	1.616280E-15	9.836066E-17
3.520000E+03	1.644100E-15	9.503566E-17
3.530000E+03	1.672278E-15	9.170979E-17
3.540000E+03	1.700765E-15	8.839549E-17
3.550000E+03	1.729502E-15	8.510751E-17
3.560000E+03	1.758556E-15	8.186891E-17
3.570000E+03	1.787729E-15	7.869288E-17
3.580000E+03	1.816943E-15	7.560174E-17
3.590000E+03	1.846367E-15	7.263019E-17
3.600000E+03	1.875653E-15	6.979384E-17
3.610000E+03	1.904950E-15	6.712936E-17
3.620000E+03	1.934016E-15	6.465852E-17
3.630000E+03	1.962728E-15	6.240576E-17
3.640000E+03	1.991073E-15	6.039476E-17
3.650000E+03	2.018903E-15	5.863812E-17
3.660000E+03	2.046058E-15	5.714030E-17
3.670000E+03	2.072370E-15	5.589679E-17
3.680000E+03	2.097663E-15	5.489426E-17
3.690000E+03	2.121883E-15	5.411471E-17
3.700000E+03	2.144855E-15	5.353071E-17
3.710000E+03	2.166296E-15	5.310802E-17
3.720000E+03	2.186298E-15	5.281964E-17
3.730000E+03	2.204501E-15	5.262734E-17
3.740000E+03	2.221051E-15	5.250660E-17
3.750000E+03	2.235890E-15	5.243061E-17
3.760000E+03	2.248886E-15	5.237433E-17
3.770000E+03	2.260177E-15	5.232273E-17
3.780000E+03	2.269825E-15	5.226264E-17
3.790000E+03	2.278033E-15	5.218759E-17
3.800000E+03	2.284716E-15	5.208740E-17
3.810000E+03	2.290239E-15	5.196482E-17
3.820000E+03	2.294770E-15	5.182011E-17
3.830000E+03	2.298484E-15	5.165556E-17
3.840000E+03	2.301463E-15	5.147281E-17
3.850000E+03	2.304080E-15	5.128128E-17
3.860000E+03	2.306404E-15	5.108436E-17
3.870000E+03	2.308588E-15	5.088790E-17
3.880000E+03	2.310773E-15	5.069747E-17
3.890000E+03	2.313173E-15	5.051990E-17
3.900000E+03	2.315898E-15	5.035918E-17
3.910000E+03	2.318957E-15	5.021656E-17
3.920000E+03	2.322612E-15	5.009805E-17
3.930000E+03	2.326774E-15	5.000134E-17
3.940000E+03	2.331596E-15	4.992864E-17
3.950000E+03	2.337134E-15	4.987912E-17
3.960000E+03	2.343501E-15	4.985238E-17
3.970000E+03	2.350551E-15	4.984165E-17
3.980000E+03	2.358340E-15	4.984393E-17
3.990000E+03	2.366886E-15	4.985501E-17
4.000000E+03	2.375950E-15	4.986521E-17
4.010000E+03	2.385555E-15	4.987063E-17
4.020000E+03	2.395481E-15	4.986263E-17
4.030000E+03	2.405495E-15	4.983297E-17
4.040000E+03	2.415500E-15	4.977694E-17
4.050000E+03	2.425327E-15	4.968937E-17
4.060000E+03	2.434824E-15	4.956654E-17
4.070000E+03	2.443787E-15	4.940519E-17
4.080000E+03	2.452109E-15	4.920543E-17
4.090000E+03	2.459706E-15	4.896942E-17
4.100000E+03	2.466462E-15	4.869986E-17
4.110000E+03	2.472408E-15	4.840340E-17
4.120000E+03	2.477535E-15	4.808636E-17
4.130000E+03	2.481674E-15	4.775215E-17
4.140000E+03	2.485022E-15	4.741125E-17
4.150000E+03	2.487423E-15	4.706717E-17
4.160000E+03	2.488947E-15	4.672735E-17
4.170000E+03	2.489533E-15	4.639610E-17
4.180000E+03	2.489097E-15	4.607639E-17
4.190000E+03	2.487584E-15	4.577034E-17
4.200000E+03	2.484854E-15	4.547704E-17
4.210000E+03	2.480802E-15	4.519440E-17
4.220000E+03	2.475254E-15	4.491744E-17
4.230000E+03	2.468036E-15	4.463959E-17
4.240000E+03	2.459035E-15	4.435401E-17
4.250000E+03	2.448066E-15	4.405146E-17
4.260000E+03	2.435027E-15	4.372335E-17
4.270000E+03	2.419946E-15	4.336299E-17
4.280000E+03	2.402710E-15	4.296127E-17
4.290000E+03	2.383389E-15	4.251319E-17
4.300000E+03	2.362045E-15	4.201528E-17
4.310000E+03	2.338744E-15	4.146628E-17
4.320000E+03	2.313712E-15	4.087027E-17
4.330000E+03	2.287054E-15	4.023135E-17
4.340000E+03	2.259002E-15	3.955736E-17
4.350000E+03	2.229902E-15	3.885877E-17
4.360000E+03	2.199962E-15	3.814310E-17
4.370000E+03	2.169612E-15	3.742067E-17
4.380000E+03	2.139246E-15	3.669970E-17
4.390000E+03	2.109245E-15	3.598708E-17
4.400000E+03	2.080070E-15	3.529040E-17
4.410000E+03	2.052111E-15	3.461609E-17
4.420000E+03	2.025767E-15	3.397132E-17
4.430000E+03	2.001402E-15	3.336354E-17
4.440000E+03	1.979326E-15	3.280012E-17
4.450000E+03	1.959813E-15	3.228844E-17
4.460000E+03	1.943038E-15	3.183434E-17
4.470000E+03	1.929098E-15	3.144221E-17
4.480000E+03	1.918069E-15	3.111541E-17
4.490000E+03	1.909900E-15	3.085413E-17
4.500000E+03	1.904525E-15	3.065672E-17
4.510000E+03	1.901743E-15	3.051732E-17
4.520000E+03	1.901413E-15	3.042874E-17
4.530000E+03	1.903259E-15	3.037944E-17
4.540000E+03	1.907063E-15	3.035715E-17
4.550000E+03	1.912572E-15	3.034815E-17
4.560000E+03	1.919533E-15	3.033895E-17
4.570000E+03	1.927726E-15	3.031791E-17
4.580000E+03	1.936911E-15	3.027538E-17
4.590000E+03	1.946881E-15	3.020518E-17
4.600000E+03	1.957384E-15	3.010341E-17
4.610000E+03	1.968246E-15	2.997009E-17
4.620000E+03	1.979238E-15	2.980640E-17
4.630000E+03	1.990157E-15	2.961510E-17
4.640000E+03	2.000771E-15	2.939913E-17
4.650000E+03	2.010900E-15	2.916257E-17
4.660000E+03	2.020293E-15	2.890859E-17
4.670000E+03	2.028813E-15	2.864149E-17
4.680000E+03	2.036262E-15	2.836314E-17
4.690000E+03	2.042484E-15	2.807361E-17
4.700000E+03	2.047343E-15	2.777061E-17
4.710000E+03	2.050712E-15	2.745077E-17
4.720000E+03	2.052469E-15	2.711172E-17
4.730000E+03	2.052488E-15	2.675425E-17
4.740000E+03	2.050664E-15	2.638430E-17
4.750000E+03	2.046868E-15	2.601295E-17
4.760000E+03	2.040982E-15	2.565645E-17
4.770000E+03	2.032921E-15	2.533495E-17
4.780000E+03	2.022648E-15	2.507008E-17
4.790000E+03	2.010119E-15	2.488073E-17
4.800000E+03	1.995464E-15	2.478138E-17
4.810000E+03	1.978790E-15	2.477639E-17
4.820000E+03	1.960316E-15	2.485993E-17
4.830000E+03	1.940325E-15	2.501603E-17
4.840000E+03	1.919050E-15	2.521964E-17
4.850000E+03	1.896805E-15	2.544230E-17
4.860000E+03	1.873769E-15	2.565337E-17
4.870000E+03	1.850209E-15	2.582679E-17
4.880000E+03	1.826239E-15	2.594041E-17
4.890000E+03	1.801987E-15	2.597990E-17
4.900000E+03	1.777504E-15	2.593796E-17
4.910000E+03	1.752848E-15	2.581516E-17
4.920000E+03	1.728020E-15	2.561778E-17
4.930000E+03	1.703070E-15	2.535773E-17
4.940000E+03	1.677975E-15	2.504869E-17
4.950000E+03	1.652781E-15	2.470629E-17
4.960000E+03	1.627519E-15	2.434512E-17
4.970000E+03	1.602302E-15	2.397890E-17
4.980000E+03	1.577218E-15	2.361838E-17
4.990000E+03	1.552383E-15	2.327204E-17
5.000000E+03	1.527988E-15	2.294705E-17
5.010000E+03	1.504187E-15	2.264796E-17
5.020000E+03	1.481174E-15	2.237808E-17
5.030000E+03	1.459086E-15	2.213810E-17
5.040000E+03	1.438113E-15	2.192747E-17
5.050000E+03	1.418370E-15	2.174253E-17
5.060000E+03	1.399974E-15	2.157808E-17
5.070000E+03	1.382986E-15	2.142734E-17
5.080000E+03	1.367469E-15	2.128422E-17
5.090000E+03	1.353456E-15	2.114376E-17
5.100000E+03	1.340953E-15	2.100298E-17
5.110000E+03	1.329975E-15	2.086160E-17
5.120000E+03	1.320553E-15	2.072204E-17
5.130000E+03	1.312702E-15	2.058849E-17
5.140000E+03	1.306444E-15	2.046658E-17
5.150000E+03	1.301785E-15	2.036238E-17
5.160000E+03	1.298759E-15	2.028228E-17
5.170000E+03	1.297376E-15	2.023161E-17
5.180000E+03	1.297621E-15	2.021406E-17
5.190000E+03	1.299493E-15	2.023222E-17
5.200000E+03	1.302913E-15	2.028602E-17
5.210000E+03	1.307790E-15	2.037405E-17
5.220000E+03	1.314025E-15	2.049375E-17
5.230000E+03	1.321422E-15	2.064044E-17
5.240000E+03	1.329790E-15	2.080912E-17
5.250000E+03	1.338874E-15	2.099377E-17
5.260000E+03	1.348419E-15	2.118860E-17
5.270000E+03	1.358138E-15	2.138767E-17
5.280000E+03	1.367734E-15	2.158533E-17
5.290000E+03	1.376897E-15	2.177611E-17
5.300000E+03	1.385340E-15	2.195516E-17
5.310000E+03	1.392812E-15	2.211822E-17
5.320000E+03	1.399061E-15	2.226088E-17
5.330000E+03	1.403895E-15	2.237957E-17
5.340000E+03	1.407130E-15	2.247069E-17
5.350000E+03	1.408634E-15	2.253151E-17
5.360000E+03	1.408325E-15	2.256034E-17
5.370000E+03	1.406121E-15	2.255568E-17
5.380000E+03	1.402036E-15	2.251789E-17
5.390000E+03	1.396081E-15	2.244754E-17
5.400000E+03	1.388313E-15	2.234604E-17
5.410000E+03	1.378873E-15	2.221628E-17
5.420000E+03	1.367889E-15	2.206096E-17
5.430000E+03	1.355571E-15	2.188414E-17
5.440000E+03	1.342148E-15	2.169018E-17
5.450000E+03	1.327875E-15	2.148372E-17
5.460000E+03	1.313008E-15	2.126924E-17
5.470000E+03	1.297848E-15	2.105153E-17
5.480000E+03	1.282635E-15	2.083391E-17
5.490000E+03	1.267633E-15	2.061961E-17
5.500000E+03	1.253051E-15	2.041061E-17
5.510000E+03	1.239097E-15	2.020853E-17
5.520000E+03	1.225918E-15	2.001399E-17
5.530000E+03	1.213648E-15	1.982759E-17
5.540000E+03	1.202366E-15	1.964931E-17
5.550000E+03	1.192145E-15	1.947964E-17
5.560000E+03	1.183027E-15	1.931932E-17
5.570000E+03	1.175003E-15	1.916895E-17
5.580000E+03	1.168080E-15	1.903010E-17
5.590000E+03	1.162246E-15	1.890449E-17
5.600000E+03	1.157492E-15	1.879416E-17
5.610000E+03	1.153778E-15	1.870056E-17
5.620000E+03	1.151107E-15	1.862563E-17
5.630000E+03	1.149441E-15	1.857014E-17
5.640000E+03	1.148787E-15	1.853493E-17
5.650000E+03	1.149106E-15	1.851937E-17
5.660000E+03	1.150392E-15	1.852262E-17
5.670000E+03	1.152592E-15	1.854237E-17
5.680000E+03	1.155630E-15	1.857542E-17
5.690000E+03	1.159428E-15	1.861824E-17
5.700000E+03	1.163875E-15	1.866685E-17
5.710000E+03	1.168801E-15	1.871670E-17
5.720000E+03	1.174038E-15	1.876399E-17
5.730000E+03	1.179374E-15	1.880497E-17
5.740000E+03	1.184617E-15	1.883690E-17
5.750000E+03	1.189518E-15	1.885672E-17
5.760000E+03	1.193854E-15	1.886204E-17
5.770000E+03	1.197424E-15	1.885089E-17
5.780000E+03	1.200036E-15	1.882140E-17
5.790000E+03	1.201503E-15	1.877184E-17
5.800000E+03	1.201721E-15	1.870189E-17
5.810000E+03	1.200591E-15	1.861154E-17
5.820000E+03	1.198073E-15	1.850186E-17
5.830000E+03	1.194177E-15	1.837458E-17
5.840000E+03	1.188946E-15	1.823171E-17
5.850000E+03	1.182498E-15	1.807576E-17
5.860000E+03	1.174963E-15	1.790878E-17
5.870000E+03	1.166532E-15	1.773292E-17
5.880000E+03	1.157398E-15	1.754973E-17
5.890000E+03	1.147769E-15	1.736063E-17
5.900000E+03	1.137885E-15	1.716748E-17
5.910000E+03	1.127977E-15	1.697228E-17
5.920000E+03	1.118259E-15	1.677743E-17
5.930000E+03	1.108943E-15	1.658608E-17
5.940000E+03	1.100237E-15	1.640188E-17
5.950000E+03	1.092287E-15	1.622787E-17
5.960000E+03	1.085272E-15	1.606762E-17
5.970000E+03	1.079282E-15	1.592299E-17
5.980000E+03	1.074420E-15	1.579561E-17
5.990000E+03	1.070713E-15	1.568541E-17
6.000000E+03	1.068179E-15	1.559185E-17
6.010000E+03	1.066779E-15	1.551340E-17
6.020000E+03	1.066448E-15	1.544828E-17
6.030000E+03	1.067090E-15	1.539451E-17
6.040000E+03	1.068574E-15	1.534992E-17
6.050000E+03	1.070772E-15	1.531262E-17
6.060000E+03	1.073517E-15	1.528035E-17
6.070000E+03	1.076639E-15	1.525065E-17
6.080000E+03	1.079978E-15	1.522104E-17
6.090000E+03	1.083366E-15	1.518853E-17
6.100000E+03	1.086626E-15	1.514972E-17
6.110000E+03	1.089591E-15	1.510138E-17
6.120000E+03	1.092104E-15	1.504076E-17
6.130000E+03	1.094011E-15	1.496622E-17
6.140000E+03	1.095164E-15	1.487769E-17
6.150000E+03	1.095414E-15	1.477681E-17
6.160000E+03	1.094639E-15	1.466739E-17
6.170000E+03	1.092701E-15	1.455430E-17
6.180000E+03	1.089467E-15	1.444303E-17
6.190000E+03	1.084824E-15	1.433876E-17
6.200000E+03	1.078671E-15	1.424541E-17
6.210000E+03	1.070915E-15	1.416472E-17
6.220000E+03	1.061488E-15	1.409618E-17
6.230000E+03	1.050343E-15	1.403690E-17
6.240000E+03	1.037472E-15	1.398221E-17
6.250000E+03	1.022928E-15	1.392649E-17
6.260000E+03	1.006814E-15	1.386367E-17
6.270000E+03	9.892897E-16	1.378793E-17
6.280000E+03	9.706202E-16	1.369497E-17
6.290000E+03	9.510751E-16	1.358119E-17
6.300000E+03	9.310340E-16	1.344558E-17
6.310000E+03	9.108760E-16	1.328862E-17
6.320000E+03	8.910186E-16	1.311312E-17
6.330000E+03	8.718626E-16	1.292349E-17
6.340000E+03	8.538266E-16	1.272628E-17
6.350000E+03	8.372520E-16	1.252850E-17
6.360000E+03	8.224675E-16	1.233822E-17
6.370000E+03	8.097263E-16	1.216318E-17
6.380000E+03	7.992164E-16	1.201051E-17
6.390000E+03	7.910719E-16	1.188651E-17
6.400000E+03	7.853309E-16	1.179580E-17
6.410000E+03	7.819856E-16	1.174188E-17
6.420000E+03	7.809554E-16	1.172676E-17
6.430000E+03	7.820940E-16	1.175096E-17
6.440000E+03	7.852052E-16	1.181367E-17
6.450000E+03	7.900758E-16	1.191293E-17
6.460000E+03	7.964273E-16	1.204460E-17
6.470000E+03	8.039825E-16	1.220323E-17
6.480000E+03	8.124255E-16	1.238155E-17
6.490000E+03	8.214626E-16	1.257178E-17
6.500000E+03	8.307825E-16	1.276548E-17
6.510000E+03	8.401092E-16	1.295484E-17
6.520000E+03	8.491680E-16	1.313266E-17
6.530000E+03	8.577560E-16	1.329367E-17
6.540000E+03	8.656862E-16	1.343399E-17
6.550000E+03	8.728179E-16	1.355161E-17
6.560000E+03	8.790586E-16	1.364644E-17
6.570000E+03	8.843811E-16	1.372029E-17
6.580000E+03	8.887826E-16	1.377585E-17
6.590000E+03	8.923055E-16	1.381661E-17
6.600000E+03	8.950107E-16	1.384586E-17
6.610000E+03	8.969867E-16	1.386656E-17
6.620000E+03	8.983312E-16	1.388079E-17
6.630000E+03	8.991418E-16	1.388979E-17
6.640000E+03	8.995082E-16	1.389412E-17
6.650000E+03	8.995056E-16	1.389401E-17
6.660000E+03	8.991909E-16	1.388966E-17
6.670000E+03	8.985993E-16	1.388149E-17
6.680000E+03	8.977341E-16	1.387009E-17
6.690000E+03	8.965975E-16	1.385670E-17
6.700000E+03	8.951728E-16	1.384277E-17
6.710000E+03	8.934084E-16	1.382952E-17
6.720000E+03	8.912423E-16	1.381809E-17
6.730000E+03	8.886373E-16	1.380980E-17
6.740000E+03	8.855362E-16	1.380521E-17
6.750000E+03	8.818770E-16	1.380406E-17
6.760000E+03	8.776177E-16	1.380545E-17
6.770000E+03	8.727397E-16	1.380789E-17
6.780000E+03	8.672203E-16	1.380894E-17
6.790000E+03	8.610835E-16	1.380631E-17
6.800000E+03	8.543308E-16	1.379706E-17
6.810000E+03	8.470097E-16	1.377890E-17
6.820000E+03	8.391822E-16	1.374989E-17
6.830000E+03	8.308935E-16	1.370786E-17
6.840000E+03	8.222278E-16	1.365132E-17
6.850000E+03	8.132754E-16	1.357891E-17
6.860000E+03	8.041106E-16	1.348908E-17
6.870000E+03	7.948172E-16	1.338090E-17
6.880000E+03	7.854754E-16	1.325417E-17
6.890000E+03	7.761686E-16	1.310982E-17
6.900000E+03	7.669530E-16	1.294951E-17
6.910000E+03	7.578849E-16	1.277592E-17
6.920000E+03	7.490185E-16	1.259243E-17
6.930000E+03	7.403798E-16	1.240230E-17
6.940000E+03	7.320025E-16	1.220885E-17
6.950000E+03	7.238936E-16	1.201465E-17
6.960000E+03	7.160612E-16	1.182184E-17
6.970000E+03	7.085153E-16	1.163212E-17
6.980000E+03	7.012518E-16	1.144656E-17
6.990000E+03	6.942460E-16	1.126564E-17
7.000000E+03	6.875115E-16	1.109033E-17
7.010000E+03	6.810095E-16	1.092069E-17
7.020000E+03	6.747399E-16	1.075749E-17
7.030000E+03	6.686841E-16	1.060131E-17
7.040000E+03	6.628049E-16	1.045262E-17
7.050000E+03	6.570957E-16	1.031249E-17
7.060000E+03	6.515241E-16	1.018169E-17
7.070000E+03	6.460728E-16	1.006116E-17
7.080000E+03	6.407085E-16	9.951330E-18
7.090000E+03	6.354076E-16	9.852311E-18
7.100000E+03	6.301481E-16	9.763605E-18
7.110000E+03	6.249118E-16	9.684043E-18
7.120000E+03	6.196838E-16	9.611802E-18
7.130000E+03	6.144616E-16	9.544630E-18
7.140000E+03	6.092243E-16	9.479564E-18
7.150000E+03	6.039866E-16	9.414012E-18
7.160000E+03	5.987378E-16	9.345128E-18
7.170000E+03	5.934949E-16	9.270985E-18
7.180000E+03	5.882790E-16	9.190511E-18
7.190000E+03	5.830933E-16	9.103315E-18
7.200000E+03	5.779671E-16	9.010341E-18
7.210000E+03	5.729255E-16	8.913200E-18
7.220000E+03	5.679966E-16	8.813934E-18
7.230000E+03	5.632039E-16	8.714494E-18
7.240000E+03	5.585934E-16	8.616813E-18
7.250000E+03	5.541832E-16	8.521786E-18
7.260000E+03	5.500111E-16	8.429992E-18
7.270000E+03	5.460978E-16	8.341269E-18
7.280000E+03	5.424799E-16	8.255474E-18
7.290000E+03	5.391601E-16	8.172008E-18
7.300000E+03	5.361540E-16	8.090748E-18
7.310000E+03	5.334624E-16	8.011684E-18
7.320000E+03	5.310714E-16	7.934849E-18
7.330000E+03	5.289796E-16	7.860612E-18
7.340000E+03	5.271458E-16	7.788844E-18
7.350000E+03	5.255640E-16	7.720164E-18
7.360000E+03	5.241971E-16	7.655104E-18
7.370000E+03	5.230055E-16	7.594608E-18
7.380000E+03	5.219609E-16	7.540102E-18
7.390000E+03	5.210197E-16	7.492841E-18
7.400000E+03	5.201504E-16	7.453971E-18
7.410000E+03	5.193130E-16	7.424014E-18
7.420000E+03	5.184536E-16	7.402705E-18
7.430000E+03	5.175449E-16	7.389704E-18
7.440000E+03	5.165338E-16	7.384144E-18
7.450000E+03	5.153897E-16	7.385665E-18
7.460000E+03	5.140785E-16	7.394271E-18
7.470000E+03	5.125770E-16	7.410544E-18
7.480000E+03	5.108527E-16	7.435147E-18
7.490000E+03	5.088838E-16	7.468739E-18
7.500000E+03	5.066595E-16	7.511575E-18
7.510000E+03	5.041596E-16	7.562858E-18
7.520000E+03	5.013743E-16	7.620817E-18
7.530000E+03	4.983045E-16	7.682699E-18
7.540000E+03	4.949416E-16	7.744597E-18
7.550000E+03	4.912933E-16	7.802047E-18
7.560000E+03	4.873509E-16	7.849778E-18
7.570000E+03	4.831333E-16	7.882756E-18
7.580000E+03	4.786411E-16	7.895944E-18
7.590000E+03	4.738826E-16	7.885328E-18
7.600000E+03	4.688664E-16	7.848460E-18
7.610000E+03	4.636027E-16	7.784937E-18
7.620000E+03	4.581033E-16	7.696603E-18
7.630000E+03	4.523768E-16	7.587269E-18
7.640000E+03	4.464539E-16	7.462584E-18
7.650000E+03	4.403524E-16	7.328599E-18
7.660000E+03	4.340970E-16	7.191166E-18
7.670000E+03	4.277311E-16	7.055382E-18
7.680000E+03	4.212988E-16	6.924870E-18
7.690000E+03	4.148495E-16	6.801808E-18
7.700000E+03	4.084361E-16	6.687147E-18
7.710000E+03	4.021075E-16	6.580934E-18
7.720000E+03	3.959223E-16	6.483044E-18
7.730000E+03	3.899308E-16	6.393312E-18
7.740000E+03	3.841788E-16	6.311879E-18
7.750000E+03	3.787065E-16	6.239260E-18
7.760000E+03	3.735429E-16	6.176151E-18
