#wls	flux	fluxerr
1.600000E+03	9.198128E-17	8.163637E-17
1.640000E+03	9.341934E-17	8.184187E-17
1.680000E+03	9.489454E-17	8.202050E-17
1.720000E+03	9.642423E-17	8.218436E-17
1.760000E+03	9.802654E-17	8.234533E-17
1.800000E+03	9.966507E-17	8.246915E-17
1.840000E+03	1.013947E-16	8.259776E-17
1.880000E+03	1.031784E-16	8.269645E-17
1.920000E+03	1.050153E-16	8.276087E-17
1.960000E+03	1.069429E-16	8.281663E-17
2.000000E+03	1.089614E-16	8.285850E-17
2.040000E+03	1.110304E-16	8.285114E-17
2.080000E+03	1.132084E-16	8.283366E-17
2.120000E+03	1.154746E-16	8.278491E-17
2.160000E+03	1.178273E-16	8.269843E-17
2.200000E+03	1.202853E-16	8.258186E-17
2.240000E+03	1.228469E-16	8.242772E-17
2.280000E+03	1.255095E-16	8.222823E-17
2.320000E+03	1.282915E-16	8.198918E-17
2.360000E+03	1.312117E-16	8.171527E-17
2.400000E+03	1.342447E-16	8.138335E-17
2.440000E+03	1.374302E-16	8.101029E-17
2.480000E+03	1.407415E-16	8.057228E-17
2.520000E+03	1.442178E-16	8.008410E-17
2.560000E+03	1.478535E-16	7.953368E-17
2.600000E+03	1.516875E-16	7.893279E-17
2.640000E+03	1.556900E-16	7.825596E-17
2.680000E+03	1.598989E-16	7.751292E-17
2.720000E+03	1.643291E-16	7.670011E-17
2.760000E+03	1.689947E-16	7.581297E-17
2.800000E+03	1.739328E-16	7.485615E-17
2.840000E+03	1.791337E-16	7.381275E-17
2.880000E+03	1.846575E-16	7.269478E-17
2.920000E+03	1.905178E-16	7.149313E-17
2.960000E+03	1.967757E-16	7.021568E-17
3.000000E+03	2.034466E-16	6.885160E-17
3.010000E+03	2.051780E-16	6.849496E-17
3.020000E+03	2.069465E-16	6.813545E-17
3.030000E+03	2.087519E-16	6.777267E-17
3.040000E+03	2.105943E-16	6.740627E-17
3.050000E+03	2.124501E-16	6.702849E-17
3.060000E+03	2.143428E-16	6.664663E-17
3.070000E+03	2.162957E-16	6.626749E-17
3.080000E+03	2.182621E-16	6.587639E-17
3.090000E+03	2.202888E-16	6.548722E-17
3.100000E+03	2.223291E-16	6.508577E-17
3.110000E+03	2.244297E-16	6.468556E-17
3.120000E+03	2.265442E-16	6.427283E-17
3.130000E+03	2.287193E-16	6.386073E-17
3.140000E+03	2.309551E-16	6.344877E-17
3.150000E+03	2.332285E-16	6.303022E-17
3.160000E+03	2.355397E-16	6.260497E-17
3.170000E+03	2.378892E-16	6.217295E-17
3.180000E+03	2.403003E-16	6.174009E-17
3.190000E+03	2.427734E-16	6.130604E-17
3.200000E+03	2.453088E-16	6.087053E-17
3.210000E+03	2.478839E-16	6.042766E-17
3.220000E+03	2.505222E-16	5.998308E-17
3.230000E+03	2.532242E-16	5.953661E-17
3.240000E+03	2.559676E-16	5.908282E-17
3.250000E+03	2.587991E-16	5.863236E-17
3.260000E+03	2.616962E-16	5.817979E-17
3.270000E+03	2.646597E-16	5.772514E-17
3.280000E+03	2.676905E-16	5.726849E-17
3.290000E+03	2.708124E-16	5.681478E-17
3.300000E+03	2.740035E-16	5.635921E-17
3.310000E+03	2.772647E-16	5.590203E-17
3.320000E+03	2.806200E-16	5.544808E-17
3.330000E+03	2.840706E-16	5.499748E-17
3.340000E+03	2.875949E-16	5.454607E-17
3.350000E+03	2.912170E-16	5.409863E-17
3.360000E+03	2.949384E-16	5.365550E-17
3.370000E+03	2.987831E-16	5.322115E-17
3.380000E+03	3.027071E-16	5.278789E-17
3.390000E+03	3.067348E-16	5.236045E-17
3.400000E+03	3.108905E-16	5.194332E-17
3.410000E+03	3.151532E-16	5.153330E-17
3.420000E+03	3.195471E-16	5.113491E-17
3.430000E+03	3.240513E-16	5.074529E-17
3.440000E+03	3.286901E-16	5.036898E-17
3.450000E+03	3.334653E-16	5.000688E-17
3.460000E+03	3.383785E-16	4.966001E-17
3.470000E+03	3.434083E-16	4.932618E-17
3.480000E+03	3.486018E-16	4.901316E-17
3.490000E+03	3.539375E-16	4.871887E-17
3.500000E+03	3.594394E-16	4.844767E-17
3.510000E+03	3.650854E-16	4.819773E-17
3.520000E+03	3.708992E-16	4.797340E-17
3.530000E+03	3.768810E-16	4.777591E-17
3.540000E+03	3.830079E-16	4.760370E-17
3.550000E+03	3.893252E-16	4.746372E-17
3.560000E+03	3.957862E-16	4.735158E-17
3.570000E+03	4.024350E-16	4.727392E-17
3.580000E+03	4.092468E-16	4.722904E-17
3.590000E+03	4.162414E-16	4.722050E-17
3.600000E+03	4.234155E-16	4.724898E-17
3.610000E+03	4.307416E-16	4.731250E-17
3.620000E+03	4.382374E-16	4.741402E-17
3.630000E+03	4.459197E-16	4.755614E-17
3.640000E+03	4.537353E-16	4.773384E-17
3.650000E+03	4.617222E-16	4.795170E-17
3.660000E+03	4.698710E-16	4.820905E-17
3.670000E+03	4.781485E-16	4.850265E-17
3.680000E+03	4.865434E-16	4.883143E-17
3.690000E+03	4.950895E-16	4.919861E-17
3.700000E+03	5.037503E-16	4.960019E-17
3.710000E+03	5.125115E-16	5.003427E-17
3.720000E+03	5.213579E-16	5.049873E-17
3.730000E+03	5.302962E-16	5.099346E-17
3.740000E+03	5.392866E-16	5.151370E-17
3.750000E+03	5.483343E-16	5.205900E-17
3.760000E+03	5.574211E-16	5.262653E-17
3.770000E+03	5.665282E-16	5.321337E-17
3.780000E+03	5.756133E-16	5.381440E-17
3.790000E+03	5.847257E-16	5.443303E-17
3.800000E+03	5.937771E-16	5.505981E-17
3.810000E+03	6.027934E-16	5.569596E-17
3.820000E+03	6.117323E-16	5.633641E-17
3.830000E+03	6.205969E-16	5.698032E-17
3.840000E+03	6.293681E-16	5.762484E-17
3.850000E+03	6.380049E-16	5.826517E-17
3.860000E+03	6.465339E-16	5.890279E-17
3.870000E+03	6.548931E-16	5.953112E-17
3.880000E+03	6.631103E-16	6.015184E-17
3.890000E+03	6.711253E-16	6.075872E-17
3.900000E+03	6.789673E-16	6.135366E-17
3.910000E+03	6.866001E-16	6.193273E-17
3.920000E+03	6.940106E-16	6.249415E-17
3.930000E+03	7.012082E-16	6.303818E-17
3.940000E+03	7.081598E-16	6.356135E-17
3.950000E+03	7.148555E-16	6.406227E-17
3.960000E+03	7.212860E-16	6.453968E-17
3.970000E+03	7.274637E-16	6.499424E-17
3.980000E+03	7.333603E-16	6.542306E-17
3.990000E+03	7.389699E-16	6.582519E-17
4.000000E+03	7.442871E-16	6.619981E-17
4.010000E+03	7.493081E-16	6.654622E-17
4.020000E+03	7.540301E-16	6.686382E-17
4.030000E+03	7.584516E-16	6.715215E-17
4.040000E+03	7.625723E-16	6.741083E-17
4.050000E+03	7.663746E-16	6.763800E-17
4.060000E+03	7.698618E-16	6.783363E-17
4.070000E+03	7.730569E-16	6.799942E-17
4.080000E+03	7.759291E-16	6.813237E-17
4.090000E+03	7.785042E-16	6.823445E-17
4.100000E+03	7.807909E-16	6.830613E-17
4.110000E+03	7.827814E-16	6.834643E-17
4.120000E+03	7.844868E-16	6.835605E-17
4.130000E+03	7.859020E-16	6.833426E-17
4.140000E+03	7.870562E-16	6.828334E-17
4.150000E+03	7.879451E-16	6.820263E-17
4.160000E+03	7.885649E-16	6.809152E-17
4.170000E+03	7.889441E-16	6.795219E-17
4.180000E+03	7.890622E-16	6.778259E-17
4.190000E+03	7.889458E-16	6.758472E-17
4.200000E+03	7.885740E-16	6.735645E-17
4.210000E+03	7.879705E-16	6.709951E-17
4.220000E+03	7.871278E-16	6.681293E-17
4.230000E+03	7.860374E-16	6.649565E-17
4.240000E+03	7.847046E-16	6.614778E-17
4.250000E+03	7.831194E-16	6.576813E-17
4.260000E+03	7.812853E-16	6.535665E-17
4.270000E+03	7.791915E-16	6.491208E-17
4.280000E+03	7.768406E-16	6.443432E-17
4.290000E+03	7.742094E-16	6.392112E-17
4.300000E+03	7.713148E-16	6.337358E-17
4.310000E+03	7.681358E-16	6.278969E-17
4.320000E+03	7.646789E-16	6.216976E-17
4.330000E+03	7.609521E-16	6.151420E-17
4.340000E+03	7.569296E-16	6.082075E-17
4.350000E+03	7.526485E-16	6.009225E-17
4.360000E+03	7.480894E-16	5.932706E-17
4.370000E+03	7.432829E-16	5.852753E-17
4.380000E+03	7.382397E-16	5.769443E-17
4.390000E+03	7.329737E-16	5.682884E-17
4.400000E+03	7.275027E-16	5.593212E-17
4.410000E+03	7.218681E-16	5.500748E-17
4.420000E+03	7.160725E-16	5.405509E-17
4.430000E+03	7.101725E-16	5.307924E-17
4.440000E+03	7.041856E-16	5.208118E-17
4.450000E+03	6.981510E-16	5.106376E-17
4.460000E+03	6.920992E-16	5.002909E-17
4.470000E+03	6.860798E-16	4.898062E-17
4.480000E+03	6.801140E-16	4.791959E-17
4.490000E+03	6.742410E-16	4.684849E-17
4.500000E+03	6.684895E-16	4.576893E-17
4.510000E+03	6.629036E-16	4.468349E-17
4.520000E+03	6.575073E-16	4.359319E-17
4.530000E+03	6.523218E-16	4.249880E-17
4.540000E+03	6.473812E-16	4.140182E-17
4.550000E+03	6.426991E-16	4.030231E-17
4.560000E+03	6.383010E-16	3.920096E-17
4.570000E+03	6.341837E-16	3.809665E-17
4.580000E+03	6.303633E-16	3.698940E-17
4.590000E+03	6.268355E-16	3.587800E-17
4.600000E+03	6.236064E-16	3.476190E-17
4.610000E+03	6.206697E-16	3.363989E-17
4.620000E+03	6.180072E-16	3.251026E-17
4.630000E+03	6.156117E-16	3.137207E-17
4.640000E+03	6.134644E-16	3.022404E-17
4.650000E+03	6.115362E-16	2.906469E-17
4.660000E+03	6.098101E-16	2.789354E-17
4.670000E+03	6.082666E-16	2.671040E-17
4.680000E+03	6.068707E-16	2.551494E-17
4.690000E+03	6.056015E-16	2.430803E-17
4.700000E+03	6.044446E-16	2.309145E-17
4.710000E+03	6.033662E-16	2.186693E-17
4.720000E+03	6.023549E-16	2.063788E-17
4.730000E+03	6.014014E-16	1.940855E-17
4.740000E+03	6.004860E-16	1.818377E-17
4.750000E+03	5.996125E-16	1.697010E-17
4.760000E+03	5.987751E-16	1.577476E-17
4.770000E+03	5.979717E-16	1.460624E-17
4.780000E+03	5.971910E-16	1.347403E-17
4.790000E+03	5.964458E-16	1.238968E-17
4.800000E+03	5.957266E-16	1.136612E-17
4.810000E+03	5.950410E-16	1.041971E-17
4.820000E+03	5.943873E-16	9.571614E-18
4.830000E+03	5.937667E-16	8.850854E-18
4.840000E+03	5.932022E-16	8.296547E-18
4.850000E+03	5.926912E-16	7.955170E-18
4.860000E+03	5.922503E-16	7.871458E-18
4.870000E+03	5.918946E-16	8.071982E-18
4.880000E+03	5.916306E-16	8.552716E-18
4.890000E+03	5.914689E-16	9.281020E-18
4.900000E+03	5.914236E-16	1.020915E-17
4.910000E+03	5.914944E-16	1.128794E-17
4.920000E+03	5.916854E-16	1.247491E-17
4.930000E+03	5.920119E-16	1.373663E-17
4.940000E+03	5.924629E-16	1.504715E-17
4.950000E+03	5.930519E-16	1.638757E-17
4.960000E+03	5.937791E-16	1.774357E-17
4.970000E+03	5.946441E-16	1.910446E-17
4.980000E+03	5.956526E-16	2.046243E-17
4.990000E+03	5.968036E-16	2.181150E-17
5.000000E+03	5.980960E-16	2.314719E-17
5.010000E+03	5.995348E-16	2.446641E-17
5.020000E+03	6.011186E-16	2.576675E-17
5.030000E+03	6.028527E-16	2.704678E-17
5.040000E+03	6.047298E-16	2.830509E-17
5.050000E+03	6.067556E-16	2.954124E-17
5.060000E+03	6.089302E-16	3.075495E-17
5.070000E+03	6.112605E-16	3.194653E-17
5.080000E+03	6.137418E-16	3.311596E-17
5.090000E+03	6.163828E-16	3.426408E-17
5.100000E+03	6.191933E-16	3.539201E-17
5.110000E+03	6.221715E-16	3.650035E-17
5.120000E+03	6.253230E-16	3.759019E-17
5.130000E+03	6.286607E-16	3.866319E-17
5.140000E+03	6.321921E-16	3.972074E-17
5.150000E+03	6.359253E-16	4.076437E-17
5.160000E+03	6.398627E-16	4.179524E-17
5.170000E+03	6.440260E-16	4.281582E-17
5.180000E+03	6.484243E-16	4.382780E-17
5.190000E+03	6.530528E-16	4.483195E-17
5.200000E+03	6.579391E-16	4.583121E-17
5.210000E+03	6.630697E-16	4.682570E-17
5.220000E+03	6.684697E-16	4.781820E-17
5.230000E+03	6.741288E-16	4.880899E-17
5.240000E+03	6.800478E-16	4.979903E-17
5.250000E+03	6.862386E-16	5.079012E-17
5.260000E+03	6.926832E-16	5.178172E-17
5.270000E+03	6.993879E-16	5.277511E-17
5.280000E+03	7.063279E-16	5.376911E-17
5.290000E+03	7.135034E-16	5.476438E-17
5.300000E+03	7.208902E-16	5.575962E-17
5.310000E+03	7.284675E-16	5.675373E-17
5.320000E+03	7.362189E-16	5.774586E-17
5.330000E+03	7.441105E-16	5.873369E-17
5.340000E+03	7.521203E-16	5.971578E-17
5.350000E+03	7.602241E-16	6.069044E-17
5.360000E+03	7.683730E-16	6.165392E-17
5.370000E+03	7.765469E-16	6.260473E-17
5.380000E+03	7.847096E-16	6.353999E-17
5.390000E+03	7.928320E-16	6.445736E-17
5.400000E+03	8.008693E-16	6.535316E-17
5.410000E+03	8.087930E-16	6.622497E-17
5.420000E+03	8.165673E-16	6.706979E-17
5.430000E+03	8.241666E-16	6.788534E-17
5.440000E+03	8.315668E-16	6.866949E-17
5.450000E+03	8.387299E-16	6.941892E-17
5.460000E+03	8.456367E-16	7.013184E-17
5.470000E+03	8.522712E-16	7.080669E-17
5.480000E+03	8.586032E-16	7.144075E-17
5.490000E+03	8.646224E-16	7.203292E-17
5.500000E+03	8.703131E-16	7.258164E-17
5.510000E+03	8.756533E-16	7.308484E-17
5.520000E+03	8.806503E-16	7.354285E-17
5.530000E+03	8.852786E-16	7.395329E-17
5.540000E+03	8.895323E-16	7.431543E-17
5.550000E+03	8.934076E-16	7.462869E-17
5.560000E+03	8.969026E-16	7.489265E-17
5.570000E+03	9.000164E-16	7.510703E-17
5.580000E+03	9.027319E-16	7.527014E-17
5.590000E+03	9.050596E-16	7.538262E-17
5.600000E+03	9.070018E-16	7.544448E-17
5.610000E+03	9.085437E-16	7.545424E-17
5.620000E+03	9.096980E-16	7.541278E-17
5.630000E+03	9.104690E-16	7.532025E-17
5.640000E+03	9.108524E-16	7.517610E-17
5.650000E+03	9.108538E-16	7.498059E-17
5.660000E+03	9.104699E-16	7.473328E-17
5.670000E+03	9.097165E-16	7.443527E-17
5.680000E+03	9.086009E-16	7.408697E-17
5.690000E+03	9.071133E-16	7.368741E-17
5.700000E+03	9.052808E-16	7.323860E-17
5.710000E+03	9.031049E-16	7.274046E-17
5.720000E+03	9.005968E-16	7.219373E-17
5.730000E+03	8.977695E-16	7.159922E-17
5.740000E+03	8.946282E-16	7.095719E-17
5.750000E+03	8.911975E-16	7.026939E-17
5.760000E+03	8.874948E-16	6.953698E-17
5.770000E+03	8.835390E-16	6.876122E-17
5.780000E+03	8.793418E-16	6.794282E-17
5.790000E+03	8.749256E-16	6.708326E-17
5.800000E+03	8.703227E-16	6.618478E-17
5.810000E+03	8.655495E-16	6.524834E-17
5.820000E+03	8.606407E-16	6.427626E-17
5.830000E+03	8.556149E-16	6.326957E-17
5.840000E+03	8.504999E-16	6.222995E-17
5.850000E+03	8.453319E-16	6.115962E-17
5.860000E+03	8.401221E-16	6.005890E-17
5.870000E+03	8.349141E-16	5.893039E-17
5.880000E+03	8.297258E-16	5.777474E-17
5.890000E+03	8.245819E-16	5.659302E-17
5.900000E+03	8.194968E-16	5.538551E-17
5.910000E+03	8.145073E-16	5.415393E-17
5.920000E+03	8.096230E-16	5.289808E-17
5.930000E+03	8.048506E-16	5.161756E-17
5.940000E+03	8.002098E-16	5.031275E-17
5.950000E+03	7.957089E-16	4.898327E-17
5.960000E+03	7.913451E-16	4.762807E-17
5.970000E+03	7.871280E-16	4.624687E-17
5.980000E+03	7.830561E-16	4.483880E-17
5.990000E+03	7.791174E-16	4.340246E-17
6.000000E+03	7.753127E-16	4.193736E-17
6.010000E+03	7.716252E-16	4.044222E-17
6.020000E+03	7.680514E-16	3.891672E-17
6.030000E+03	7.645790E-16	3.736041E-17
6.040000E+03	7.611872E-16	3.577281E-17
6.050000E+03	7.578625E-16	3.415432E-17
6.060000E+03	7.546063E-16	3.250659E-17
6.070000E+03	7.513834E-16	3.083037E-17
6.080000E+03	7.482041E-16	2.912930E-17
6.090000E+03	7.450430E-16	2.740662E-17
6.100000E+03	7.418914E-16	2.566771E-17
6.110000E+03	7.387498E-16	2.392007E-17
6.120000E+03	7.356062E-16	2.217310E-17
6.130000E+03	7.324510E-16	2.043946E-17
6.140000E+03	7.292919E-16	1.873643E-17
6.150000E+03	7.261173E-16	1.708629E-17
6.160000E+03	7.229326E-16	1.551903E-17
6.170000E+03	7.197388E-16	1.407362E-17
6.180000E+03	7.165466E-16	1.279939E-17
6.190000E+03	7.133615E-16	1.175398E-17
6.200000E+03	7.102048E-16	1.099586E-17
6.210000E+03	7.071056E-16	1.056811E-17
6.220000E+03	7.040787E-16	1.047880E-17
6.230000E+03	7.011383E-16	1.069209E-17
6.240000E+03	6.983050E-16	1.113833E-17
6.250000E+03	6.955922E-16	1.173540E-17
6.260000E+03	6.930136E-16	1.240718E-17
6.270000E+03	6.905907E-16	1.309232E-17
6.280000E+03	6.883320E-16	1.374499E-17
6.290000E+03	6.862608E-16	1.433322E-17
6.300000E+03	6.843870E-16	1.483546E-17
6.310000E+03	6.827274E-16	1.523852E-17
6.320000E+03	6.813053E-16	1.553581E-17
6.330000E+03	6.801219E-16	1.572551E-17
6.340000E+03	6.792045E-16	1.581107E-17
6.350000E+03	6.785569E-16	1.579976E-17
6.360000E+03	6.781940E-16	1.570365E-17
6.370000E+03	6.781062E-16	1.553910E-17
6.380000E+03	6.783078E-16	1.532838E-17
6.390000E+03	6.787810E-16	1.509883E-17
6.400000E+03	6.795316E-16	1.488421E-17
6.410000E+03	6.805476E-16	1.472282E-17
6.420000E+03	6.817989E-16	1.465514E-17
6.430000E+03	6.832810E-16	1.472046E-17
6.440000E+03	6.849589E-16	1.495008E-17
6.450000E+03	6.868249E-16	1.536348E-17
6.460000E+03	6.888491E-16	1.596477E-17
6.470000E+03	6.910080E-16	1.674457E-17
6.480000E+03	6.932766E-16	1.768373E-17
6.490000E+03	6.956213E-16	1.875784E-17
6.500000E+03	6.980213E-16	1.994154E-17
6.510000E+03	7.004393E-16	2.121029E-17
6.520000E+03	7.028516E-16	2.254233E-17
6.530000E+03	7.052181E-16	2.391820E-17
6.540000E+03	7.075208E-16	2.532187E-17
6.550000E+03	7.097265E-16	2.673924E-17
6.560000E+03	7.118023E-16	2.815823E-17
6.570000E+03	7.137234E-16	2.956873E-17
6.580000E+03	7.154509E-16	3.096146E-17
6.590000E+03	7.169706E-16	3.232924E-17
6.600000E+03	7.182465E-16	3.366491E-17
6.610000E+03	7.192526E-16	3.496243E-17
6.620000E+03	7.199807E-16	3.621729E-17
6.630000E+03	7.204013E-16	3.742446E-17
6.640000E+03	7.204952E-16	3.857987E-17
6.650000E+03	7.202536E-16	3.968039E-17
6.660000E+03	7.196625E-16	4.072298E-17
6.670000E+03	7.187103E-16	4.170506E-17
6.680000E+03	7.173880E-16	4.262450E-17
6.690000E+03	7.156894E-16	4.347957E-17
6.700000E+03	7.136269E-16	4.426995E-17
6.710000E+03	7.111837E-16	4.499378E-17
6.720000E+03	7.083696E-16	4.565106E-17
6.730000E+03	7.051891E-16	4.624168E-17
6.740000E+03	7.016576E-16	4.676643E-17
6.750000E+03	6.977769E-16	4.722543E-17
6.760000E+03	6.935754E-16	4.762071E-17
6.770000E+03	6.890522E-16	4.795253E-17
6.780000E+03	6.842247E-16	4.822248E-17
6.790000E+03	6.791357E-16	4.843414E-17
6.800000E+03	6.737831E-16	4.858802E-17
6.810000E+03	6.682052E-16	4.868762E-17
6.820000E+03	6.624186E-16	4.873500E-17
6.830000E+03	6.564559E-16	4.873346E-17
6.840000E+03	6.503429E-16	4.868589E-17
6.850000E+03	6.440980E-16	4.859470E-17
6.860000E+03	6.377622E-16	4.846404E-17
6.870000E+03	6.313461E-16	4.829579E-17
6.880000E+03	6.248894E-16	4.809412E-17
6.890000E+03	6.184085E-16	4.786139E-17
6.900000E+03	6.119261E-16	4.760046E-17
6.910000E+03	6.054635E-16	4.731409E-17
6.920000E+03	5.990475E-16	4.700544E-17
6.930000E+03	5.926890E-16	4.667642E-17
6.940000E+03	5.864043E-16	4.632931E-17
6.950000E+03	5.802150E-16	4.596676E-17
6.960000E+03	5.741268E-16	4.559015E-17
6.970000E+03	5.681577E-16	4.520173E-17
6.980000E+03	5.623102E-16	4.480249E-17
6.990000E+03	5.565987E-16	4.439432E-17
7.000000E+03	5.510229E-16	4.397780E-17
7.010000E+03	5.455942E-16	4.355444E-17
7.020000E+03	5.403095E-16	4.312450E-17
7.030000E+03	5.351779E-16	4.268912E-17
7.040000E+03	5.301940E-16	4.224823E-17
7.050000E+03	5.253582E-16	4.180217E-17
7.060000E+03	5.206767E-16	4.135162E-17
7.070000E+03	5.161416E-16	4.089611E-17
7.080000E+03	5.117512E-16	4.043559E-17
7.090000E+03	5.075032E-16	3.996990E-17
7.100000E+03	5.034010E-16	3.949925E-17
7.110000E+03	4.994290E-16	3.902232E-17
7.120000E+03	4.955900E-16	3.853917E-17
7.130000E+03	4.918805E-16	3.804932E-17
7.140000E+03	4.882966E-16	3.755222E-17
7.150000E+03	4.848347E-16	3.704725E-17
7.160000E+03	4.814849E-16	3.653332E-17
7.170000E+03	4.782435E-16	3.600976E-17
7.180000E+03	4.751130E-16	3.547631E-17
7.190000E+03	4.720898E-16	3.493222E-17
7.200000E+03	4.691587E-16	3.437585E-17
7.210000E+03	4.663284E-16	3.380729E-17
7.220000E+03	4.635840E-16	3.322486E-17
7.230000E+03	4.609286E-16	3.262819E-17
7.240000E+03	4.583595E-16	3.201643E-17
7.250000E+03	4.558741E-16	3.138871E-17
7.260000E+03	4.534639E-16	3.074375E-17
7.270000E+03	4.511323E-16	3.008108E-17
7.280000E+03	4.488711E-16	2.939940E-17
7.290000E+03	4.466779E-16	2.869781E-17
7.300000E+03	4.445558E-16	2.797578E-17
7.310000E+03	4.424964E-16	2.723203E-17
7.320000E+03	4.405029E-16	2.646605E-17
7.330000E+03	4.385666E-16	2.567662E-17
7.340000E+03	4.366901E-16	2.486327E-17
7.350000E+03	4.348646E-16	2.402495E-17
7.360000E+03	4.330979E-16	2.316163E-17
7.370000E+03	4.313863E-16	2.227278E-17
7.380000E+03	4.297260E-16	2.135804E-17
7.390000E+03	4.281184E-16	2.041758E-17
7.400000E+03	4.265593E-16	1.945156E-17
7.410000E+03	4.250552E-16	1.846107E-17
7.420000E+03	4.236015E-16	1.744721E-17
7.430000E+03	4.221933E-16	1.641180E-17
7.440000E+03	4.208201E-16	1.535745E-17
7.450000E+03	4.194822E-16	1.428858E-17
7.460000E+03	4.181580E-16	1.321070E-17
7.470000E+03	4.168423E-16	1.213259E-17
7.480000E+03	4.155190E-16	1.106644E-17
7.490000E+03	4.141885E-16	1.003020E-17
7.500000E+03	4.128349E-16	9.048879E-18
7.510000E+03	4.114587E-16	8.157932E-18
7.520000E+03	4.100448E-16	7.404549E-18
7.530000E+03	4.085998E-16	6.846705E-18
7.540000E+03	4.071043E-16	6.541660E-18
7.550000E+03	4.055721E-16	6.525941E-18
7.560000E+03	4.039857E-16	6.795007E-18
7.570000E+03	4.023556E-16	7.305585E-18
7.580000E+03	4.006827E-16	7.995826E-18
7.590000E+03	3.989632E-16	8.806023E-18
7.600000E+03	3.971995E-16	9.688365E-18
7.610000E+03	3.953946E-16	1.060778E-17
7.620000E+03	3.935626E-16	1.153985E-17
7.630000E+03	3.916970E-16	1.246714E-17
7.640000E+03	3.898024E-16	1.337780E-17
7.650000E+03	3.878891E-16	1.426390E-17
7.660000E+03	3.859679E-16	1.512018E-17
7.670000E+03	3.840341E-16	1.594270E-17
7.680000E+03	3.820993E-16	1.672945E-17
7.690000E+03	3.801699E-16	1.747928E-17
7.700000E+03	3.782527E-16	1.819180E-17
7.710000E+03	3.763596E-16	1.886746E-17
7.720000E+03	3.744922E-16	1.950666E-17
7.730000E+03	3.726572E-16	2.011036E-17
7.740000E+03	3.708661E-16	2.068005E-17
7.750000E+03	3.691201E-16	2.121686E-17
7.760000E+03	3.674298E-16	2.172258E-17
