#wls	flux	fluxerr
1.600000E+03	6.306946E-17	5.636603E-17
1.640000E+03	6.378869E-17	5.629769E-17
1.680000E+03	6.452934E-17	5.621512E-17
1.720000E+03	6.529063E-17	5.611623E-17
1.760000E+03	6.607167E-17	5.599886E-17
1.800000E+03	6.688345E-17	5.587080E-17
1.840000E+03	6.771303E-17	5.571959E-17
1.880000E+03	6.858348E-17	5.556259E-17
1.920000E+03	6.946940E-17	5.537730E-17
1.960000E+03	7.038157E-17	5.517090E-17
2.000000E+03	7.133095E-17	5.495015E-17
2.040000E+03	7.231613E-17	5.471182E-17
2.080000E+03	7.332297E-17	5.444331E-17
2.120000E+03	7.437476E-17	5.416005E-17
2.160000E+03	7.545703E-17	5.384922E-17
2.200000E+03	7.659313E-17	5.352526E-17
2.240000E+03	7.775544E-17	5.316637E-17
2.280000E+03	7.896714E-17	5.278639E-17
2.320000E+03	8.023867E-17	5.238945E-17
2.360000E+03	8.155458E-17	5.196254E-17
2.400000E+03	8.292501E-17	5.150955E-17
2.440000E+03	8.434704E-17	5.102588E-17
2.480000E+03	8.584363E-17	5.052239E-17
2.520000E+03	8.739871E-17	4.998618E-17
2.560000E+03	8.904811E-17	4.943431E-17
2.600000E+03	9.076268E-17	4.884655E-17
2.640000E+03	9.257824E-17	4.823865E-17
2.680000E+03	9.449173E-17	4.760445E-17
2.720000E+03	9.651325E-17	4.694460E-17
2.760000E+03	9.866606E-17	4.626549E-17
2.800000E+03	1.009480E-16	4.556066E-17
2.840000E+03	1.033831E-16	4.483563E-17
2.880000E+03	1.059836E-16	4.408962E-17
2.920000E+03	1.087877E-16	4.333216E-17
2.960000E+03	1.117969E-16	4.255668E-17
3.000000E+03	1.150523E-16	4.177186E-17
3.010000E+03	1.159082E-16	4.157464E-17
3.020000E+03	1.167863E-16	4.137861E-17
3.030000E+03	1.176864E-16	4.118363E-17
3.040000E+03	1.185963E-16	4.098522E-17
3.050000E+03	1.195286E-16	4.078771E-17
3.060000E+03	1.204834E-16	4.059097E-17
3.070000E+03	1.214484E-16	4.039074E-17
3.080000E+03	1.224487E-16	4.019528E-17
3.090000E+03	1.234596E-16	3.999626E-17
3.100000E+03	1.245060E-16	3.980172E-17
3.110000E+03	1.255634E-16	3.960358E-17
3.120000E+03	1.266568E-16	3.940968E-17
3.130000E+03	1.277739E-16	3.921600E-17
3.140000E+03	1.289028E-16	3.901876E-17
3.150000E+03	1.300806E-16	3.882917E-17
3.160000E+03	1.312706E-16	3.863600E-17
3.170000E+03	1.324977E-16	3.844656E-17
3.180000E+03	1.337500E-16	3.825719E-17
3.190000E+03	1.350276E-16	3.806793E-17
3.200000E+03	1.363433E-16	3.788223E-17
3.210000E+03	1.376973E-16	3.770000E-17
3.220000E+03	1.390778E-16	3.751784E-17
3.230000E+03	1.404972E-16	3.733911E-17
3.240000E+03	1.419439E-16	3.716056E-17
3.250000E+03	1.434424E-16	3.698861E-17
3.260000E+03	1.449690E-16	3.681691E-17
3.270000E+03	1.465360E-16	3.664867E-17
3.280000E+03	1.481441E-16	3.648391E-17
3.290000E+03	1.497935E-16	3.632269E-17
3.300000E+03	1.514847E-16	3.616508E-17
3.310000E+03	1.532303E-16	3.601402E-17
3.320000E+03	1.550064E-16	3.586387E-17
3.330000E+03	1.568378E-16	3.572042E-17
3.340000E+03	1.587128E-16	3.558098E-17
3.350000E+03	1.606438E-16	3.544840E-17
3.360000E+03	1.626193E-16	3.532011E-17
3.370000E+03	1.646518E-16	3.519891E-17
3.380000E+03	1.667416E-16	3.508493E-17
3.390000E+03	1.688770E-16	3.497579E-17
3.400000E+03	1.710827E-16	3.487672E-17
3.410000E+03	1.733347E-16	3.478290E-17
3.420000E+03	1.756455E-16	3.469706E-17
3.430000E+03	1.780153E-16	3.461942E-17
3.440000E+03	1.804565E-16	3.455254E-17
3.450000E+03	1.829572E-16	3.449429E-17
3.460000E+03	1.855175E-16	3.444495E-17
3.470000E+03	1.881494E-16	3.440703E-17
3.480000E+03	1.908411E-16	3.437855E-17
3.490000E+03	1.936043E-16	3.436197E-17
3.500000E+03	1.964391E-16	3.435754E-17
3.510000E+03	1.993450E-16	3.436549E-17
3.520000E+03	2.023218E-16	3.438606E-17
3.530000E+03	2.053568E-16	3.441746E-17
3.540000E+03	2.084736E-16	3.446404E-17
3.550000E+03	2.116716E-16	3.452594E-17
3.560000E+03	2.149254E-16	3.459941E-17
3.570000E+03	2.182584E-16	3.468859E-17
3.580000E+03	2.216693E-16	3.479361E-17
3.590000E+03	2.251568E-16	3.491456E-17
3.600000E+03	2.287070E-16	3.504966E-17
3.610000E+03	2.323305E-16	3.520086E-17
3.620000E+03	2.360373E-16	3.537001E-17
3.630000E+03	2.398131E-16	3.555520E-17
3.640000E+03	2.436554E-16	3.575637E-17
3.650000E+03	2.475617E-16	3.597339E-17
3.660000E+03	2.515411E-16	3.620787E-17
3.670000E+03	2.555784E-16	3.645777E-17
3.680000E+03	2.596946E-16	3.672629E-17
3.690000E+03	2.638615E-16	3.700955E-17
3.700000E+03	2.680999E-16	3.731056E-17
3.710000E+03	2.723809E-16	3.762540E-17
3.720000E+03	2.767247E-16	3.795688E-17
3.730000E+03	2.811143E-16	3.830266E-17
3.740000E+03	2.855570E-16	3.866370E-17
3.750000E+03	2.900354E-16	3.903755E-17
3.760000E+03	2.945685E-16	3.942667E-17
3.770000E+03	2.991261E-16	3.982684E-17
3.780000E+03	3.037145E-16	4.023873E-17
3.790000E+03	3.083276E-16	4.066131E-17
3.800000E+03	3.129713E-16	4.109509E-17
3.810000E+03	3.176145E-16	4.153572E-17
3.820000E+03	3.222871E-16	4.198679E-17
3.830000E+03	3.269578E-16	4.244388E-17
3.840000E+03	3.316197E-16	4.290572E-17
3.850000E+03	3.362897E-16	4.337413E-17
3.860000E+03	3.409363E-16	4.384464E-17
3.870000E+03	3.455764E-16	4.431898E-17
3.880000E+03	3.501785E-16	4.479267E-17
3.890000E+03	3.547589E-16	4.526737E-17
3.900000E+03	3.592985E-16	4.574015E-17
3.910000E+03	3.638014E-16	4.621107E-17
3.920000E+03	3.682485E-16	4.667723E-17
3.930000E+03	3.726325E-16	4.713723E-17
3.940000E+03	3.769694E-16	4.759260E-17
3.950000E+03	3.812174E-16	4.803756E-17
3.960000E+03	3.854041E-16	4.847513E-17
3.970000E+03	3.894997E-16	4.890106E-17
3.980000E+03	3.935205E-16	4.931692E-17
3.990000E+03	3.974375E-16	4.971857E-17
4.000000E+03	4.012559E-16	5.010622E-17
4.010000E+03	4.049699E-16	5.047867E-17
4.020000E+03	4.085631E-16	5.083341E-17
4.030000E+03	4.120525E-16	5.117209E-17
4.040000E+03	4.154115E-16	5.149096E-17
4.050000E+03	4.186467E-16	5.179039E-17
4.060000E+03	4.217541E-16	5.206946E-17
4.070000E+03	4.247304E-16	5.232731E-17
4.080000E+03	4.275620E-16	5.256186E-17
4.090000E+03	4.302569E-16	5.277368E-17
4.100000E+03	4.327928E-16	5.295959E-17
4.110000E+03	4.351987E-16	5.312277E-17
4.120000E+03	4.374433E-16	5.325898E-17
4.130000E+03	4.395365E-16	5.336904E-17
4.140000E+03	4.414686E-16	5.345140E-17
4.150000E+03	4.432503E-16	5.350695E-17
4.160000E+03	4.448826E-16	5.353545E-17
4.170000E+03	4.463485E-16	5.353448E-17
4.180000E+03	4.476507E-16	5.350401E-17
4.190000E+03	4.488017E-16	5.344518E-17
4.200000E+03	4.497868E-16	5.335588E-17
4.210000E+03	4.506194E-16	5.323737E-17
4.220000E+03	4.512955E-16	5.308884E-17
4.230000E+03	4.518117E-16	5.290957E-17
4.240000E+03	4.521743E-16	5.269998E-17
4.250000E+03	4.523899E-16	5.246054E-17
4.260000E+03	4.524489E-16	5.218983E-17
4.270000E+03	4.523675E-16	5.188945E-17
4.280000E+03	4.521296E-16	5.155728E-17
4.290000E+03	4.517603E-16	5.119595E-17
4.300000E+03	4.512530E-16	5.080445E-17
4.310000E+03	4.506023E-16	5.038197E-17
4.320000E+03	4.498265E-16	4.993035E-17
4.330000E+03	4.489286E-16	4.944975E-17
4.340000E+03	4.479053E-16	4.893963E-17
4.350000E+03	4.467683E-16	4.840113E-17
4.360000E+03	4.455223E-16	4.783466E-17
4.370000E+03	4.441656E-16	4.723993E-17
4.380000E+03	4.427178E-16	4.661896E-17
4.390000E+03	4.411711E-16	4.597088E-17
4.400000E+03	4.395384E-16	4.529703E-17
4.410000E+03	4.378328E-16	4.459875E-17
4.420000E+03	4.360538E-16	4.387603E-17
4.430000E+03	4.342144E-16	4.313021E-17
4.440000E+03	4.323145E-16	4.236137E-17
4.450000E+03	4.303730E-16	4.157146E-17
4.460000E+03	4.283956E-16	4.076113E-17
4.470000E+03	4.263879E-16	3.993105E-17
4.480000E+03	4.243671E-16	3.908297E-17
4.490000E+03	4.223320E-16	3.821694E-17
4.500000E+03	4.202929E-16	3.733409E-17
4.510000E+03	4.182651E-16	3.643598E-17
4.520000E+03	4.162516E-16	3.552308E-17
4.530000E+03	4.142662E-16	3.459680E-17
4.540000E+03	4.123161E-16	3.365799E-17
4.550000E+03	4.103972E-16	3.270657E-17
4.560000E+03	4.085315E-16	3.174464E-17
4.570000E+03	4.067136E-16	3.077209E-17
4.580000E+03	4.049532E-16	2.979004E-17
4.590000E+03	4.032590E-16	2.879958E-17
4.600000E+03	4.016240E-16	2.780067E-17
4.610000E+03	4.000606E-16	2.679475E-17
4.620000E+03	3.985655E-16	2.578224E-17
4.630000E+03	3.971447E-16	2.476428E-17
4.640000E+03	3.957937E-16	2.374147E-17
4.650000E+03	3.945176E-16	2.271509E-17
4.660000E+03	3.933156E-16	2.168630E-17
4.670000E+03	3.921821E-16	2.065614E-17
4.680000E+03	3.911205E-16	1.962643E-17
4.690000E+03	3.901244E-16	1.859875E-17
4.700000E+03	3.891967E-16	1.757553E-17
4.710000E+03	3.883353E-16	1.655939E-17
4.720000E+03	3.875333E-16	1.555335E-17
4.730000E+03	3.867888E-16	1.456145E-17
4.740000E+03	3.860996E-16	1.358873E-17
4.750000E+03	3.854685E-16	1.264174E-17
4.760000E+03	3.848937E-16	1.172868E-17
4.770000E+03	3.843653E-16	1.085991E-17
4.780000E+03	3.838957E-16	1.004959E-17
4.790000E+03	3.834802E-16	9.315168E-18
4.800000E+03	3.831147E-16	8.678367E-18
4.810000E+03	3.828130E-16	8.164728E-18
4.820000E+03	3.825668E-16	7.793983E-18
4.830000E+03	3.823848E-16	7.578779E-18
4.840000E+03	3.822632E-16	7.528328E-18
4.850000E+03	3.822112E-16	7.647202E-18
4.860000E+03	3.822296E-16	7.933868E-18
4.870000E+03	3.823192E-16	8.381194E-18
4.880000E+03	3.824915E-16	8.971731E-18
4.890000E+03	3.827483E-16	9.677412E-18
4.900000E+03	3.830997E-16	1.047274E-17
4.910000E+03	3.835554E-16	1.133688E-17
4.920000E+03	3.841203E-16	1.225351E-17
4.930000E+03	3.847987E-16	1.321016E-17
4.940000E+03	3.855986E-16	1.419760E-17
4.950000E+03	3.865272E-16	1.520889E-17
4.960000E+03	3.875871E-16	1.623870E-17
4.970000E+03	3.887758E-16	1.728276E-17
4.980000E+03	3.901073E-16	1.833847E-17
4.990000E+03	3.915698E-16	1.940280E-17
5.000000E+03	3.931763E-16	2.047439E-17
5.010000E+03	3.949268E-16	2.155175E-17
5.020000E+03	3.968165E-16	2.263340E-17
5.030000E+03	3.988490E-16	2.371854E-17
5.040000E+03	4.010190E-16	2.480609E-17
5.050000E+03	4.033342E-16	2.589588E-17
5.060000E+03	4.057932E-16	2.698734E-17
5.070000E+03	4.083904E-16	2.807971E-17
5.080000E+03	4.111290E-16	2.917287E-17
5.090000E+03	4.140076E-16	3.026651E-17
5.100000E+03	4.170250E-16	3.136035E-17
5.110000E+03	4.201801E-16	3.245416E-17
5.120000E+03	4.234720E-16	3.354776E-17
5.130000E+03	4.269043E-16	3.464139E-17
5.140000E+03	4.304719E-16	3.573459E-17
5.150000E+03	4.341788E-16	3.682768E-17
5.160000E+03	4.380247E-16	3.792067E-17
5.170000E+03	4.420048E-16	3.901317E-17
5.180000E+03	4.461236E-16	4.010561E-17
5.190000E+03	4.503764E-16	4.119763E-17
5.200000E+03	4.547730E-16	4.229017E-17
5.210000E+03	4.593038E-16	4.338243E-17
5.220000E+03	4.639737E-16	4.447496E-17
5.230000E+03	4.687780E-16	4.556736E-17
5.240000E+03	4.737263E-16	4.666064E-17
5.250000E+03	4.788036E-16	4.775340E-17
5.260000E+03	4.840192E-16	4.884661E-17
5.270000E+03	4.893723E-16	4.994024E-17
5.280000E+03	4.948566E-16	5.103371E-17
5.290000E+03	5.004651E-16	5.212628E-17
5.300000E+03	5.062060E-16	5.321881E-17
5.310000E+03	5.120658E-16	5.430987E-17
5.320000E+03	5.180463E-16	5.539959E-17
5.330000E+03	5.241323E-16	5.648628E-17
5.340000E+03	5.303297E-16	5.757046E-17
5.350000E+03	5.366158E-16	5.864954E-17
5.360000E+03	5.429947E-16	5.972379E-17
5.370000E+03	5.494474E-16	6.079093E-17
5.380000E+03	5.559706E-16	6.185034E-17
5.390000E+03	5.625369E-16	6.289873E-17
5.400000E+03	5.691469E-16	6.393584E-17
5.410000E+03	5.757707E-16	6.495798E-17
5.420000E+03	5.824011E-16	6.596393E-17
5.430000E+03	5.890116E-16	6.695031E-17
5.440000E+03	5.955929E-16	6.791560E-17
5.450000E+03	6.021104E-16	6.885538E-17
5.460000E+03	6.085529E-16	6.976788E-17
5.470000E+03	6.149023E-16	7.065051E-17
5.480000E+03	6.211274E-16	7.149914E-17
5.490000E+03	6.272089E-16	7.231097E-17
5.500000E+03	6.331397E-16	7.308467E-17
5.510000E+03	6.388873E-16	7.381588E-17
5.520000E+03	6.444512E-16	7.450398E-17
5.530000E+03	6.497986E-16	7.514460E-17
5.540000E+03	6.549297E-16	7.573722E-17
5.550000E+03	6.598189E-16	7.627829E-17
5.560000E+03	6.644679E-16	7.676748E-17
5.570000E+03	6.688524E-16	7.720140E-17
5.580000E+03	6.729621E-16	7.757838E-17
5.590000E+03	6.767950E-16	7.789766E-17
5.600000E+03	6.803364E-16	7.815707E-17
5.610000E+03	6.835798E-16	7.835538E-17
5.620000E+03	6.865129E-16	7.849075E-17
5.630000E+03	6.891248E-16	7.856153E-17
5.640000E+03	6.914205E-16	7.856792E-17
5.650000E+03	6.933849E-16	7.850787E-17
5.660000E+03	6.950264E-16	7.838202E-17
5.670000E+03	6.963260E-16	7.818798E-17
5.680000E+03	6.973026E-16	7.792767E-17
5.690000E+03	6.979407E-16	7.759919E-17
5.700000E+03	6.982482E-16	7.720331E-17
5.710000E+03	6.982346E-16	7.674102E-17
5.720000E+03	6.978966E-16	7.621196E-17
5.730000E+03	6.972398E-16	7.561678E-17
5.740000E+03	6.962858E-16	7.495793E-17
5.750000E+03	6.950286E-16	7.423491E-17
5.760000E+03	6.934852E-16	7.344978E-17
5.770000E+03	6.916595E-16	7.260322E-17
5.780000E+03	6.895782E-16	7.169836E-17
5.790000E+03	6.872472E-16	7.073618E-17
5.800000E+03	6.846805E-16	6.971858E-17
5.810000E+03	6.818858E-16	6.864682E-17
5.820000E+03	6.788927E-16	6.752444E-17
5.830000E+03	6.757099E-16	6.635289E-17
5.840000E+03	6.723465E-16	6.513373E-17
5.850000E+03	6.688330E-16	6.387061E-17
5.860000E+03	6.651719E-16	6.256451E-17
5.870000E+03	6.613866E-16	6.121847E-17
5.880000E+03	6.574935E-16	5.983487E-17
5.890000E+03	6.535019E-16	5.841547E-17
5.900000E+03	6.494280E-16	5.696272E-17
5.910000E+03	6.452874E-16	5.547906E-17
5.920000E+03	6.411022E-16	5.396753E-17
5.930000E+03	6.368741E-16	5.242945E-17
5.940000E+03	6.326243E-16	5.086788E-17
5.950000E+03	6.283604E-16	4.928484E-17
5.960000E+03	6.241030E-16	4.768344E-17
5.970000E+03	6.198588E-16	4.606579E-17
5.980000E+03	6.156347E-16	4.443416E-17
5.990000E+03	6.114434E-16	4.279144E-17
6.000000E+03	6.073039E-16	4.114105E-17
6.010000E+03	6.032159E-16	3.948525E-17
6.020000E+03	5.991977E-16	3.782779E-17
6.030000E+03	5.952549E-16	3.617183E-17
6.040000E+03	5.913993E-16	3.452121E-17
6.050000E+03	5.876365E-16	3.287973E-17
6.060000E+03	5.839779E-16	3.125197E-17
6.070000E+03	5.804352E-16	2.964295E-17
6.080000E+03	5.770137E-16	2.805792E-17
6.090000E+03	5.737247E-16	2.650310E-17
6.100000E+03	5.705735E-16	2.498518E-17
6.110000E+03	5.675773E-16	2.351228E-17
6.120000E+03	5.647411E-16	2.209295E-17
6.130000E+03	5.620695E-16	2.073696E-17
6.140000E+03	5.595791E-16	1.945571E-17
6.150000E+03	5.572679E-16	1.826121E-17
6.160000E+03	5.551573E-16	1.716737E-17
6.170000E+03	5.532503E-16	1.618820E-17
6.180000E+03	5.515492E-16	1.533776E-17
6.190000E+03	5.500674E-16	1.462929E-17
6.200000E+03	5.488114E-16	1.407307E-17
6.210000E+03	5.477868E-16	1.367488E-17
6.220000E+03	5.469922E-16	1.343375E-17
6.230000E+03	5.464323E-16	1.333438E-17
6.240000E+03	5.461006E-16	1.334879E-17
6.250000E+03	5.459898E-16	1.344610E-17
6.260000E+03	5.460916E-16	1.359563E-17
6.270000E+03	5.464029E-16	1.376909E-17
6.280000E+03	5.469081E-16	1.394128E-17
6.290000E+03	5.476030E-16	1.409119E-17
6.300000E+03	5.484770E-16	1.420161E-17
6.310000E+03	5.495133E-16	1.425901E-17
6.320000E+03	5.507188E-16	1.425413E-17
6.330000E+03	5.520647E-16	1.418033E-17
6.340000E+03	5.535523E-16	1.403538E-17
6.350000E+03	5.551653E-16	1.382048E-17
6.360000E+03	5.569058E-16	1.354165E-17
6.370000E+03	5.587467E-16	1.320938E-17
6.380000E+03	5.606977E-16	1.284136E-17
6.390000E+03	5.627394E-16	1.246226E-17
6.400000E+03	5.648779E-16	1.210648E-17
6.410000E+03	5.670895E-16	1.181776E-17
6.420000E+03	5.693894E-16	1.164988E-17
6.430000E+03	5.717694E-16	1.166131E-17
6.440000E+03	5.742226E-16	1.190759E-17
6.450000E+03	5.767449E-16	1.241524E-17
6.460000E+03	5.793148E-16	1.316633E-17
6.470000E+03	5.818843E-16	1.412832E-17
6.480000E+03	5.844454E-16	1.526566E-17
6.490000E+03	5.869656E-16	1.654360E-17
6.500000E+03	5.894198E-16	1.793152E-17
6.510000E+03	5.917909E-16	1.940364E-17
6.520000E+03	5.940496E-16	2.093811E-17
6.530000E+03	5.961742E-16	2.251684E-17
6.540000E+03	5.981579E-16	2.412521E-17
6.550000E+03	5.999747E-16	2.575011E-17
6.560000E+03	6.016063E-16	2.738043E-17
6.570000E+03	6.030496E-16	2.900710E-17
6.580000E+03	6.042817E-16	3.062124E-17
6.590000E+03	6.052877E-16	3.221512E-17
6.600000E+03	6.060680E-16	3.378257E-17
6.610000E+03	6.066033E-16	3.531694E-17
6.620000E+03	6.068892E-16	3.681293E-17
6.630000E+03	6.069159E-16	3.826534E-17
6.640000E+03	6.066818E-16	3.966992E-17
6.650000E+03	6.061724E-16	4.102196E-17
6.660000E+03	6.053960E-16	4.231858E-17
6.670000E+03	6.043409E-16	4.355592E-17
6.680000E+03	6.030183E-16	4.473204E-17
6.690000E+03	6.014122E-16	4.584332E-17
6.700000E+03	5.995368E-16	4.688867E-17
6.710000E+03	5.973934E-16	4.786634E-17
6.720000E+03	5.949773E-16	4.877439E-17
6.730000E+03	5.923073E-16	4.961300E-17
6.740000E+03	5.893890E-16	5.038159E-17
6.750000E+03	5.862219E-16	5.107929E-17
6.760000E+03	5.828217E-16	5.170684E-17
6.770000E+03	5.791977E-16	5.226468E-17
6.780000E+03	5.753605E-16	5.275357E-17
6.790000E+03	5.713290E-16	5.317523E-17
6.800000E+03	5.671086E-16	5.353034E-17
6.810000E+03	5.627197E-16	5.382117E-17
6.820000E+03	5.581764E-16	5.404953E-17
6.830000E+03	5.534933E-16	5.421747E-17
6.840000E+03	5.486785E-16	5.432648E-17
6.850000E+03	5.437682E-16	5.438096E-17
6.860000E+03	5.387571E-16	5.438134E-17
6.870000E+03	5.336677E-16	5.433083E-17
6.880000E+03	5.285223E-16	5.423275E-17
6.890000E+03	5.233361E-16	5.408975E-17
6.900000E+03	5.181173E-16	5.390381E-17
6.910000E+03	5.128806E-16	5.367758E-17
6.920000E+03	5.076531E-16	5.341505E-17
6.930000E+03	5.024289E-16	5.311672E-17
6.940000E+03	4.972401E-16	5.278715E-17
6.950000E+03	4.920862E-16	5.242737E-17
6.960000E+03	4.869851E-16	5.204036E-17
6.970000E+03	4.819411E-16	5.162763E-17
6.980000E+03	4.769705E-16	5.119192E-17
6.990000E+03	4.720825E-16	5.073516E-17
7.000000E+03	4.672793E-16	5.025847E-17
7.010000E+03	4.625747E-16	4.976417E-17
7.020000E+03	4.579694E-16	4.925311E-17
7.030000E+03	4.534757E-16	4.872731E-17
7.040000E+03	4.490988E-16	4.818796E-17
7.050000E+03	4.448317E-16	4.763489E-17
7.060000E+03	4.406902E-16	4.707029E-17
7.070000E+03	4.366777E-16	4.649494E-17
7.080000E+03	4.327855E-16	4.590828E-17
7.090000E+03	4.290275E-16	4.531207E-17
7.100000E+03	4.253940E-16	4.470550E-17
7.110000E+03	4.218922E-16	4.408948E-17
7.120000E+03	4.185229E-16	4.346420E-17
7.130000E+03	4.152867E-16	4.282971E-17
7.140000E+03	4.121782E-16	4.218543E-17
7.150000E+03	4.091974E-16	4.153125E-17
7.160000E+03	4.063439E-16	4.086699E-17
7.170000E+03	4.036224E-16	4.019288E-17
7.180000E+03	4.010213E-16	3.950751E-17
7.190000E+03	3.985395E-16	3.881047E-17
7.200000E+03	3.961811E-16	3.810179E-17
7.210000E+03	3.939393E-16	3.738041E-17
7.220000E+03	3.918127E-16	3.664575E-17
7.230000E+03	3.897942E-16	3.589668E-17
7.240000E+03	3.878821E-16	3.513256E-17
7.250000E+03	3.860796E-16	3.435315E-17
7.260000E+03	3.843744E-16	3.355678E-17
7.270000E+03	3.827644E-16	3.274274E-17
7.280000E+03	3.812473E-16	3.191028E-17
7.290000E+03	3.798159E-16	3.105822E-17
7.300000E+03	3.784728E-16	3.018622E-17
7.310000E+03	3.772054E-16	2.929272E-17
7.320000E+03	3.760163E-16	2.837741E-17
7.330000E+03	3.748927E-16	2.743883E-17
7.340000E+03	3.738369E-16	2.647671E-17
7.350000E+03	3.728363E-16	2.548976E-17
7.360000E+03	3.718928E-16	2.447779E-17
7.370000E+03	3.709987E-16	2.344002E-17
7.380000E+03	3.701460E-16	2.237579E-17
7.390000E+03	3.693365E-16	2.128519E-17
7.400000E+03	3.685624E-16	2.016782E-17
7.410000E+03	3.678156E-16	1.902351E-17
7.420000E+03	3.670931E-16	1.785261E-17
7.430000E+03	3.664020E-16	1.665621E-17
7.440000E+03	3.657248E-16	1.543463E-17
7.450000E+03	3.650686E-16	1.418987E-17
7.460000E+03	3.644265E-16	1.292413E-17
7.470000E+03	3.638015E-16	1.164126E-17
7.480000E+03	3.631873E-16	1.034680E-17
7.490000E+03	3.625931E-16	9.050316E-18
7.500000E+03	3.620188E-16	7.767459E-18
7.510000E+03	3.614604E-16	6.526349E-18
7.520000E+03	3.609293E-16	5.380875E-18
7.530000E+03	3.604234E-16	4.435594E-18
7.540000E+03	3.599516E-16	3.874180E-18
7.550000E+03	3.595184E-16	3.896659E-18
7.560000E+03	3.591260E-16	4.488783E-18
7.570000E+03	3.587652E-16	5.441525E-18
7.580000E+03	3.584279E-16	6.576913E-18
7.590000E+03	3.581120E-16	7.795756E-18
7.600000E+03	3.578117E-16	9.047295E-18
7.610000E+03	3.575220E-16	1.030479E-17
7.620000E+03	3.572389E-16	1.155331E-17
7.630000E+03	3.569641E-16	1.278420E-17
7.640000E+03	3.566901E-16	1.399182E-17
7.650000E+03	3.564197E-16	1.517283E-17
7.660000E+03	3.561563E-16	1.632514E-17
7.670000E+03	3.558889E-16	1.744674E-17
7.680000E+03	3.556263E-16	1.853703E-17
7.690000E+03	3.553629E-16	1.959508E-17
7.700000E+03	3.551029E-16	2.062072E-17
7.710000E+03	3.548409E-16	2.161342E-17
7.720000E+03	3.545814E-16	2.257337E-17
7.730000E+03	3.543239E-16	2.350058E-17
7.740000E+03	3.540630E-16	2.439484E-17
7.750000E+03	3.537980E-16	2.525627E-17
7.760000E+03	3.535383E-16	2.608579E-17
