#wls	flux	fluxerr
1.600000E+03	1.909326E-17	1.733580E-17
1.640000E+03	1.919688E-17	1.722481E-17
1.680000E+03	1.930615E-17	1.711166E-17
1.720000E+03	1.941778E-17	1.699319E-17
1.760000E+03	1.953518E-17	1.687210E-17
1.800000E+03	1.965844E-17	1.674816E-17
1.840000E+03	1.978767E-17	1.662110E-17
1.880000E+03	1.992299E-17	1.649070E-17
1.920000E+03	2.006791E-17	1.635944E-17
1.960000E+03	2.021928E-17	1.622430E-17
2.000000E+03	2.038066E-17	1.608771E-17
2.040000E+03	2.055231E-17	1.594933E-17
2.080000E+03	2.073454E-17	1.580884E-17
2.120000E+03	2.092768E-17	1.566593E-17
2.160000E+03	2.113215E-17	1.552029E-17
2.200000E+03	2.135175E-17	1.537405E-17
2.240000E+03	2.158365E-17	1.522439E-17
2.280000E+03	2.183520E-17	1.507573E-17
2.320000E+03	2.210371E-17	1.492520E-17
2.360000E+03	2.238994E-17	1.477239E-17
2.400000E+03	2.269819E-17	1.461911E-17
2.440000E+03	2.302946E-17	1.446481E-17
2.480000E+03	2.338489E-17	1.430893E-17
2.520000E+03	2.376917E-17	1.415297E-17
2.560000E+03	2.418379E-17	1.399625E-17
2.600000E+03	2.463040E-17	1.383803E-17
2.640000E+03	2.511084E-17	1.367762E-17
2.680000E+03	2.563414E-17	1.351794E-17
2.720000E+03	2.619923E-17	1.335614E-17
2.760000E+03	2.681576E-17	1.319474E-17
2.800000E+03	2.747977E-17	1.302911E-17
2.840000E+03	2.820164E-17	1.286145E-17
2.880000E+03	2.898878E-17	1.269197E-17
2.920000E+03	2.984189E-17	1.251752E-17
2.960000E+03	3.077297E-17	1.233950E-17
3.000000E+03	3.178742E-17	1.215598E-17
3.010000E+03	3.205395E-17	1.210870E-17
3.020000E+03	3.232730E-17	1.206135E-17
3.030000E+03	3.260760E-17	1.201389E-17
3.040000E+03	3.289124E-17	1.196492E-17
3.050000E+03	3.318575E-17	1.191711E-17
3.060000E+03	3.348383E-17	1.186772E-17
3.070000E+03	3.378555E-17	1.181674E-17
3.080000E+03	3.409853E-17	1.176677E-17
3.090000E+03	3.441539E-17	1.171514E-17
3.100000E+03	3.474378E-17	1.166439E-17
3.110000E+03	3.507630E-17	1.161191E-17
3.120000E+03	3.541304E-17	1.155770E-17
3.130000E+03	3.576174E-17	1.150419E-17
3.140000E+03	3.611876E-17	1.145009E-17
3.150000E+03	3.648039E-17	1.139414E-17
3.160000E+03	3.685061E-17	1.133752E-17
3.170000E+03	3.723344E-17	1.128135E-17
3.180000E+03	3.762131E-17	1.122321E-17
3.190000E+03	3.801824E-17	1.116423E-17
3.200000E+03	3.842439E-17	1.110437E-17
3.210000E+03	3.883994E-17	1.104357E-17
3.220000E+03	3.926110E-17	1.098067E-17
3.230000E+03	3.969593E-17	1.091784E-17
3.240000E+03	4.014068E-17	1.085390E-17
3.250000E+03	4.059554E-17	1.078879E-17
3.260000E+03	4.105667E-17	1.072142E-17
3.270000E+03	4.153229E-17	1.065384E-17
3.280000E+03	4.201858E-17	1.058494E-17
3.290000E+03	4.251169E-17	1.051364E-17
3.300000E+03	4.301992E-17	1.044192E-17
3.310000E+03	4.353945E-17	1.036871E-17
3.320000E+03	4.407047E-17	1.029396E-17
3.330000E+03	4.461322E-17	1.021760E-17
3.340000E+03	4.516791E-17	1.013959E-17
3.350000E+03	4.573476E-17	1.005988E-17
3.360000E+03	4.631400E-17	9.978423E-18
3.370000E+03	4.690588E-17	9.895166E-18
3.380000E+03	4.751487E-17	9.810945E-18
3.390000E+03	4.813275E-17	9.723947E-18
3.400000E+03	4.876828E-17	9.635876E-18
3.410000E+03	4.941748E-17	9.545818E-18
3.420000E+03	5.008059E-17	9.453742E-18
3.430000E+03	5.075789E-17	9.359622E-18
3.440000E+03	5.145404E-17	9.264230E-18
3.450000E+03	5.216055E-17	9.165953E-18
3.460000E+03	5.288652E-17	9.066353E-18
3.470000E+03	5.362784E-17	8.964640E-18
3.480000E+03	5.438480E-17	8.860825E-18
3.490000E+03	5.516224E-17	8.755648E-18
3.500000E+03	5.595600E-17	8.648394E-18
3.510000E+03	5.676638E-17	8.539110E-18
3.520000E+03	5.759370E-17	8.427858E-18
3.530000E+03	5.843830E-17	8.314716E-18
3.540000E+03	5.930519E-17	8.200429E-18
3.550000E+03	6.019009E-17	8.084441E-18
3.560000E+03	6.109810E-17	7.967512E-18
3.570000E+03	6.202013E-17	7.848559E-18
3.580000E+03	6.296605E-17	7.729002E-18
3.590000E+03	6.393633E-17	7.609027E-18
3.600000E+03	6.492171E-17	7.487729E-18
3.610000E+03	6.593228E-17	7.366547E-18
3.620000E+03	6.696851E-17	7.245776E-18
3.630000E+03	6.802095E-17	7.124716E-18
3.640000E+03	6.909989E-17	7.004845E-18
3.650000E+03	7.020579E-17	6.886594E-18
3.660000E+03	7.133402E-17	6.769957E-18
3.670000E+03	7.248491E-17	6.655491E-18
3.680000E+03	7.365872E-17	6.543796E-18
3.690000E+03	7.486087E-17	6.435957E-18
3.700000E+03	7.608640E-17	6.332170E-18
3.710000E+03	7.734064E-17	6.233549E-18
3.720000E+03	7.861834E-17	6.140346E-18
3.730000E+03	7.991931E-17	6.053256E-18
3.740000E+03	8.124861E-17	5.973350E-18
3.750000E+03	8.260041E-17	5.900851E-18
3.760000E+03	8.397398E-17	5.836345E-18
3.770000E+03	8.537393E-17	5.780718E-18
3.780000E+03	8.679367E-17	5.734007E-18
3.790000E+03	8.823749E-17	5.696899E-18
3.800000E+03	8.969267E-17	5.668874E-18
3.810000E+03	9.117448E-17	5.651094E-18
3.820000E+03	9.266412E-17	5.642450E-18
3.830000E+03	9.417114E-17	5.643484E-18
3.840000E+03	9.568792E-17	5.653559E-18
3.850000E+03	9.721847E-17	5.672615E-18
3.860000E+03	9.875522E-17	5.699803E-18
3.870000E+03	1.002966E-16	5.734526E-18
3.880000E+03	1.018412E-16	5.776113E-18
3.890000E+03	1.033939E-16	5.824174E-18
3.900000E+03	1.049479E-16	5.877602E-18
3.910000E+03	1.065027E-16	5.935612E-18
3.920000E+03	1.080577E-16	5.997416E-18
3.930000E+03	1.096190E-16	6.062582E-18
3.940000E+03	1.111802E-16	6.130028E-18
3.950000E+03	1.127411E-16	6.199050E-18
3.960000E+03	1.143015E-16	6.268991E-18
3.970000E+03	1.158605E-16	6.339245E-18
3.980000E+03	1.174234E-16	6.409603E-18
3.990000E+03	1.189762E-16	6.478871E-18
4.000000E+03	1.205292E-16	6.547281E-18
4.010000E+03	1.220732E-16	6.614070E-18
4.020000E+03	1.235982E-16	6.678510E-18
4.030000E+03	1.251127E-16	6.740950E-18
4.040000E+03	1.266053E-16	6.800724E-18
4.050000E+03	1.280640E-16	6.857200E-18
4.060000E+03	1.294957E-16	6.910813E-18
4.070000E+03	1.308814E-16	6.960642E-18
4.080000E+03	1.322212E-16	7.006837E-18
4.090000E+03	1.335092E-16	7.049234E-18
4.100000E+03	1.347395E-16	7.087702E-18
4.110000E+03	1.359007E-16	7.121807E-18
4.120000E+03	1.370014E-16	7.152182E-18
4.130000E+03	1.380254E-16	7.178136E-18
4.140000E+03	1.389702E-16	7.199712E-18
4.150000E+03	1.398412E-16	7.217342E-18
4.160000E+03	1.406384E-16	7.231169E-18
4.170000E+03	1.413561E-16	7.241055E-18
4.180000E+03	1.420029E-16	7.247584E-18
4.190000E+03	1.425749E-16	7.250719E-18
4.200000E+03	1.430759E-16	7.250800E-18
4.210000E+03	1.435163E-16	7.248518E-18
4.220000E+03	1.438943E-16	7.243936E-18
4.230000E+03	1.442210E-16	7.237770E-18
4.240000E+03	1.444891E-16	7.229786E-18
4.250000E+03	1.447163E-16	7.221001E-18
4.260000E+03	1.449018E-16	7.211469E-18
4.270000E+03	1.450512E-16	7.201529E-18
4.280000E+03	1.451699E-16	7.191477E-18
4.290000E+03	1.452636E-16	7.181566E-18
4.300000E+03	1.453378E-16	7.171988E-18
4.310000E+03	1.453980E-16	7.162875E-18
4.320000E+03	1.454494E-16	7.154289E-18
4.330000E+03	1.454912E-16	7.145936E-18
4.340000E+03	1.455343E-16	7.138042E-18
4.350000E+03	1.455832E-16	7.130475E-18
4.360000E+03	1.456424E-16	7.123053E-18
4.370000E+03	1.457104E-16	7.115268E-18
4.380000E+03	1.457915E-16	7.106874E-18
4.390000E+03	1.459013E-16	7.098155E-18
4.400000E+03	1.460274E-16	7.088009E-18
4.410000E+03	1.461858E-16	7.076723E-18
4.420000E+03	1.463816E-16	7.064055E-18
4.430000E+03	1.466091E-16	7.049262E-18
4.440000E+03	1.468857E-16	7.032721E-18
4.450000E+03	1.472180E-16	7.014322E-18
4.460000E+03	1.476023E-16	6.993491E-18
4.470000E+03	1.480524E-16	6.970504E-18
4.480000E+03	1.485823E-16	6.945688E-18
4.490000E+03	1.491963E-16	6.918908E-18
4.500000E+03	1.498991E-16	6.890085E-18
4.510000E+03	1.507127E-16	6.859924E-18
4.520000E+03	1.516379E-16	6.828154E-18
4.530000E+03	1.526979E-16	6.795490E-18
4.540000E+03	1.538947E-16	6.761654E-18
4.550000E+03	1.552468E-16	6.727053E-18
4.560000E+03	1.567675E-16	6.691787E-18
4.570000E+03	1.584642E-16	6.655635E-18
4.580000E+03	1.603605E-16	6.618960E-18
4.590000E+03	1.624569E-16	6.581070E-18
4.600000E+03	1.647632E-16	6.541596E-18
4.610000E+03	1.672933E-16	6.500231E-18
4.620000E+03	1.700527E-16	6.456280E-18
4.630000E+03	1.730382E-16	6.408673E-18
4.640000E+03	1.762543E-16	6.356625E-18
4.650000E+03	1.796893E-16	6.298791E-18
4.660000E+03	1.833385E-16	6.234152E-18
4.670000E+03	1.871796E-16	6.161218E-18
4.680000E+03	1.911963E-16	6.078918E-18
4.690000E+03	1.953539E-16	5.985874E-18
4.700000E+03	1.996236E-16	5.881305E-18
4.710000E+03	2.039513E-16	5.764191E-18
4.720000E+03	2.083031E-16	5.634773E-18
4.730000E+03	2.126281E-16	5.493577E-18
4.740000E+03	2.168654E-16	5.341827E-18
4.750000E+03	2.209598E-16	5.181987E-18
4.760000E+03	2.248572E-16	5.017727E-18
4.770000E+03	2.285146E-16	4.854134E-18
4.780000E+03	2.318807E-16	4.697155E-18
4.790000E+03	2.349194E-16	4.553779E-18
4.800000E+03	2.376043E-16	4.431331E-18
4.810000E+03	2.399271E-16	4.336901E-18
4.820000E+03	2.418765E-16	4.276249E-18
4.830000E+03	2.434598E-16	4.253747E-18
4.840000E+03	2.446965E-16	4.272048E-18
4.850000E+03	2.456245E-16	4.332196E-18
4.860000E+03	2.462758E-16	4.433236E-18
4.870000E+03	2.466964E-16	4.572614E-18
4.880000E+03	2.469358E-16	4.746193E-18
4.890000E+03	2.470521E-16	4.948785E-18
4.900000E+03	2.470800E-16	5.174185E-18
4.910000E+03	2.470822E-16	5.416877E-18
4.920000E+03	2.470957E-16	5.671500E-18
4.930000E+03	2.471686E-16	5.933917E-18
4.940000E+03	2.473214E-16	6.200444E-18
4.950000E+03	2.475982E-16	6.468998E-18
4.960000E+03	2.480135E-16	6.737692E-18
4.970000E+03	2.485887E-16	7.005561E-18
4.980000E+03	2.493147E-16	7.271374E-18
4.990000E+03	2.502024E-16	7.534893E-18
5.000000E+03	2.512320E-16	7.795280E-18
5.010000E+03	2.523892E-16	8.052057E-18
5.020000E+03	2.536291E-16	8.303896E-18
5.030000E+03	2.549280E-16	8.550217E-18
5.040000E+03	2.562407E-16	8.789777E-18
5.050000E+03	2.575011E-16	9.020625E-18
5.060000E+03	2.586685E-16	9.241662E-18
5.070000E+03	2.596774E-16	9.450902E-18
5.080000E+03	2.604766E-16	9.646825E-18
5.090000E+03	2.610024E-16	9.827351E-18
5.100000E+03	2.612033E-16	9.990726E-18
5.110000E+03	2.610428E-16	1.013561E-17
5.120000E+03	2.604727E-16	1.026000E-17
5.130000E+03	2.594943E-16	1.036365E-17
5.140000E+03	2.580791E-16	1.044491E-17
5.150000E+03	2.562579E-16	1.050439E-17
5.160000E+03	2.540330E-16	1.054140E-17
5.170000E+03	2.514570E-16	1.055735E-17
5.180000E+03	2.485735E-16	1.055329E-17
5.190000E+03	2.454496E-16	1.053142E-17
5.200000E+03	2.421457E-16	1.049384E-17
5.210000E+03	2.387397E-16	1.044365E-17
5.220000E+03	2.352968E-16	1.038362E-17
5.230000E+03	2.318883E-16	1.031702E-17
5.240000E+03	2.285878E-16	1.024746E-17
5.250000E+03	2.254577E-16	1.017820E-17
5.260000E+03	2.225482E-16	1.011206E-17
5.270000E+03	2.199153E-16	1.005224E-17
5.280000E+03	2.175960E-16	1.000107E-17
5.290000E+03	2.156268E-16	9.960908E-18
5.300000E+03	2.140437E-16	9.934041E-18
5.310000E+03	2.128708E-16	9.922184E-18
5.320000E+03	2.121208E-16	9.926481E-18
5.330000E+03	2.118135E-16	9.948348E-18
5.340000E+03	2.119525E-16	9.988393E-18
5.350000E+03	2.125490E-16	1.004754E-17
5.360000E+03	2.136051E-16	1.012620E-17
5.370000E+03	2.151135E-16	1.022430E-17
5.380000E+03	2.170696E-16	1.034185E-17
5.390000E+03	2.194777E-16	1.047920E-17
5.400000E+03	2.223158E-16	1.063541E-17
5.410000E+03	2.255707E-16	1.080989E-17
5.420000E+03	2.292394E-16	1.100249E-17
5.430000E+03	2.332917E-16	1.121172E-17
5.440000E+03	2.377074E-16	1.143656E-17
5.450000E+03	2.424777E-16	1.167648E-17
5.460000E+03	2.475660E-16	1.192961E-17
5.470000E+03	2.529468E-16	1.219462E-17
5.480000E+03	2.586078E-16	1.247078E-17
5.490000E+03	2.645075E-16	1.275598E-17
5.500000E+03	2.706247E-16	1.304909E-17
5.510000E+03	2.769304E-16	1.334861E-17
5.520000E+03	2.833950E-16	1.365299E-17
5.530000E+03	2.899799E-16	1.396031E-17
5.540000E+03	2.966612E-16	1.426932E-17
5.550000E+03	3.034061E-16	1.457835E-17
5.560000E+03	3.101800E-16	1.488567E-17
5.570000E+03	3.169460E-16	1.518943E-17
5.580000E+03	3.236556E-16	1.548722E-17
5.590000E+03	3.302823E-16	1.577767E-17
5.600000E+03	3.367603E-16	1.605752E-17
5.610000E+03	3.430455E-16	1.632452E-17
5.620000E+03	3.490797E-16	1.657573E-17
5.630000E+03	3.548100E-16	1.680842E-17
5.640000E+03	3.601505E-16	1.701834E-17
5.650000E+03	3.650418E-16	1.720249E-17
5.660000E+03	3.694145E-16	1.735751E-17
5.670000E+03	3.732017E-16	1.748024E-17
5.680000E+03	3.763413E-16	1.756790E-17
5.690000E+03	3.787797E-16	1.761828E-17
5.700000E+03	3.804744E-16	1.762984E-17
5.710000E+03	3.813969E-16	1.760183E-17
5.720000E+03	3.815451E-16	1.753480E-17
5.730000E+03	3.809031E-16	1.742873E-17
5.740000E+03	3.795147E-16	1.728632E-17
5.750000E+03	3.773998E-16	1.710909E-17
5.760000E+03	3.746362E-16	1.690110E-17
5.770000E+03	3.712851E-16	1.666553E-17
5.780000E+03	3.674299E-16	1.640644E-17
5.790000E+03	3.631627E-16	1.612815E-17
5.800000E+03	3.585911E-16	1.583556E-17
5.810000E+03	3.538054E-16	1.553269E-17
5.820000E+03	3.489051E-16	1.522391E-17
5.830000E+03	3.439864E-16	1.491334E-17
5.840000E+03	3.391394E-16	1.460476E-17
5.850000E+03	3.344554E-16	1.430185E-17
5.860000E+03	3.299973E-16	1.400701E-17
5.870000E+03	3.258259E-16	1.372239E-17
5.880000E+03	3.219985E-16	1.344990E-17
5.890000E+03	3.185409E-16	1.319004E-17
5.900000E+03	3.154747E-16	1.294302E-17
5.910000E+03	3.128157E-16	1.270879E-17
5.920000E+03	3.105485E-16	1.248604E-17
5.930000E+03	3.086529E-16	1.227330E-17
5.940000E+03	3.071044E-16	1.206900E-17
5.950000E+03	3.058497E-16	1.187058E-17
5.960000E+03	3.048419E-16	1.167588E-17
5.970000E+03	3.040093E-16	1.148198E-17
5.980000E+03	3.032825E-16	1.128623E-17
5.990000E+03	3.025974E-16	1.108638E-17
6.000000E+03	3.018731E-16	1.087972E-17
6.010000E+03	3.010486E-16	1.066445E-17
6.020000E+03	3.000521E-16	1.043852E-17
6.030000E+03	2.988372E-16	1.020091E-17
6.040000E+03	2.973515E-16	9.950503E-18
6.050000E+03	2.955711E-16	9.687290E-18
6.060000E+03	2.934683E-16	9.411245E-18
6.070000E+03	2.910445E-16	9.123425E-18
6.080000E+03	2.882965E-16	8.824889E-18
6.090000E+03	2.852484E-16	8.517705E-18
6.100000E+03	2.819179E-16	8.203918E-18
6.110000E+03	2.783470E-16	7.886480E-18
6.120000E+03	2.745770E-16	7.568482E-18
6.130000E+03	2.706471E-16	7.253161E-18
6.140000E+03	2.666091E-16	6.944265E-18
6.150000E+03	2.625326E-16	6.646132E-18
6.160000E+03	2.584516E-16	6.362254E-18
6.170000E+03	2.544446E-16	6.097220E-18
6.180000E+03	2.505520E-16	5.854486E-18
6.190000E+03	2.468328E-16	5.637540E-18
6.200000E+03	2.433275E-16	5.448696E-18
6.210000E+03	2.400843E-16	5.289354E-18
6.220000E+03	2.371376E-16	5.159208E-18
6.230000E+03	2.345074E-16	5.056147E-18
6.240000E+03	2.322187E-16	4.976870E-18
6.250000E+03	2.302821E-16	4.916865E-18
6.260000E+03	2.286935E-16	4.870930E-18
6.270000E+03	2.274546E-16	4.834038E-18
6.280000E+03	2.265535E-16	4.801237E-18
6.290000E+03	2.259718E-16	4.767978E-18
6.300000E+03	2.256785E-16	4.730078E-18
6.310000E+03	2.256498E-16	4.684176E-18
6.320000E+03	2.258502E-16	4.627377E-18
6.330000E+03	2.262328E-16	4.557318E-18
6.340000E+03	2.267660E-16	4.472815E-18
6.350000E+03	2.273888E-16	4.373104E-18
6.360000E+03	2.280573E-16	4.258988E-18
6.370000E+03	2.287203E-16	4.132592E-18
6.380000E+03	2.293271E-16	3.997811E-18
6.390000E+03	2.298231E-16	3.860482E-18
6.400000E+03	2.301724E-16	3.728860E-18
6.410000E+03	2.303465E-16	3.613157E-18
6.420000E+03	2.303073E-16	3.524424E-18
6.430000E+03	2.300493E-16	3.473600E-18
6.440000E+03	2.295751E-16	3.468939E-18
6.450000E+03	2.289031E-16	3.514212E-18
6.460000E+03	2.280601E-16	3.607907E-18
6.470000E+03	2.271059E-16	3.744552E-18
6.480000E+03	2.260906E-16	3.916023E-18
6.490000E+03	2.250708E-16	4.113803E-18
6.500000E+03	2.241257E-16	4.330707E-18
6.510000E+03	2.233139E-16	4.560809E-18
6.520000E+03	2.226907E-16	4.799863E-18
6.530000E+03	2.223243E-16	5.045538E-18
6.540000E+03	2.222545E-16	5.296266E-18
6.550000E+03	2.225110E-16	5.551272E-18
6.560000E+03	2.231311E-16	5.810772E-18
6.570000E+03	2.241197E-16	6.074731E-18
6.580000E+03	2.254750E-16	6.343273E-18
6.590000E+03	2.271819E-16	6.616344E-18
6.600000E+03	2.292112E-16	6.893566E-18
6.610000E+03	2.315276E-16	7.174349E-18
6.620000E+03	2.340627E-16	7.456971E-18
6.630000E+03	2.367565E-16	7.739799E-18
6.640000E+03	2.395394E-16	8.020707E-18
6.650000E+03	2.423193E-16	8.296614E-18
6.660000E+03	2.450052E-16	8.564248E-18
6.670000E+03	2.475030E-16	8.820038E-18
6.680000E+03	2.497265E-16	9.060524E-18
6.690000E+03	2.515709E-16	9.281433E-18
6.700000E+03	2.529685E-16	9.479741E-18
6.710000E+03	2.538400E-16	9.651927E-18
6.720000E+03	2.541349E-16	9.795514E-18
6.730000E+03	2.537959E-16	9.907749E-18
6.740000E+03	2.528140E-16	9.987761E-18
6.750000E+03	2.511756E-16	1.003456E-17
6.760000E+03	2.488929E-16	1.004822E-17
6.770000E+03	2.460030E-16	1.002994E-17
6.780000E+03	2.425432E-16	9.980974E-18
6.790000E+03	2.385713E-16	9.903562E-18
6.800000E+03	2.341557E-16	9.800451E-18
6.810000E+03	2.293787E-16	9.675091E-18
6.820000E+03	2.243125E-16	9.530600E-18
6.830000E+03	2.190445E-16	9.370816E-18
6.840000E+03	2.136401E-16	9.198716E-18
6.850000E+03	2.081875E-16	9.018308E-18
6.860000E+03	2.027493E-16	8.832538E-18
6.870000E+03	1.973931E-16	8.644617E-18
6.880000E+03	1.921662E-16	8.456876E-18
6.890000E+03	1.871131E-16	8.271556E-18
6.900000E+03	1.822693E-16	8.090525E-18
6.910000E+03	1.776676E-16	7.915528E-18
6.920000E+03	1.733209E-16	7.747470E-18
6.930000E+03	1.692463E-16	7.587434E-18
6.940000E+03	1.654384E-16	7.435521E-18
6.950000E+03	1.619074E-16	7.292532E-18
6.960000E+03	1.586485E-16	7.158592E-18
6.970000E+03	1.556440E-16	7.033226E-18
6.980000E+03	1.528933E-16	6.916713E-18
6.990000E+03	1.503794E-16	6.808567E-18
7.000000E+03	1.480940E-16	6.708655E-18
7.010000E+03	1.460146E-16	6.616161E-18
7.020000E+03	1.441374E-16	6.531072E-18
7.030000E+03	1.424452E-16	6.452737E-18
7.040000E+03	1.409308E-16	6.380910E-18
7.050000E+03	1.395789E-16	6.314954E-18
7.060000E+03	1.383755E-16	6.254257E-18
7.070000E+03	1.373250E-16	6.199008E-18
7.080000E+03	1.364066E-16	6.148245E-18
7.090000E+03	1.356175E-16	6.101808E-18
7.100000E+03	1.349556E-16	6.059548E-18
7.110000E+03	1.344108E-16	6.020944E-18
7.120000E+03	1.339773E-16	5.985680E-18
7.130000E+03	1.336499E-16	5.953444E-18
7.140000E+03	1.334274E-16	5.924122E-18
7.150000E+03	1.332966E-16	5.897048E-18
7.160000E+03	1.332609E-16	5.872321E-18
7.170000E+03	1.333076E-16	5.849318E-18
7.180000E+03	1.334414E-16	5.828187E-18
7.190000E+03	1.336548E-16	5.808556E-18
7.200000E+03	1.339457E-16	5.790275E-18
7.210000E+03	1.343130E-16	5.773231E-18
7.220000E+03	1.347566E-16	5.757347E-18
7.230000E+03	1.352775E-16	5.742570E-18
7.240000E+03	1.358780E-16	5.728873E-18
7.250000E+03	1.365610E-16	5.716237E-18
7.260000E+03	1.373302E-16	5.704650E-18
7.270000E+03	1.381897E-16	5.694099E-18
7.280000E+03	1.391395E-16	5.684385E-18
7.290000E+03	1.401925E-16	5.675849E-18
7.300000E+03	1.413481E-16	5.668279E-18
7.310000E+03	1.426049E-16	5.661460E-18
7.320000E+03	1.439742E-16	5.655714E-18
7.330000E+03	1.454480E-16	5.650628E-18
7.340000E+03	1.470308E-16	5.646330E-18
7.350000E+03	1.487213E-16	5.642750E-18
7.360000E+03	1.505165E-16	5.639812E-18
7.370000E+03	1.524119E-16	5.637431E-18
7.380000E+03	1.543965E-16	5.635340E-18
7.390000E+03	1.564672E-16	5.633647E-18
7.400000E+03	1.586147E-16	5.632309E-18
7.410000E+03	1.608277E-16	5.631327E-18
7.420000E+03	1.630883E-16	5.630590E-18
7.430000E+03	1.653876E-16	5.630447E-18
7.440000E+03	1.677105E-16	5.631178E-18
7.450000E+03	1.700358E-16	5.633013E-18
7.460000E+03	1.723585E-16	5.636885E-18
7.470000E+03	1.746463E-16	5.642967E-18
7.480000E+03	1.769016E-16	5.652689E-18
7.490000E+03	1.791000E-16	5.666701E-18
7.500000E+03	1.812366E-16	5.686312E-18
7.510000E+03	1.832970E-16	5.712504E-18
7.520000E+03	1.852818E-16	5.746602E-18
7.530000E+03	1.871816E-16	5.789416E-18
7.540000E+03	1.890015E-16	5.841886E-18
7.550000E+03	1.907421E-16	5.904403E-18
7.560000E+03	1.923984E-16	5.976734E-18
7.570000E+03	1.939775E-16	6.058598E-18
7.580000E+03	1.954738E-16	6.148936E-18
7.590000E+03	1.968928E-16	6.246799E-18
7.600000E+03	1.982257E-16	6.350647E-18
7.610000E+03	1.994683E-16	6.459051E-18
7.620000E+03	2.006278E-16	6.571004E-18
7.630000E+03	2.016761E-16	6.684460E-18
7.640000E+03	2.026170E-16	6.798535E-18
7.650000E+03	2.034401E-16	6.912010E-18
7.660000E+03	2.041275E-16	7.023542E-18
7.670000E+03	2.046756E-16	7.132364E-18
7.680000E+03	2.050619E-16	7.237116E-18
7.690000E+03	2.053005E-16	7.337772E-18
7.700000E+03	2.053750E-16	7.433244E-18
7.710000E+03	2.052867E-16	7.523084E-18
7.720000E+03	2.050417E-16	7.607024E-18
7.730000E+03	2.046584E-16	7.685253E-18
7.740000E+03	2.041459E-16	7.757648E-18
7.750000E+03	2.035318E-16	7.824809E-18
7.760000E+03	2.028334E-16	7.886998E-18
