#wls	flux	fluxerr
1.600000E+03	1.034580E-17	9.461775E-18
1.640000E+03	1.040637E-17	9.406156E-18
1.680000E+03	1.047144E-17	9.350477E-18
1.720000E+03	1.054313E-17	9.296358E-18
1.760000E+03	1.061998E-17	9.242207E-18
1.800000E+03	1.070233E-17	9.188058E-18
1.840000E+03	1.079057E-17	9.133950E-18
1.880000E+03	1.088514E-17	9.079925E-18
1.920000E+03	1.098836E-17	9.027546E-18
1.960000E+03	1.110075E-17	8.976812E-18
2.000000E+03	1.122106E-17	8.926241E-18
2.040000E+03	1.135178E-17	8.877354E-18
2.080000E+03	1.149175E-17	8.828700E-18
2.120000E+03	1.164552E-17	8.783204E-18
2.160000E+03	1.181016E-17	8.737978E-18
2.200000E+03	1.198853E-17	8.694471E-18
2.240000E+03	1.218167E-17	8.652675E-18
2.280000E+03	1.239077E-17	8.612576E-18
2.320000E+03	1.261909E-17	8.575506E-18
2.360000E+03	1.286611E-17	8.540037E-18
2.400000E+03	1.313340E-17	8.506117E-18
2.440000E+03	1.342479E-17	8.474981E-18
2.480000E+03	1.374018E-17	8.445189E-18
2.520000E+03	1.408387E-17	8.417890E-18
2.560000E+03	1.445833E-17	8.392869E-18
2.600000E+03	1.486413E-17	8.368621E-18
2.640000E+03	1.530872E-17	8.347343E-18
2.680000E+03	1.579336E-17	8.327397E-18
2.720000E+03	1.632188E-17	8.308329E-18
2.760000E+03	1.689851E-17	8.289597E-18
2.800000E+03	1.753051E-17	8.271722E-18
2.840000E+03	1.822080E-17	8.252732E-18
2.880000E+03	1.897796E-17	8.232850E-18
2.920000E+03	1.980882E-17	8.210949E-18
2.960000E+03	2.071827E-17	8.184609E-18
3.000000E+03	2.172035E-17	8.154526E-18
3.010000E+03	2.198493E-17	8.145640E-18
3.020000E+03	2.225513E-17	8.136046E-18
3.030000E+03	2.253405E-17	8.126786E-18
3.040000E+03	2.281894E-17	8.116753E-18
3.050000E+03	2.310995E-17	8.105917E-18
3.060000E+03	2.341028E-17	8.095302E-18
3.070000E+03	2.371710E-17	8.083813E-18
3.080000E+03	2.403058E-17	8.071418E-18
3.090000E+03	2.435089E-17	8.058082E-18
3.100000E+03	2.468137E-17	8.044805E-18
3.110000E+03	2.501910E-17	8.030506E-18
3.120000E+03	2.536427E-17	8.015151E-18
3.130000E+03	2.571705E-17	7.998702E-18
3.140000E+03	2.608095E-17	7.982130E-18
3.150000E+03	2.645294E-17	7.964375E-18
3.160000E+03	2.683321E-17	7.945396E-18
3.170000E+03	2.722199E-17	7.925154E-18
3.180000E+03	2.762293E-17	7.904591E-18
3.190000E+03	2.803288E-17	7.882669E-18
3.200000E+03	2.845207E-17	7.859344E-18
3.210000E+03	2.888430E-17	7.835540E-18
3.220000E+03	2.932632E-17	7.810232E-18
3.230000E+03	2.977837E-17	7.783379E-18
3.240000E+03	3.024071E-17	7.754935E-18
3.250000E+03	3.071733E-17	7.725797E-18
3.260000E+03	3.120483E-17	7.694967E-18
3.270000E+03	3.170350E-17	7.662404E-18
3.280000E+03	3.221747E-17	7.628982E-18
3.290000E+03	3.274324E-17	7.593729E-18
3.300000E+03	3.328110E-17	7.556606E-18
3.310000E+03	3.383135E-17	7.517577E-18
3.320000E+03	3.439834E-17	7.477490E-18
3.330000E+03	3.497842E-17	7.435414E-18
3.340000E+03	3.557188E-17	7.391321E-18
3.350000E+03	3.618327E-17	7.346044E-18
3.360000E+03	3.680879E-17	7.298689E-18
3.370000E+03	3.744876E-17	7.249242E-18
3.380000E+03	3.810351E-17	7.197694E-18
3.390000E+03	3.877781E-17	7.144867E-18
3.400000E+03	3.946768E-17	7.089928E-18
3.410000E+03	4.017344E-17	7.032896E-18
3.420000E+03	4.090008E-17	6.974588E-18
3.430000E+03	4.163871E-17	6.913453E-18
3.440000E+03	4.240379E-17	6.851886E-18
3.450000E+03	4.318156E-17	6.787613E-18
3.460000E+03	4.398195E-17	6.722248E-18
3.470000E+03	4.480055E-17	6.655123E-18
3.480000E+03	4.563768E-17	6.586360E-18
3.490000E+03	4.649368E-17	6.516102E-18
3.500000E+03	4.737406E-17	6.445225E-18
3.510000E+03	4.827409E-17	6.373192E-18
3.520000E+03	4.919941E-17	6.300907E-18
3.530000E+03	5.013969E-17	6.227237E-18
3.540000E+03	5.110598E-17	6.153816E-18
3.550000E+03	5.209316E-17	6.080265E-18
3.560000E+03	5.310712E-17	6.007559E-18
3.570000E+03	5.414252E-17	5.935399E-18
3.580000E+03	5.519950E-17	5.864170E-18
3.590000E+03	5.627811E-17	5.794282E-18
3.600000E+03	5.737837E-17	5.726158E-18
3.610000E+03	5.850629E-17	5.660825E-18
3.620000E+03	5.965578E-17	5.598106E-18
3.630000E+03	6.083283E-17	5.539002E-18
3.640000E+03	6.202452E-17	5.482764E-18
3.650000E+03	6.324300E-17	5.430912E-18
3.660000E+03	6.448124E-17	5.383211E-18
3.670000E+03	6.574507E-17	5.340496E-18
3.680000E+03	6.702013E-17	5.301909E-18
3.690000E+03	6.831869E-17	5.268704E-18
3.700000E+03	6.963266E-17	5.240447E-18
3.710000E+03	7.096044E-17	5.217181E-18
3.720000E+03	7.230751E-17	5.199406E-18
3.730000E+03	7.366496E-17	5.186520E-18
3.740000E+03	7.503076E-17	5.178395E-18
3.750000E+03	7.640275E-17	5.174862E-18
3.760000E+03	7.778628E-17	5.176225E-18
3.770000E+03	7.916389E-17	5.181244E-18
3.780000E+03	8.054853E-17	5.190691E-18
3.790000E+03	8.193020E-17	5.203817E-18
3.800000E+03	8.331456E-17	5.220884E-18
3.810000E+03	8.468342E-17	5.240657E-18
3.820000E+03	8.605079E-17	5.263924E-18
3.830000E+03	8.740674E-17	5.289982E-18
3.840000E+03	8.874965E-17	5.318647E-18
3.850000E+03	9.008668E-17	5.350255E-18
3.860000E+03	9.140010E-17	5.383645E-18
3.870000E+03	9.270647E-17	5.419681E-18
3.880000E+03	9.399733E-17	5.457721E-18
3.890000E+03	9.527319E-17	5.497631E-18
3.900000E+03	9.653498E-17	5.539271E-18
3.910000E+03	9.778404E-17	5.582497E-18
3.920000E+03	9.903103E-17	5.627666E-18
3.930000E+03	1.002689E-16	5.674100E-18
3.940000E+03	1.014904E-16	5.721097E-18
3.950000E+03	1.027154E-16	5.769485E-18
3.960000E+03	1.039364E-16	5.818526E-18
3.970000E+03	1.051637E-16	5.868501E-18
3.980000E+03	1.063791E-16	5.918105E-18
3.990000E+03	1.076010E-16	5.968104E-18
4.000000E+03	1.088093E-16	6.017153E-18
4.010000E+03	1.100209E-16	6.065999E-18
4.020000E+03	1.112234E-16	6.113800E-18
4.030000E+03	1.124030E-16	6.159701E-18
4.040000E+03	1.135745E-16	6.204454E-18
4.050000E+03	1.147228E-16	6.247215E-18
4.060000E+03	1.158517E-16	6.288227E-18
4.070000E+03	1.169353E-16	6.326134E-18
4.080000E+03	1.179770E-16	6.361216E-18
4.090000E+03	1.189705E-16	6.393246E-18
4.100000E+03	1.199200E-16	6.422566E-18
4.110000E+03	1.207999E-16	6.447931E-18
4.120000E+03	1.216160E-16	6.469757E-18
4.130000E+03	1.223750E-16	6.488501E-18
4.140000E+03	1.230542E-16	6.503042E-18
4.150000E+03	1.236731E-16	6.514463E-18
4.160000E+03	1.242116E-16	6.521741E-18
4.170000E+03	1.246920E-16	6.526045E-18
4.180000E+03	1.250966E-16	6.526451E-18
4.190000E+03	1.254397E-16	6.523679E-18
4.200000E+03	1.257367E-16	6.518479E-18
4.210000E+03	1.259727E-16	6.510048E-18
4.220000E+03	1.261745E-16	6.499710E-18
4.230000E+03	1.263282E-16	6.486708E-18
4.240000E+03	1.264506E-16	6.471855E-18
4.250000E+03	1.265481E-16	6.455433E-18
4.260000E+03	1.266267E-16	6.437705E-18
4.270000E+03	1.266918E-16	6.418909E-18
4.280000E+03	1.267484E-16	6.399249E-18
4.290000E+03	1.268004E-16	6.378890E-18
4.300000E+03	1.268512E-16	6.357955E-18
4.310000E+03	1.269031E-16	6.336522E-18
4.320000E+03	1.269479E-16	6.314140E-18
4.330000E+03	1.269964E-16	6.291298E-18
4.340000E+03	1.270582E-16	6.268433E-18
4.350000E+03	1.271133E-16	6.244512E-18
4.360000E+03	1.271705E-16	6.219922E-18
4.370000E+03	1.272283E-16	6.194554E-18
4.380000E+03	1.272756E-16	6.167827E-18
4.390000E+03	1.273299E-16	6.140560E-18
4.400000E+03	1.273706E-16	6.111725E-18
4.410000E+03	1.274065E-16	6.081700E-18
4.420000E+03	1.274369E-16	6.050426E-18
4.430000E+03	1.274622E-16	6.017872E-18
4.440000E+03	1.274838E-16	5.984041E-18
4.450000E+03	1.274945E-16	5.948537E-18
4.460000E+03	1.275074E-16	5.911885E-18
4.470000E+03	1.275276E-16	5.874204E-18
4.480000E+03	1.275614E-16	5.835652E-18
4.490000E+03	1.276167E-16	5.796422E-18
4.500000E+03	1.276937E-16	5.756328E-18
4.510000E+03	1.278126E-16	5.716047E-18
4.520000E+03	1.279856E-16	5.675856E-18
4.530000E+03	1.282170E-16	5.635641E-18
4.540000E+03	1.285303E-16	5.596103E-18
4.550000E+03	1.289408E-16	5.557526E-18
4.560000E+03	1.294640E-16	5.520172E-18
4.570000E+03	1.301062E-16	5.483886E-18
4.580000E+03	1.309011E-16	5.449635E-18
4.590000E+03	1.318354E-16	5.416403E-18
4.600000E+03	1.329499E-16	5.385413E-18
4.610000E+03	1.342376E-16	5.355909E-18
4.620000E+03	1.357170E-16	5.328195E-18
4.630000E+03	1.373949E-16	5.302116E-18
4.640000E+03	1.392655E-16	5.277080E-18
4.650000E+03	1.413382E-16	5.253162E-18
4.660000E+03	1.435998E-16	5.229661E-18
4.670000E+03	1.460620E-16	5.206940E-18
4.680000E+03	1.486931E-16	5.183944E-18
4.690000E+03	1.514760E-16	5.160413E-18
4.700000E+03	1.544102E-16	5.136921E-18
4.710000E+03	1.574391E-16	5.112495E-18
4.720000E+03	1.605653E-16	5.088549E-18
4.730000E+03	1.637346E-16	5.065119E-18
4.740000E+03	1.669229E-16	5.043718E-18
4.750000E+03	1.700820E-16	5.025649E-18
4.760000E+03	1.731855E-16	5.013370E-18
4.770000E+03	1.761964E-16	5.009389E-18
4.780000E+03	1.790672E-16	5.016106E-18
4.790000E+03	1.817764E-16	5.036527E-18
4.800000E+03	1.842941E-16	5.072890E-18
4.810000E+03	1.865823E-16	5.126270E-18
4.820000E+03	1.886320E-16	5.197309E-18
4.830000E+03	1.904151E-16	5.284777E-18
4.840000E+03	1.919344E-16	5.387093E-18
4.850000E+03	1.931873E-16	5.501613E-18
4.860000E+03	1.941650E-16	5.624950E-18
4.870000E+03	1.948910E-16	5.754378E-18
4.880000E+03	1.953693E-16	5.886628E-18
4.890000E+03	1.956345E-16	6.019535E-18
4.900000E+03	1.957126E-16	6.151024E-18
4.910000E+03	1.956193E-16	6.279108E-18
4.920000E+03	1.953972E-16	6.403091E-18
4.930000E+03	1.950633E-16	6.521909E-18
4.940000E+03	1.946586E-16	6.635709E-18
4.950000E+03	1.941964E-16	6.744096E-18
4.960000E+03	1.937117E-16	6.847740E-18
4.970000E+03	1.932229E-16	6.947022E-18
4.980000E+03	1.927317E-16	7.041922E-18
4.990000E+03	1.922597E-16	7.133292E-18
5.000000E+03	1.917995E-16	7.221019E-18
5.010000E+03	1.913637E-16	7.305786E-18
5.020000E+03	1.909484E-16	7.387692E-18
5.030000E+03	1.905342E-16	7.466212E-18
5.040000E+03	1.901229E-16	7.541602E-18
5.050000E+03	1.896897E-16	7.613032E-18
5.060000E+03	1.892321E-16	7.680495E-18
5.070000E+03	1.887346E-16	7.743411E-18
5.080000E+03	1.881694E-16	7.800646E-18
5.090000E+03	1.875216E-16	7.851522E-18
5.100000E+03	1.867893E-16	7.895872E-18
5.110000E+03	1.859607E-16	7.933116E-18
5.120000E+03	1.850158E-16	7.962289E-18
5.130000E+03	1.839614E-16	7.983584E-18
5.140000E+03	1.827970E-16	7.996901E-18
5.150000E+03	1.815158E-16	8.001876E-18
5.160000E+03	1.801385E-16	7.999392E-18
5.170000E+03	1.786684E-16	7.989591E-18
5.180000E+03	1.771356E-16	7.973853E-18
5.190000E+03	1.755524E-16	7.952784E-18
5.200000E+03	1.739559E-16	7.928157E-18
5.210000E+03	1.723748E-16	7.901381E-18
5.220000E+03	1.708285E-16	7.873464E-18
5.230000E+03	1.693579E-16	7.846419E-18
5.240000E+03	1.679823E-16	7.821275E-18
5.250000E+03	1.667407E-16	7.799969E-18
5.260000E+03	1.656594E-16	7.783868E-18
5.270000E+03	1.647522E-16	7.773756E-18
5.280000E+03	1.640508E-16	7.771248E-18
5.290000E+03	1.635640E-16	7.776884E-18
5.300000E+03	1.633175E-16	7.792028E-18
5.310000E+03	1.633248E-16	7.817451E-18
5.320000E+03	1.635864E-16	7.853333E-18
5.330000E+03	1.641206E-16	7.900696E-18
5.340000E+03	1.649229E-16	7.959494E-18
5.350000E+03	1.660169E-16	8.031021E-18
5.360000E+03	1.673730E-16	8.114028E-18
5.370000E+03	1.690199E-16	8.210069E-18
5.380000E+03	1.709227E-16	8.317613E-18
5.390000E+03	1.731053E-16	8.437974E-18
5.400000E+03	1.755374E-16	8.569811E-18
5.410000E+03	1.782169E-16	8.713146E-18
5.420000E+03	1.811178E-16	8.866806E-18
5.430000E+03	1.842439E-16	9.031053E-18
5.440000E+03	1.875412E-16	9.203295E-18
5.450000E+03	1.910199E-16	9.384057E-18
5.460000E+03	1.946315E-16	9.570961E-18
5.470000E+03	1.983477E-16	9.762584E-18
5.480000E+03	2.021623E-16	9.958572E-18
5.490000E+03	2.060075E-16	1.015550E-17
5.500000E+03	2.098867E-16	1.035345E-17
5.510000E+03	2.137413E-16	1.054940E-17
5.520000E+03	2.175490E-16	1.074209E-17
5.530000E+03	2.212748E-16	1.092965E-17
5.540000E+03	2.248704E-16	1.110950E-17
5.550000E+03	2.283140E-16	1.128040E-17
5.560000E+03	2.315717E-16	1.144047E-17
5.570000E+03	2.345961E-16	1.158722E-17
5.580000E+03	2.373688E-16	1.171956E-17
5.590000E+03	2.398447E-16	1.183512E-17
5.600000E+03	2.420233E-16	1.193376E-17
5.610000E+03	2.438484E-16	1.201261E-17
5.620000E+03	2.452950E-16	1.207038E-17
5.630000E+03	2.463702E-16	1.210741E-17
5.640000E+03	2.470260E-16	1.212135E-17
5.650000E+03	2.472628E-16	1.211227E-17
5.660000E+03	2.470561E-16	1.207911E-17
5.670000E+03	2.464169E-16	1.202255E-17
5.680000E+03	2.453478E-16	1.194290E-17
5.690000E+03	2.438581E-16	1.184085E-17
5.700000E+03	2.419499E-16	1.171677E-17
5.710000E+03	2.396616E-16	1.157278E-17
5.720000E+03	2.370238E-16	1.141067E-17
5.730000E+03	2.340596E-16	1.123182E-17
5.740000E+03	2.308394E-16	1.103987E-17
5.750000E+03	2.273822E-16	1.083598E-17
5.760000E+03	2.237385E-16	1.062275E-17
5.770000E+03	2.199870E-16	1.040404E-17
5.780000E+03	2.161534E-16	1.018115E-17
5.790000E+03	2.123028E-16	9.957145E-18
5.800000E+03	2.084726E-16	9.733729E-18
5.810000E+03	2.047349E-16	9.514142E-18
5.820000E+03	2.011086E-16	9.299069E-18
5.830000E+03	1.976455E-16	9.090665E-18
5.840000E+03	1.943804E-16	8.890234E-18
5.850000E+03	1.913316E-16	8.698284E-18
5.860000E+03	1.885354E-16	8.516112E-18
5.870000E+03	1.860109E-16	8.344200E-18
5.880000E+03	1.837720E-16	8.182767E-18
5.890000E+03	1.818269E-16	8.031773E-18
5.900000E+03	1.801679E-16	7.890457E-18
5.910000E+03	1.788033E-16	7.758774E-18
5.920000E+03	1.777253E-16	7.635958E-18
5.930000E+03	1.769208E-16	7.521016E-18
5.940000E+03	1.763611E-16	7.412305E-18
5.950000E+03	1.760444E-16	7.309330E-18
5.960000E+03	1.759224E-16	7.209656E-18
5.970000E+03	1.759745E-16	7.112048E-18
5.980000E+03	1.761560E-16	7.014318E-18
5.990000E+03	1.764515E-16	6.915507E-18
6.000000E+03	1.768022E-16	6.812998E-18
6.010000E+03	1.771809E-16	6.705503E-18
6.020000E+03	1.775510E-16	6.591460E-18
6.030000E+03	1.778780E-16	6.469503E-18
6.040000E+03	1.781307E-16	6.338526E-18
6.050000E+03	1.782712E-16	6.197358E-18
6.060000E+03	1.782989E-16	6.046299E-18
6.070000E+03	1.781756E-16	5.884549E-18
6.080000E+03	1.779010E-16	5.712821E-18
6.090000E+03	1.774698E-16	5.531884E-18
6.100000E+03	1.768716E-16	5.342626E-18
6.110000E+03	1.761331E-16	5.147366E-18
6.120000E+03	1.752434E-16	4.947601E-18
6.130000E+03	1.742271E-16	4.746247E-18
6.140000E+03	1.731016E-16	4.546375E-18
6.150000E+03	1.718869E-16	4.351511E-18
6.160000E+03	1.706048E-16	4.165598E-18
6.170000E+03	1.692777E-16	3.992890E-18
6.180000E+03	1.679185E-16	3.837533E-18
6.190000E+03	1.665695E-16	3.704177E-18
6.200000E+03	1.652317E-16	3.595893E-18
6.210000E+03	1.639342E-16	3.515240E-18
6.220000E+03	1.626938E-16	3.462871E-18
6.230000E+03	1.615248E-16	3.437533E-18
6.240000E+03	1.604382E-16	3.436241E-18
6.250000E+03	1.594425E-16	3.454783E-18
6.260000E+03	1.585335E-16	3.488169E-18
6.270000E+03	1.577333E-16	3.532050E-18
6.280000E+03	1.570234E-16	3.581652E-18
6.290000E+03	1.564117E-16	3.633479E-18
6.300000E+03	1.558948E-16	3.684548E-18
6.310000E+03	1.554770E-16	3.732825E-18
6.320000E+03	1.551332E-16	3.776279E-18
6.330000E+03	1.548562E-16	3.813946E-18
6.340000E+03	1.546570E-16	3.845900E-18
6.350000E+03	1.545177E-16	3.872052E-18
6.360000E+03	1.544298E-16	3.893023E-18
6.370000E+03	1.543753E-16	3.909651E-18
6.380000E+03	1.543650E-16	3.923899E-18
6.390000E+03	1.543726E-16	3.937140E-18
6.400000E+03	1.544010E-16	3.951742E-18
6.410000E+03	1.544543E-16	3.970239E-18
6.420000E+03	1.545100E-16	3.994427E-18
6.430000E+03	1.545755E-16	4.026603E-18
6.440000E+03	1.546504E-16	4.068377E-18
6.450000E+03	1.547362E-16	4.120738E-18
6.460000E+03	1.548362E-16	4.183994E-18
6.470000E+03	1.549549E-16	4.257835E-18
6.480000E+03	1.550884E-16	4.341222E-18
6.490000E+03	1.552620E-16	4.433619E-18
6.500000E+03	1.554723E-16	4.533565E-18
6.510000E+03	1.557151E-16	4.639553E-18
6.520000E+03	1.560139E-16	4.750966E-18
6.530000E+03	1.563517E-16	4.866118E-18
6.540000E+03	1.567473E-16	4.984566E-18
6.550000E+03	1.571779E-16	5.104727E-18
6.560000E+03	1.576556E-16	5.226274E-18
6.570000E+03	1.581499E-16	5.347617E-18
6.580000E+03	1.586549E-16	5.468076E-18
6.590000E+03	1.591605E-16	5.586929E-18
6.600000E+03	1.596230E-16	5.702329E-18
6.610000E+03	1.600242E-16	5.813339E-18
6.620000E+03	1.603328E-16	5.918570E-18
6.630000E+03	1.605146E-16	6.016528E-18
6.640000E+03	1.605342E-16	6.105641E-18
6.650000E+03	1.603557E-16	6.184294E-18
6.660000E+03	1.599442E-16	6.250880E-18
6.670000E+03	1.592673E-16	6.303856E-18
6.680000E+03	1.582966E-16	6.341805E-18
6.690000E+03	1.570089E-16	6.363503E-18
6.700000E+03	1.553879E-16	6.367978E-18
6.710000E+03	1.534245E-16	6.354562E-18
6.720000E+03	1.511180E-16	6.322934E-18
6.730000E+03	1.484759E-16	6.273140E-18
6.740000E+03	1.455049E-16	6.205219E-18
6.750000E+03	1.422468E-16	6.120741E-18
6.760000E+03	1.387224E-16	6.020443E-18
6.770000E+03	1.349587E-16	5.905378E-18
6.780000E+03	1.310126E-16	5.777955E-18
6.790000E+03	1.269177E-16	5.639636E-18
6.800000E+03	1.227096E-16	5.492028E-18
6.810000E+03	1.184472E-16	5.337824E-18
6.820000E+03	1.141643E-16	5.178655E-18
6.830000E+03	1.098932E-16	5.016120E-18
6.840000E+03	1.056837E-16	4.852663E-18
6.850000E+03	1.015543E-16	4.689321E-18
6.860000E+03	9.754573E-17	4.528182E-18
6.870000E+03	9.366875E-17	4.369969E-18
6.880000E+03	8.995433E-17	4.216355E-18
6.890000E+03	8.640561E-17	4.067724E-18
6.900000E+03	8.304450E-17	3.925343E-18
6.910000E+03	7.986754E-17	3.789283E-18
6.920000E+03	7.688421E-17	3.660218E-18
6.930000E+03	7.410049E-17	3.538655E-18
6.940000E+03	7.150587E-17	3.424299E-18
6.950000E+03	6.910228E-17	3.317436E-18
6.960000E+03	6.688960E-17	3.218243E-18
6.970000E+03	6.485370E-17	3.126207E-18
6.980000E+03	6.299262E-17	3.041387E-18
6.990000E+03	6.129953E-17	2.963592E-18
7.000000E+03	5.976731E-17	2.892604E-18
7.010000E+03	5.838875E-17	2.828188E-18
7.020000E+03	5.715675E-17	2.770100E-18
7.030000E+03	5.606800E-17	2.718266E-18
7.040000E+03	5.510875E-17	2.672097E-18
7.050000E+03	5.427645E-17	2.631534E-18
7.060000E+03	5.356199E-17	2.596187E-18
7.070000E+03	5.296701E-17	2.566179E-18
7.080000E+03	5.248332E-17	2.541145E-18
7.090000E+03	5.210668E-17	2.520901E-18
7.100000E+03	5.183335E-17	2.505275E-18
7.110000E+03	5.166006E-17	2.494106E-18
7.120000E+03	5.158067E-17	2.487081E-18
7.130000E+03	5.159937E-17	2.484368E-18
7.140000E+03	5.171080E-17	2.485653E-18
7.150000E+03	5.190987E-17	2.490613E-18
7.160000E+03	5.220180E-17	2.499394E-18
7.170000E+03	5.257861E-17	2.511481E-18
7.180000E+03	5.304256E-17	2.526814E-18
7.190000E+03	5.359610E-17	2.545309E-18
7.200000E+03	5.423142E-17	2.566361E-18
7.210000E+03	5.495092E-17	2.589816E-18
7.220000E+03	5.575353E-17	2.615321E-18
7.230000E+03	5.664164E-17	2.642661E-18
7.240000E+03	5.760644E-17	2.671070E-18
7.250000E+03	5.864971E-17	2.700262E-18
7.260000E+03	5.976922E-17	2.729750E-18
7.270000E+03	6.095832E-17	2.758846E-18
7.280000E+03	6.222166E-17	2.787377E-18
7.290000E+03	6.355165E-17	2.814624E-18
7.300000E+03	6.493973E-17	2.839853E-18
7.310000E+03	6.638939E-17	2.862886E-18
7.320000E+03	6.788657E-17	2.882812E-18
7.330000E+03	6.943398E-17	2.899484E-18
7.340000E+03	7.101604E-17	2.912025E-18
7.350000E+03	7.263012E-17	2.920160E-18
7.360000E+03	7.426873E-17	2.923469E-18
7.370000E+03	7.592407E-17	2.921586E-18
7.380000E+03	7.758810E-17	2.914214E-18
7.390000E+03	7.925269E-17	2.901135E-18
7.400000E+03	8.090971E-17	2.882231E-18
7.410000E+03	8.254570E-17	2.857318E-18
7.420000E+03	8.416366E-17	2.826920E-18
7.430000E+03	8.574524E-17	2.790988E-18
7.440000E+03	8.729476E-17	2.750428E-18
7.450000E+03	8.879463E-17	2.705664E-18
7.460000E+03	9.024512E-17	2.657968E-18
7.470000E+03	9.164183E-17	2.608769E-18
7.480000E+03	9.298143E-17	2.559874E-18
7.490000E+03	9.426179E-17	2.513484E-18
7.500000E+03	9.547567E-17	2.472010E-18
7.510000E+03	9.663593E-17	2.438644E-18
7.520000E+03	9.773114E-17	2.416035E-18
7.530000E+03	9.876972E-17	2.407156E-18
7.540000E+03	9.975407E-17	2.414300E-18
7.550000E+03	1.006865E-16	2.438880E-18
7.560000E+03	1.015686E-16	2.481197E-18
7.570000E+03	1.024016E-16	2.540422E-18
7.580000E+03	1.031857E-16	2.614799E-18
7.590000E+03	1.039137E-16	2.701793E-18
7.600000E+03	1.045988E-16	2.799147E-18
7.610000E+03	1.052262E-16	2.903881E-18
7.620000E+03	1.058019E-16	3.013746E-18
7.630000E+03	1.063249E-16	3.126585E-18
7.640000E+03	1.067940E-16	3.240545E-18
7.650000E+03	1.072014E-16	3.353854E-18
7.660000E+03	1.075609E-16	3.465690E-18
7.670000E+03	1.078578E-16	3.574584E-18
7.680000E+03	1.080997E-16	3.679975E-18
7.690000E+03	1.082877E-16	3.781274E-18
7.700000E+03	1.084237E-16	3.878063E-18
7.710000E+03	1.085105E-16	3.970075E-18
7.720000E+03	1.085444E-16	4.056895E-18
7.730000E+03	1.085446E-16	4.139046E-18
7.740000E+03	1.085019E-16	4.216038E-18
7.750000E+03	1.084294E-16	4.288294E-18
7.760000E+03	1.083335E-16	4.356019E-18
