#wls	flux	fluxerr
1.600000E+03	8.924931E-18	8.175223E-18
1.640000E+03	8.982790E-18	8.132266E-18
1.680000E+03	9.045312E-18	8.089797E-18
1.720000E+03	9.112811E-18	8.047858E-18
1.760000E+03	9.184056E-18	8.005123E-18
1.800000E+03	9.262561E-18	7.964396E-18
1.840000E+03	9.347168E-18	7.924346E-18
1.880000E+03	9.438326E-18	7.885030E-18
1.920000E+03	9.538131E-18	7.847829E-18
1.960000E+03	9.645533E-18	7.811459E-18
2.000000E+03	9.761120E-18	7.775982E-18
2.040000E+03	9.885538E-18	7.741461E-18
2.080000E+03	1.002115E-17	7.709239E-18
2.120000E+03	1.016879E-17	7.679345E-18
2.160000E+03	1.032767E-17	7.650553E-18
2.200000E+03	1.049873E-17	7.622924E-18
2.240000E+03	1.068647E-17	7.598973E-18
2.280000E+03	1.088868E-17	7.576243E-18
2.320000E+03	1.110839E-17	7.555984E-18
2.360000E+03	1.134710E-17	7.538190E-18
2.400000E+03	1.160644E-17	7.522843E-18
2.440000E+03	1.188824E-17	7.509906E-18
2.480000E+03	1.219451E-17	7.499319E-18
2.520000E+03	1.252751E-17	7.490993E-18
2.560000E+03	1.289171E-17	7.485951E-18
2.600000E+03	1.328798E-17	7.482861E-18
2.640000E+03	1.371943E-17	7.481504E-18
2.680000E+03	1.419163E-17	7.482714E-18
2.720000E+03	1.470643E-17	7.485000E-18
2.760000E+03	1.527037E-17	7.489008E-18
2.800000E+03	1.588844E-17	7.494152E-18
2.840000E+03	1.656625E-17	7.499716E-18
2.880000E+03	1.730760E-17	7.503766E-18
2.920000E+03	1.812431E-17	7.507392E-18
2.960000E+03	1.901918E-17	7.507212E-18
3.000000E+03	2.000338E-17	7.502786E-18
3.010000E+03	2.026459E-17	7.500845E-18
3.020000E+03	2.053442E-17	7.499329E-18
3.030000E+03	2.080746E-17	7.496157E-18
3.040000E+03	2.108948E-17	7.493340E-18
3.050000E+03	2.137785E-17	7.489822E-18
3.060000E+03	2.167273E-17	7.485570E-18
3.070000E+03	2.197429E-17	7.480546E-18
3.080000E+03	2.228270E-17	7.474713E-18
3.090000E+03	2.260116E-17	7.469032E-18
3.100000E+03	2.292689E-17	7.462455E-18
3.110000E+03	2.326008E-17	7.454941E-18
3.120000E+03	2.360093E-17	7.446447E-18
3.130000E+03	2.395279E-17	7.437909E-18
3.140000E+03	2.430957E-17	7.427313E-18
3.150000E+03	2.467785E-17	7.416570E-18
3.160000E+03	2.505468E-17	7.404648E-18
3.170000E+03	2.544026E-17	7.391495E-18
3.180000E+03	2.583819E-17	7.378017E-18
3.190000E+03	2.624540E-17	7.363191E-18
3.200000E+03	2.665871E-17	7.346011E-18
3.210000E+03	2.708518E-17	7.328322E-18
3.220000E+03	2.752519E-17	7.310047E-18
3.230000E+03	2.797197E-17	7.289245E-18
3.240000E+03	2.843289E-17	7.267723E-18
3.250000E+03	2.890469E-17	7.244478E-18
3.260000E+03	2.938761E-17	7.219446E-18
3.270000E+03	2.988195E-17	7.192559E-18
3.280000E+03	3.039179E-17	7.164651E-18
3.290000E+03	3.090983E-17	7.133846E-18
3.300000E+03	3.144405E-17	7.101869E-18
3.310000E+03	3.199490E-17	7.068629E-18
3.320000E+03	3.255478E-17	7.032290E-18
3.330000E+03	3.312791E-17	6.993668E-18
3.340000E+03	3.371876E-17	6.953553E-18
3.350000E+03	3.432361E-17	6.911003E-18
3.360000E+03	3.494276E-17	6.865951E-18
3.370000E+03	3.558089E-17	6.819162E-18
3.380000E+03	3.622970E-17	6.768903E-18
3.390000E+03	3.689826E-17	6.716767E-18
3.400000E+03	3.758258E-17	6.661867E-18
3.410000E+03	3.828298E-17	6.604152E-18
3.420000E+03	3.900449E-17	6.544359E-18
3.430000E+03	3.973815E-17	6.480873E-18
3.440000E+03	4.049375E-17	6.415219E-18
3.450000E+03	4.126694E-17	6.346593E-18
3.460000E+03	4.205808E-17	6.274982E-18
3.470000E+03	4.287255E-17	6.201121E-18
3.480000E+03	4.370068E-17	6.123554E-18
3.490000E+03	4.455300E-17	6.043763E-18
3.500000E+03	4.542479E-17	5.961070E-18
3.510000E+03	4.631639E-17	5.875552E-18
3.520000E+03	4.722813E-17	5.787306E-18
3.530000E+03	4.816590E-17	5.697119E-18
3.540000E+03	4.912465E-17	5.604467E-18
3.550000E+03	5.010468E-17	5.509546E-18
3.560000E+03	5.110632E-17	5.412592E-18
3.570000E+03	5.212985E-17	5.313882E-18
3.580000E+03	5.318158E-17	5.214336E-18
3.590000E+03	5.424986E-17	5.113141E-18
3.600000E+03	5.534707E-17	5.011902E-18
3.610000E+03	5.646744E-17	4.910529E-18
3.620000E+03	5.761122E-17	4.809588E-18
3.626426E+03	4.863162E-17	9.398404E-18
3.627611E+03	4.858588E-17	9.397017E-18
3.628796E+03	4.866174E-17	9.398272E-18
3.629981E+03	4.888554E-17	9.402749E-18
3.632351E+03	4.904030E-17	9.405331E-18
3.633536E+03	4.903408E-17	9.404797E-18
3.634721E+03	4.908664E-17	9.405545E-18
3.635906E+03	4.919898E-17	9.407600E-18
3.637091E+03	4.919885E-17	9.407196E-18
3.638276E+03	4.924939E-17	9.407900E-18
3.639461E+03	4.945900E-17	9.412085E-18
3.640646E+03	4.976082E-17	9.418309E-18
3.641831E+03	5.008392E-17	9.425032E-18
3.643016E+03	5.054483E-17	9.434855E-18
3.644201E+03	5.106753E-17	9.446136E-18
3.645386E+03	5.166319E-17	9.459162E-18
3.646571E+03	5.222846E-17	9.471610E-18
3.647756E+03	5.268935E-17	9.481755E-18
3.648941E+03	5.316545E-17	9.492320E-18
3.650126E+03	5.357163E-17	9.501322E-18
3.651311E+03	5.392714E-17	9.509184E-18
3.652497E+03	5.424011E-17	9.516078E-18
3.653682E+03	5.459765E-17	9.508800E-18
3.654867E+03	5.479815E-17	9.401753E-18
3.656052E+03	5.502194E-17	9.382442E-18
3.658422E+03	5.530540E-17	9.373040E-18
3.659607E+03	5.555757E-17	9.398368E-18
3.660792E+03	5.581886E-17	9.703591E-18
3.661977E+03	5.621694E-17	1.013287E-17
3.663162E+03	5.651876E-17	1.042032E-17
3.664347E+03	5.668582E-17	1.057719E-17
3.665532E+03	5.683971E-17	1.070436E-17
3.666717E+03	5.705946E-17	1.053830E-17
3.667902E+03	5.725996E-17	1.044678E-17
3.669087E+03	5.752531E-17	1.038384E-17
3.670272E+03	5.776532E-17	1.037574E-17
3.671457E+03	5.805701E-17	1.020511E-17
3.672642E+03	5.832742E-17	9.985970E-18
3.673827E+03	5.855123E-17	9.809673E-18
3.675012E+03	5.873755E-17	9.549474E-18
3.676197E+03	5.897757E-17	9.650487E-18
3.677382E+03	5.919834E-17	9.644263E-18
3.678567E+03	5.940797E-17	9.463705E-18
3.679752E+03	5.966926E-17	9.621090E-18
3.680937E+03	5.998527E-17	9.602493E-18
3.682122E+03	6.027596E-17	9.624834E-18
3.683307E+03	6.050686E-17	9.709029E-18
3.684492E+03	6.065671E-17	9.611130E-18
3.685677E+03	6.083291E-17	9.880496E-18
3.686862E+03	6.099289E-17	9.893338E-18
3.688047E+03	6.123799E-17	1.001395E-17
3.689233E+03	6.160365E-17	9.967001E-18
3.690418E+03	6.207063E-17	1.041662E-17
3.691602E+03	6.252342E-17	1.084348E-17
3.692788E+03	6.300155E-17	1.094674E-17
3.693973E+03	6.359010E-17	1.132533E-17
3.695158E+03	6.425972E-17	1.130978E-17
3.696343E+03	6.503064E-17	1.105857E-17
3.697528E+03	6.585831E-17	1.082672E-17
3.698713E+03	6.676094E-17	1.087875E-17
3.699898E+03	6.755011E-17	1.112863E-17
3.701083E+03	6.828051E-17	1.239966E-17
3.702268E+03	6.895721E-17	1.370474E-17
3.703453E+03	6.960960E-17	1.421637E-17
3.704638E+03	7.026199E-17	1.436159E-17
3.705823E+03	7.089513E-17	1.467030E-17
3.707008E+03	7.148369E-17	1.473616E-17
3.708193E+03	7.201956E-17	1.474029E-17
3.709378E+03	7.252505E-17	1.476603E-17
3.710563E+03	7.297582E-17	1.496217E-17
3.711748E+03	7.344281E-17	1.494282E-17
3.712933E+03	7.389055E-17	1.486735E-17
3.714118E+03	7.436767E-17	1.525558E-17
3.715303E+03	7.473841E-17	1.554870E-17
3.716488E+03	7.503317E-17	1.560592E-17
3.717673E+03	7.534819E-17	1.563554E-17
3.718858E+03	7.566119E-17	1.560819E-17
3.720043E+03	7.597013E-17	1.551527E-17
3.721228E+03	7.628820E-17	1.569826E-17
3.722413E+03	7.659715E-17	1.624841E-17
3.723598E+03	7.685645E-17	1.680976E-17
3.724783E+03	7.707119E-17	1.714227E-17
3.725968E+03	7.723020E-17	1.756086E-17
3.727153E+03	7.741960E-17	1.787050E-17
3.728338E+03	7.769107E-17	1.805014E-17
3.729523E+03	7.790176E-17	1.808346E-17
3.730709E+03	7.803039E-17	1.835934E-17
3.731894E+03	7.814078E-17	1.835288E-17
3.733079E+03	7.824914E-17	1.839813E-17
3.734264E+03	7.831901E-17	1.843590E-17
3.735449E+03	7.845372E-17	1.834101E-17
3.736634E+03	7.865935E-17	1.841326E-17
3.737819E+03	7.874240E-17	1.875407E-17
3.739004E+03	7.877581E-17	1.897317E-17
3.740189E+03	7.875349E-17	1.880801E-17
3.741374E+03	7.868255E-17	1.859231E-17
3.742559E+03	7.845559E-17	1.851478E-17
3.743744E+03	7.830765E-17	1.823452E-17
3.744929E+03	7.814047E-17	1.800000E-17
3.746114E+03	7.794998E-17	1.802650E-17
3.747299E+03	7.775545E-17	1.813983E-17
3.748484E+03	7.769060E-17	1.815973E-17
3.749669E+03	7.768451E-17	1.803810E-17
3.750854E+03	7.762473E-17	1.723488E-17
3.752039E+03	7.758319E-17	1.615932E-17
3.753224E+03	7.763790E-17	1.564061E-17
3.754409E+03	7.757103E-17	1.548852E-17
3.755594E+03	7.738766E-17	1.509021E-17
3.756779E+03	7.735930E-17	1.492403E-17
3.757964E+03	7.731777E-17	1.499742E-17
3.759149E+03	7.701789E-17	1.520702E-17
3.760334E+03	7.664710E-17	1.543508E-17
3.761519E+03	7.628441E-17	1.588425E-17
3.762704E+03	7.589843E-17	1.678633E-17
3.763889E+03	7.551245E-17	1.703898E-17
3.765074E+03	7.530883E-17	1.701066E-17
3.766259E+03	7.521058E-17	1.718490E-17
3.767445E+03	7.528557E-17	1.769227E-17
3.768630E+03	7.540008E-17	1.825321E-17
3.769814E+03	7.561388E-17	1.859908E-17
3.770999E+03	7.577500E-17	1.869625E-17
3.772185E+03	7.599286E-17	1.841697E-17
3.773370E+03	7.616715E-17	1.805523E-17
3.774555E+03	7.626749E-17	1.794591E-17
3.775740E+03	7.630603E-17	1.762471E-17
3.776925E+03	7.639118E-17	1.737592E-17
3.778110E+03	7.657055E-17	1.717190E-17
3.779295E+03	7.689176E-17	1.701437E-17
3.780480E+03	7.733961E-17	1.671847E-17
3.781665E+03	7.779861E-17	1.670473E-17
3.782850E+03	7.818974E-17	1.665492E-17
3.784035E+03	7.857175E-17	1.647814E-17
3.785220E+03	7.873087E-17	1.633340E-17
3.786405E+03	7.879172E-17	1.614739E-17
3.787590E+03	7.890425E-17	1.543665E-17
3.788775E+03	7.911404E-17	1.497568E-17
3.789960E+03	7.934915E-17	1.490416E-17
3.791145E+03	7.967445E-17	1.482023E-17
3.792330E+03	8.013044E-17	1.463131E-17
3.793515E+03	8.057934E-17	1.448759E-17
3.794700E+03	8.094719E-17	1.420299E-17
3.795885E+03	8.129782E-17	1.400809E-17
3.797070E+03	8.170418E-17	1.371698E-17
3.798255E+03	8.211561E-17	1.353636E-17
3.799440E+03	8.250272E-17	1.347220E-17
3.800625E+03	8.297596E-17	1.347960E-17
3.801810E+03	8.342286E-17	1.341242E-17
3.802995E+03	8.381404E-17	1.344424E-17
3.804180E+03	8.414544E-17	1.372213E-17
3.805365E+03	8.458222E-17	1.392495E-17
3.806550E+03	8.501495E-17	1.415049E-17
3.807735E+03	8.559053E-17	1.434932E-17
3.808921E+03	8.631709E-17	1.447329E-17
3.810106E+03	8.700109E-17	1.416338E-17
3.811291E+03	8.760607E-17	1.370518E-17
3.812476E+03	8.826881E-17	1.294308E-17
3.813661E+03	8.876945E-17	1.231366E-17
3.814846E+03	8.905023E-17	1.193098E-17
3.816031E+03	8.934824E-17	1.177283E-17
3.817216E+03	8.962497E-17	1.153188E-17
3.818401E+03	8.977406E-17	1.055142E-17
3.819586E+03	8.984107E-17	9.827531E-18
3.820771E+03	8.999827E-17	9.437854E-18
3.821956E+03	9.019599E-17	9.545620E-18
3.823141E+03	9.049909E-17	9.913409E-18
3.824326E+03	9.082954E-17	9.878790E-18
3.825511E+03	9.136872E-17	9.920802E-18
3.826696E+03	9.200618E-17	9.948572E-18
3.827881E+03	9.258285E-17	9.961595E-18
3.829066E+03	9.306632E-17	9.967725E-18
3.830251E+03	9.370987E-17	9.990044E-18
3.831436E+03	9.435951E-17	1.002203E-17
3.832621E+03	9.489973E-17	1.004144E-17
3.833806E+03	9.552203E-17	1.006211E-17
3.834991E+03	9.633683E-17	1.006518E-17
3.836176E+03	9.713442E-17	1.023814E-17
3.837361E+03	9.788541E-17	1.059040E-17
3.838546E+03	9.881270E-17	1.114634E-17
3.839731E+03	9.976533E-17	1.162671E-17
3.840916E+03	1.006501E-16	1.198656E-17
3.842101E+03	1.015136E-16	1.210003E-17
3.843286E+03	1.024156E-16	1.211093E-17
3.844471E+03	1.032264E-16	1.211400E-17
3.845657E+03	1.039561E-16	1.216153E-17
3.846841E+03	1.045542E-16	1.225700E-17
3.848026E+03	1.050712E-16	1.229700E-17
3.849211E+03	1.056084E-16	1.235497E-17
3.850397E+03	1.060241E-16	1.253784E-17
3.851582E+03	1.064499E-16	1.270669E-17
3.852767E+03	1.069061E-16	1.282428E-17
3.853952E+03	1.073928E-16	1.279405E-17
3.855137E+03	1.077983E-16	1.273099E-17
3.856322E+03	1.083458E-16	1.270044E-17
3.857507E+03	1.087818E-16	1.267009E-17
3.858692E+03	1.091164E-16	1.260126E-17
3.859877E+03	1.093396E-16	1.260862E-17
3.861062E+03	1.094615E-16	1.257912E-17
3.862247E+03	1.094010E-16	1.244139E-17
3.863432E+03	1.094216E-16	1.206944E-17
3.864617E+03	1.095638E-16	1.158744E-17
3.865802E+03	1.097465E-16	1.102379E-17
3.866987E+03	1.098481E-16	1.003280E-17
3.868172E+03	1.098991E-16	9.753026E-18
3.869357E+03	1.098285E-16	9.835165E-18
3.870542E+03	1.096870E-16	9.973571E-18
3.871727E+03	1.094644E-16	9.941611E-18
3.872912E+03	1.092519E-16	9.828990E-18
3.874097E+03	1.091104E-16	9.847251E-18
3.875282E+03	1.089892E-16	9.839690E-18
3.876467E+03	1.087565E-16	9.829921E-18
3.877652E+03	1.084832E-16	9.736028E-18
3.878837E+03	1.081593E-16	9.679455E-18
3.880022E+03	1.076936E-16	9.640326E-18
3.881207E+03	1.071265E-16	9.663664E-18
3.882392E+03	1.065999E-16	9.704170E-18
3.883577E+03	1.061645E-16	9.717750E-18
3.884762E+03	1.058812E-16	1.002599E-17
3.885948E+03	1.056789E-16	1.002859E-17
3.887133E+03	1.056590E-16	9.945392E-18
3.888318E+03	1.056897E-16	9.635105E-18
3.889503E+03	1.056699E-16	9.341391E-18
3.890688E+03	1.056297E-16	9.019777E-18
3.891873E+03	1.056807E-16	8.961296E-18
3.893058E+03	1.056913E-16	8.998045E-18
3.894243E+03	1.056106E-16	9.041462E-18
3.895428E+03	1.054995E-16	9.017299E-18
3.896613E+03	1.053378E-16	8.924286E-18
3.897798E+03	1.051254E-16	8.886987E-18
3.898983E+03	1.048015E-16	8.820968E-18
3.900168E+03	1.045485E-16	8.605820E-18
3.901353E+03	1.043361E-16	8.485475E-18
3.902538E+03	1.041035E-16	8.512743E-18
3.903723E+03	1.037999E-16	8.563989E-18
3.904908E+03	1.034760E-16	8.792873E-18
3.906093E+03	1.031521E-16	8.815449E-18
3.907278E+03	1.027979E-16	8.762797E-18
3.908463E+03	1.024436E-16	8.740372E-18
3.909648E+03	1.021096E-16	8.710256E-18
3.910833E+03	1.017959E-16	8.676819E-18
3.912018E+03	1.014213E-16	8.501952E-18
3.913203E+03	1.010316E-16	8.397558E-18
3.914388E+03	1.005567E-16	8.407910E-18
3.915573E+03	1.001478E-16	8.501481E-18
3.916758E+03	9.980261E-17	8.593753E-18
3.917943E+03	9.941794E-17	8.644319E-18
3.919128E+03	9.900591E-17	8.589043E-18
3.920313E+03	9.856247E-17	8.489131E-18
3.921498E+03	9.813220E-17	8.470387E-18
3.922683E+03	9.771408E-17	8.451823E-18
3.923868E+03	9.735881E-17	8.431218E-18
3.925053E+03	9.709575E-17	8.404357E-18
3.926238E+03	9.699891E-17	8.386155E-18
3.927423E+03	9.680680E-17	8.390708E-18
3.928609E+03	9.645760E-17	8.377889E-18
3.929794E+03	9.608814E-17	8.373531E-18
3.930979E+03	9.563962E-17	8.396951E-18
3.932164E+03	9.512422E-17	8.426787E-18
3.933349E+03	9.464834E-17	8.374486E-18
3.934534E+03	9.426975E-17	8.102192E-18
3.935719E+03	9.390535E-17	8.039692E-18
3.936904E+03	9.347710E-17	8.022598E-18
3.938089E+03	9.299412E-17	7.997900E-18
3.939274E+03	9.246452E-17	7.877304E-18
3.940459E+03	9.189539E-17	7.825619E-18
3.941644E+03	9.117017E-17	7.682598E-18
3.942829E+03	9.047434E-17	7.682093E-18
3.944014E+03	8.980790E-17	7.629647E-18
3.945199E+03	8.912119E-17	7.604306E-18
3.946384E+03	8.844055E-17	7.576861E-18
3.947569E+03	8.778221E-17	7.558726E-18
3.948754E+03	8.705393E-17	7.594273E-18
3.949939E+03	8.630942E-17	7.817197E-18
3.951124E+03	8.558823E-17	7.984823E-18
3.952309E+03	8.477783E-17	7.960481E-18
3.953494E+03	8.403230E-17	7.883931E-18
3.954679E+03	8.318844E-17	7.596578E-18
3.955864E+03	8.239222E-17	7.479136E-18
3.957049E+03	8.150781E-17	7.650555E-18
3.958234E+03	8.058691E-17	7.763310E-18
3.959419E+03	7.971160E-17	7.870462E-18
3.960604E+03	7.907855E-17	7.967893E-18
3.961789E+03	7.848603E-17	8.018429E-18
3.962974E+03	7.799487E-17	7.986903E-18
3.964160E+03	7.757973E-17	7.936938E-18
3.965345E+03	7.720007E-17	7.819434E-18
3.966530E+03	7.684574E-17	7.698842E-18
3.967715E+03	7.642452E-17	7.607723E-18
3.968900E+03	7.601545E-17	7.606687E-18
3.970085E+03	7.561449E-17	7.739025E-18
3.971270E+03	7.519225E-17	7.858594E-18
3.972455E+03	7.471425E-17	7.905036E-18
3.973640E+03	7.432443E-17	7.907667E-18
3.974825E+03	7.395996E-17	7.897575E-18
3.976010E+03	7.364921E-17	7.827844E-18
3.977195E+03	7.344084E-17	7.818814E-18
3.978380E+03	7.327099E-17	7.811518E-18
3.979565E+03	7.294605E-17	7.818027E-18
3.980750E+03	7.250756E-17	7.745641E-18
3.981935E+03	7.211977E-17	7.595867E-18
3.983120E+03	7.176846E-17	7.517353E-18
3.984305E+03	7.142931E-17	7.452672E-18
3.985490E+03	7.129799E-17	7.444587E-18
3.986675E+03	7.137650E-17	7.355365E-18
3.987860E+03	7.153004E-17	7.290870E-18
3.989045E+03	7.166026E-17	7.305660E-18
3.990230E+03	7.183307E-17	7.350073E-18
3.991415E+03	7.208597E-17	7.348620E-18
3.992600E+03	7.239767E-17	7.299262E-18
3.993785E+03	7.266883E-17	7.347889E-18
3.994970E+03	7.293696E-17	7.490205E-18
3.996155E+03	7.328315E-17	7.810735E-18
3.997340E+03	7.360806E-17	8.008271E-18
3.998525E+03	7.394413E-17	8.061345E-18
3.999710E+03	7.439173E-17	7.784341E-18
4.000895E+03	7.492146E-17	7.318647E-18
4.002080E+03	7.544308E-17	7.227040E-18
4.003265E+03	7.594343E-17	7.105992E-18
4.004450E+03	7.646102E-17	7.118071E-18
4.005635E+03	7.698369E-17	7.173103E-18
4.006821E+03	7.749724E-17	7.108794E-18
4.008006E+03	7.798749E-17	7.143828E-18
4.009191E+03	7.841995E-17	7.111891E-18
4.010376E+03	7.887575E-17	7.083008E-18
4.011561E+03	7.932040E-17	7.148503E-18
4.012746E+03	7.974579E-17	7.371278E-18
4.013931E+03	8.019046E-17	7.771590E-18
4.015116E+03	8.069293E-17	8.281694E-18
4.016301E+03	8.121164E-17	8.943628E-18
4.017486E+03	8.176077E-17	9.511914E-18
4.018671E+03	8.236467E-17	9.827885E-18
4.019856E+03	8.302231E-17	9.950426E-18
4.021041E+03	8.376109E-17	9.940844E-18
4.022226E+03	8.450089E-17	9.915018E-18
4.023411E+03	8.527519E-17	9.930665E-18
4.024596E+03	8.608093E-17	9.948118E-18
4.025781E+03	8.695057E-17	9.973320E-18
4.026966E+03	8.786889E-17	9.982449E-18
4.028151E+03	8.880853E-17	1.000094E-17
4.029336E+03	8.980497E-17	1.003463E-17
4.030521E+03	9.078622E-17	1.008855E-17
4.031706E+03	9.171780E-17	1.012237E-17
4.032891E+03	9.262709E-17	1.019740E-17
4.034076E+03	9.351916E-17	1.028679E-17
4.035261E+03	9.441226E-17	1.037975E-17
4.036446E+03	9.532363E-17	1.040493E-17
4.037631E+03	9.628268E-17	1.043001E-17
4.038816E+03	9.726507E-17	1.045466E-17
4.040001E+03	9.823532E-17	1.045658E-17
4.041186E+03	9.919139E-17	1.044983E-17
4.042372E+03	1.001444E-16	1.047769E-17
4.043557E+03	1.010285E-16	1.046527E-17
4.044742E+03	1.018974E-16	1.045308E-17
4.045927E+03	1.027907E-16	1.019551E-17
4.047112E+03	1.036637E-16	9.913850E-18
4.048297E+03	1.045875E-16	9.689088E-18
4.049482E+03	1.055112E-16	9.528310E-18
4.050667E+03	1.065364E-16	9.585880E-18
4.051852E+03	1.074906E-16	9.661329E-18
4.053037E+03	1.083637E-16	9.680382E-18
4.054222E+03	1.092165E-16	9.712107E-18
4.055407E+03	1.100491E-16	9.841573E-18
4.056592E+03	1.108107E-16	1.008297E-17
4.057777E+03	1.116636E-16	1.023860E-17
4.058962E+03	1.125875E-16	1.070372E-17
4.060147E+03	1.135013E-16	1.131820E-17
4.061332E+03	1.145064E-16	1.169521E-17
4.062517E+03	1.155115E-16	1.178394E-17
4.063702E+03	1.164051E-16	1.168171E-17
4.064887E+03	1.172480E-16	1.148925E-17
4.066072E+03	1.181010E-16	1.106655E-17
4.067257E+03	1.188526E-16	1.060848E-17
4.068442E+03	1.196753E-16	1.039495E-17
4.069627E+03	1.205791E-16	1.029295E-17
4.070812E+03	1.214829E-16	1.031974E-17
4.071997E+03	1.222752E-16	1.039304E-17
4.073182E+03	1.230472E-16	1.044037E-17
4.074367E+03	1.235859E-16	1.047251E-17
4.075552E+03	1.240030E-16	1.052622E-17
4.076737E+03	1.244200E-16	1.057458E-17
4.077922E+03	1.248168E-16	1.065160E-17
4.079107E+03	1.252034E-16	1.065751E-17
4.080292E+03	1.256915E-16	1.069699E-17
4.081477E+03	1.262303E-16	1.076940E-17
4.082662E+03	1.267387E-16	1.083242E-17
4.083847E+03	1.272472E-16	1.082868E-17
4.085033E+03	1.277759E-16	1.082699E-17
4.086218E+03	1.282640E-16	1.084354E-17
4.087403E+03	1.286203E-16	1.085401E-17
4.088588E+03	1.289158E-16	1.092829E-17
4.089773E+03	1.292620E-16	1.100597E-17
4.090958E+03	1.295270E-16	1.108054E-17
4.092143E+03	1.297819E-16	1.101741E-17
4.093328E+03	1.301788E-16	1.093445E-17
4.094513E+03	1.306062E-16	1.070880E-17
4.095698E+03	1.309423E-16	1.056554E-17
4.096883E+03	1.313089E-16	1.055986E-17
4.098068E+03	1.316146E-16	1.057288E-17
4.099253E+03	1.319405E-16	1.057663E-17
4.100438E+03	1.322462E-16	1.057889E-17
4.101623E+03	1.325317E-16	1.057056E-17
4.102808E+03	1.327968E-16	1.056370E-17
4.103993E+03	1.330823E-16	1.053610E-17
4.105178E+03	1.332764E-16	1.051674E-17
4.106363E+03	1.333894E-16	1.039338E-17
4.107548E+03	1.335227E-16	1.021320E-17
4.108733E+03	1.336661E-16	9.812269E-18
4.109918E+03	1.337893E-16	9.224862E-18
4.111103E+03	1.338719E-16	8.811026E-18
4.112288E+03	1.339748E-16	8.650706E-18
4.113473E+03	1.341081E-16	8.577739E-18
4.114658E+03	1.342313E-16	8.477494E-18
4.115843E+03	1.343849E-16	8.428955E-18
4.117028E+03	1.346299E-16	8.468427E-18
4.118213E+03	1.349358E-16	8.484321E-18
