#wls	flux	fluxerr
1.600000E+03	7.919852E-18	7.265931E-18
1.640000E+03	7.975156E-18	7.231352E-18
1.680000E+03	8.035211E-18	7.197646E-18
1.720000E+03	8.100340E-18	7.164865E-18
1.760000E+03	8.170895E-18	7.133063E-18
1.800000E+03	8.247259E-18	7.102298E-18
1.840000E+03	8.329852E-18	7.072631E-18
1.880000E+03	8.417700E-18	7.042928E-18
1.920000E+03	8.514158E-18	7.015661E-18
1.960000E+03	8.618353E-18	6.989694E-18
2.000000E+03	8.730887E-18	6.965096E-18
2.040000E+03	8.853901E-18	6.943105E-18
2.080000E+03	8.985170E-18	6.921460E-18
2.120000E+03	9.128472E-18	6.902553E-18
2.160000E+03	9.283202E-18	6.885293E-18
2.200000E+03	9.451879E-18	6.870883E-18
2.240000E+03	9.632485E-18	6.857124E-18
2.280000E+03	9.830922E-18	6.847443E-18
2.320000E+03	1.004539E-17	6.839640E-18
2.360000E+03	1.027734E-17	6.833763E-18
2.400000E+03	1.053173E-17	6.832030E-18
2.440000E+03	1.080539E-17	6.831166E-18
2.480000E+03	1.110543E-17	6.834426E-18
2.520000E+03	1.143069E-17	6.839606E-18
2.560000E+03	1.178730E-17	6.848781E-18
2.600000E+03	1.217449E-17	6.859709E-18
2.640000E+03	1.259723E-17	6.873308E-18
2.680000E+03	1.305910E-17	6.889371E-18
2.720000E+03	1.356405E-17	6.907629E-18
2.760000E+03	1.411654E-17	6.927731E-18
2.800000E+03	1.472152E-17	6.949233E-18
2.840000E+03	1.538679E-17	6.972604E-18
2.880000E+03	1.611645E-17	6.996119E-18
2.920000E+03	1.691745E-17	7.018935E-18
2.960000E+03	1.779751E-17	7.040025E-18
3.000000E+03	1.876527E-17	7.058155E-18
3.010000E+03	1.902386E-17	7.062744E-18
3.020000E+03	1.928839E-17	7.066904E-18
3.030000E+03	1.955626E-17	7.069617E-18
3.040000E+03	1.983310E-17	7.072844E-18
3.050000E+03	2.011916E-17	7.076551E-18
3.060000E+03	2.040902E-17	7.078728E-18
3.070000E+03	2.070562E-17	7.080337E-18
3.080000E+03	2.101206E-17	7.082329E-18
3.090000E+03	2.132271E-17	7.082703E-18
3.100000E+03	2.164364E-17	7.083389E-18
3.110000E+03	2.197210E-17	7.083369E-18
3.120000E+03	2.231137E-17	7.083579E-18
3.130000E+03	2.265554E-17	7.082035E-18
3.140000E+03	2.300785E-17	7.079673E-18
3.150000E+03	2.337168E-17	7.077417E-18
3.160000E+03	2.374414E-17	7.074258E-18
3.170000E+03	2.412546E-17	7.070153E-18
3.180000E+03	2.451586E-17	7.065059E-18
3.190000E+03	2.491556E-17	7.058932E-18
3.200000E+03	2.532480E-17	7.051728E-18
3.210000E+03	2.574726E-17	7.044345E-18
3.220000E+03	2.617633E-17	7.034844E-18
3.230000E+03	2.661921E-17	7.025064E-18
3.240000E+03	2.707270E-17	7.014012E-18
3.250000E+03	2.753706E-17	7.001640E-18
3.260000E+03	2.801625E-17	6.988824E-18
3.270000E+03	2.850319E-17	6.973664E-18
3.280000E+03	2.900561E-17	6.957955E-18
3.290000E+03	2.951623E-17	6.939816E-18
3.300000E+03	3.004299E-17	6.921025E-18
3.310000E+03	3.058238E-17	6.900621E-18
3.320000E+03	3.113469E-17	6.878561E-18
3.330000E+03	3.170431E-17	6.855692E-18
3.340000E+03	3.228340E-17	6.830193E-18
3.350000E+03	3.288053E-17	6.803797E-18
3.360000E+03	3.349190E-17	6.775584E-18
3.370000E+03	3.411347E-17	6.744662E-18
3.380000E+03	3.475419E-17	6.712742E-18
3.390000E+03	3.541460E-17	6.679787E-18
3.400000E+03	3.608607E-17	6.644080E-18
3.410000E+03	3.677799E-17	6.607311E-18
3.420000E+03	3.748146E-17	6.567808E-18
3.430000E+03	3.820618E-17	6.527253E-18
3.440000E+03	3.894780E-17	6.484838E-18
3.450000E+03	3.970665E-17	6.440604E-18
3.460000E+03	4.048304E-17	6.394607E-18
3.470000E+03	4.127727E-17	6.346919E-18
3.480000E+03	4.209487E-17	6.298409E-18
3.490000E+03	4.293109E-17	6.248388E-18
3.500000E+03	4.378083E-17	6.196223E-18
3.510000E+03	4.465507E-17	6.143599E-18
3.520000E+03	4.554877E-17	6.089919E-18
3.530000E+03	4.646219E-17	6.035385E-18
3.540000E+03	4.740133E-17	5.980950E-18
3.550000E+03	4.835496E-17	5.925403E-18
3.560000E+03	4.933489E-17	5.870468E-18
3.570000E+03	5.032946E-17	5.815021E-18
3.580000E+03	5.135079E-17	5.760798E-18
3.590000E+03	5.239297E-17	5.707436E-18
3.600000E+03	5.345599E-17	5.655296E-18
3.610000E+03	5.453977E-17	5.604746E-18
3.620000E+03	5.564413E-17	5.556157E-18
3.630000E+03	5.677549E-17	5.510542E-18
3.640000E+03	5.792014E-17	5.466938E-18
3.650000E+03	5.909108E-17	5.426960E-18
3.660000E+03	6.028093E-17	5.390244E-18
3.670000E+03	6.148884E-17	5.357032E-18
3.680000E+03	6.271380E-17	5.327521E-18
3.690000E+03	6.395465E-17	5.301852E-18
3.700000E+03	6.521004E-17	5.280113E-18
3.710000E+03	6.647848E-17	5.262338E-18
3.720000E+03	6.775831E-17	5.248509E-18
3.730000E+03	6.905564E-17	5.239161E-18
3.740000E+03	7.036088E-17	5.233587E-18
3.750000E+03	7.166383E-17	5.231058E-18
3.760000E+03	7.297854E-17	5.232610E-18
3.770000E+03	7.429480E-17	5.237475E-18
3.780000E+03	7.561035E-17	5.245477E-18
3.790000E+03	7.692296E-17	5.256442E-18
3.800000E+03	7.823044E-17	5.270203E-18
3.810000E+03	7.953067E-17	5.286608E-18
3.820000E+03	8.083070E-17	5.306109E-18
3.830000E+03	8.211090E-17	5.327405E-18
3.840000E+03	8.337867E-17	5.350983E-18
3.850000E+03	8.464223E-17	5.377348E-18
3.860000E+03	8.588229E-17	5.405238E-18
3.870000E+03	8.711734E-17	5.435772E-18
3.880000E+03	8.833827E-17	5.468293E-18
3.890000E+03	8.954576E-17	5.502735E-18
3.900000E+03	9.073111E-17	5.538422E-18
3.910000E+03	9.191550E-17	5.576472E-18
3.920000E+03	9.309107E-17	5.616185E-18
3.930000E+03	9.425991E-17	5.657441E-18
3.940000E+03	9.542418E-17	5.700098E-18
3.950000E+03	9.658592E-17	5.743990E-18
3.960000E+03	9.775733E-17	5.789542E-18
3.970000E+03	9.891900E-17	5.835303E-18
3.980000E+03	1.000820E-16	5.881642E-18
3.990000E+03	1.012463E-16	5.928288E-18
4.000000E+03	1.024110E-16	5.974950E-18
4.010000E+03	1.035853E-16	6.021947E-18
4.020000E+03	1.047449E-16	6.067693E-18
4.030000E+03	1.058968E-16	6.112482E-18
4.040000E+03	1.070478E-16	6.156618E-18
4.050000E+03	1.081707E-16	6.198487E-18
4.060000E+03	1.092706E-16	6.238402E-18
4.070000E+03	1.103530E-16	6.276701E-18
4.080000E+03	1.113890E-16	6.311803E-18
4.090000E+03	1.123951E-16	6.344740E-18
4.100000E+03	1.133427E-16	6.373983E-18
4.110000E+03	1.142379E-16	6.399985E-18
4.120000E+03	1.150880E-16	6.423244E-18
4.130000E+03	1.158662E-16	6.442345E-18
4.140000E+03	1.165816E-16	6.457872E-18
4.150000E+03	1.172452E-16	6.470462E-18
4.160000E+03	1.178334E-16	6.478844E-18
4.170000E+03	1.183597E-16	6.483753E-18
4.180000E+03	1.188265E-16	6.485320E-18
4.190000E+03	1.192497E-16	6.484367E-18
4.200000E+03	1.196101E-16	6.479818E-18
4.210000E+03	1.199251E-16	6.472565E-18
4.220000E+03	1.202006E-16	6.462879E-18
4.230000E+03	1.204426E-16	6.451042E-18
4.240000E+03	1.206574E-16	6.437338E-18
4.250000E+03	1.208509E-16	6.422042E-18
4.260000E+03	1.210286E-16	6.405410E-18
4.270000E+03	1.211957E-16	6.387671E-18
4.280000E+03	1.213446E-16	6.368399E-18
4.290000E+03	1.215025E-16	6.348984E-18
4.300000E+03	1.216603E-16	6.328911E-18
4.310000E+03	1.218082E-16	6.307636E-18
4.320000E+03	1.219706E-16	6.286391E-18
4.330000E+03	1.221243E-16	6.263942E-18
4.340000E+03	1.222805E-16	6.240831E-18
4.350000E+03	1.224379E-16	6.216966E-18
4.360000E+03	1.225949E-16	6.192231E-18
4.370000E+03	1.227494E-16	6.166496E-18
4.380000E+03	1.228989E-16	6.139627E-18
4.390000E+03	1.230412E-16	6.111494E-18
4.400000E+03	1.231740E-16	6.081983E-18
4.410000E+03	1.232841E-16	6.050435E-18
4.420000E+03	1.233932E-16	6.017924E-18
4.430000E+03	1.234779E-16	5.983295E-18
4.440000E+03	1.235503E-16	5.947128E-18
4.450000E+03	1.236119E-16	5.909480E-18
4.460000E+03	1.236656E-16	5.870456E-18
4.470000E+03	1.237157E-16	5.830204E-18
4.480000E+03	1.237680E-16	5.788923E-18
4.490000E+03	1.238299E-16	5.746854E-18
4.500000E+03	1.238987E-16	5.703758E-18
4.510000E+03	1.239965E-16	5.660486E-18
4.520000E+03	1.241349E-16	5.617388E-18
4.530000E+03	1.243270E-16	5.574836E-18
4.540000E+03	1.245871E-16	5.533211E-18
4.550000E+03	1.249299E-16	5.492898E-18
4.560000E+03	1.253708E-16	5.454274E-18
4.570000E+03	1.259138E-16	5.417207E-18
4.580000E+03	1.265852E-16	5.382518E-18
4.590000E+03	1.273991E-16	5.350491E-18
4.600000E+03	1.283684E-16	5.321362E-18
4.610000E+03	1.295044E-16	5.295308E-18
4.620000E+03	1.308160E-16	5.272440E-18
4.630000E+03	1.322979E-16	5.252337E-18
4.640000E+03	1.339649E-16	5.235446E-18
4.650000E+03	1.358170E-16	5.221676E-18
4.660000E+03	1.378502E-16	5.210878E-18
4.670000E+03	1.400566E-16	5.202856E-18
4.680000E+03	1.424117E-16	5.196939E-18
4.690000E+03	1.449239E-16	5.193828E-18
4.700000E+03	1.475474E-16	5.192434E-18
4.710000E+03	1.502704E-16	5.193114E-18
4.720000E+03	1.530650E-16	5.195881E-18
4.730000E+03	1.558867E-16	5.200454E-18
4.740000E+03	1.587296E-16	5.208095E-18
4.750000E+03	1.615323E-16	5.218469E-18
4.760000E+03	1.642740E-16	5.232804E-18
4.770000E+03	1.669069E-16	5.251605E-18
4.780000E+03	1.694280E-16	5.276842E-18
4.790000E+03	1.717791E-16	5.308654E-18
4.800000E+03	1.739637E-16	5.348827E-18
4.810000E+03	1.759295E-16	5.396969E-18
4.820000E+03	1.776578E-16	5.453115E-18
4.830000E+03	1.791647E-16	5.517720E-18
4.840000E+03	1.804111E-16	5.588923E-18
4.850000E+03	1.814096E-16	5.665947E-18
4.860000E+03	1.821638E-16	5.747379E-18
4.870000E+03	1.826837E-16	5.831772E-18
4.880000E+03	1.829694E-16	5.917252E-18
4.890000E+03	1.830726E-16	6.003600E-18
4.900000E+03	1.829866E-16	6.088808E-18
4.910000E+03	1.827385E-16	6.172113E-18
4.920000E+03	1.823872E-16	6.254068E-18
4.930000E+03	1.819300E-16	6.333392E-18
4.940000E+03	1.814242E-16	6.411122E-18
4.950000E+03	1.808636E-16	6.486330E-18
4.960000E+03	1.802694E-16	6.559249E-18
4.970000E+03	1.796890E-16	6.631269E-18
4.980000E+03	1.791052E-16	6.701582E-18
4.990000E+03	1.785412E-16	6.770978E-18
5.000000E+03	1.780012E-16	6.839605E-18
5.010000E+03	1.774848E-16	6.907490E-18
5.020000E+03	1.769731E-16	6.973944E-18
5.030000E+03	1.764735E-16	7.039277E-18
5.040000E+03	1.759755E-16	7.103085E-18
5.050000E+03	1.754665E-16	7.164831E-18
5.060000E+03	1.749176E-16	7.223266E-18
5.070000E+03	1.743283E-16	7.278236E-18
5.080000E+03	1.736831E-16	7.328947E-18
5.090000E+03	1.729671E-16	7.374587E-18
5.100000E+03	1.721667E-16	7.414374E-18
5.110000E+03	1.712566E-16	7.446993E-18
5.120000E+03	1.702423E-16	7.472469E-18
5.130000E+03	1.691190E-16	7.490393E-18
5.140000E+03	1.678859E-16	7.500562E-18
5.150000E+03	1.665334E-16	7.502403E-18
5.160000E+03	1.650976E-16	7.497436E-18
5.170000E+03	1.635648E-16	7.484992E-18
5.180000E+03	1.619534E-16	7.465877E-18
5.190000E+03	1.603117E-16	7.442332E-18
5.200000E+03	1.586383E-16	7.414346E-18
5.210000E+03	1.569734E-16	7.383863E-18
5.220000E+03	1.553450E-16	7.352303E-18
5.230000E+03	1.537814E-16	7.321111E-18
5.240000E+03	1.522977E-16	7.291128E-18
5.250000E+03	1.509447E-16	7.264907E-18
5.260000E+03	1.497217E-16	7.242550E-18
5.270000E+03	1.486506E-16	7.225232E-18
5.280000E+03	1.477741E-16	7.215165E-18
5.290000E+03	1.470844E-16	7.212102E-18
5.300000E+03	1.466069E-16	7.217417E-18
5.310000E+03	1.463522E-16	7.231784E-18
5.320000E+03	1.463286E-16	7.255763E-18
5.330000E+03	1.465419E-16	7.289808E-18
5.340000E+03	1.469840E-16	7.333675E-18
5.350000E+03	1.476679E-16	7.388187E-18
5.360000E+03	1.485925E-16	7.453468E-18
5.370000E+03	1.497428E-16	7.528926E-18
5.380000E+03	1.511370E-16	7.615644E-18
5.390000E+03	1.527432E-16	7.712161E-18
5.400000E+03	1.545629E-16	7.818694E-18
5.410000E+03	1.565834E-16	7.934711E-18
5.420000E+03	1.587896E-16	8.059540E-18
5.430000E+03	1.611511E-16	8.191712E-18
5.440000E+03	1.636607E-16	8.330908E-18
5.450000E+03	1.662968E-16	8.476043E-18
5.460000E+03	1.690358E-16	8.625916E-18
5.470000E+03	1.718526E-16	8.779219E-18
5.480000E+03	1.747069E-16	8.933840E-18
5.490000E+03	1.775846E-16	9.088987E-18
5.500000E+03	1.804574E-16	9.243122E-18
5.510000E+03	1.832969E-16	9.394664E-18
5.520000E+03	1.860741E-16	9.542008E-18
5.530000E+03	1.887455E-16	9.682776E-18
5.540000E+03	1.913127E-16	9.816903E-18
5.550000E+03	1.937181E-16	9.941283E-18
5.560000E+03	1.959503E-16	1.005518E-17
5.570000E+03	1.979683E-16	1.015634E-17
5.580000E+03	1.997791E-16	1.024502E-17
5.590000E+03	2.013286E-16	1.031833E-17
5.600000E+03	2.026113E-16	1.037591E-17
5.610000E+03	2.036080E-16	1.041673E-17
5.620000E+03	2.043011E-16	1.043987E-17
5.630000E+03	2.046757E-16	1.044458E-17
5.640000E+03	2.047031E-16	1.042947E-17
5.650000E+03	2.044069E-16	1.039583E-17
5.660000E+03	2.037495E-16	1.034190E-17
5.670000E+03	2.027468E-16	1.026865E-17
5.680000E+03	2.014034E-16	1.017652E-17
5.690000E+03	1.997135E-16	1.006549E-17
5.700000E+03	1.977246E-16	9.938211E-18
5.710000E+03	1.954269E-16	9.794475E-18
5.720000E+03	1.928631E-16	9.636720E-18
5.730000E+03	1.900651E-16	9.466827E-18
5.740000E+03	1.870687E-16	9.286861E-18
5.750000E+03	1.839133E-16	9.099011E-18
5.760000E+03	1.806261E-16	8.904834E-18
5.770000E+03	1.772782E-16	8.708009E-18
5.780000E+03	1.738842E-16	8.509353E-18
5.790000E+03	1.705002E-16	8.311669E-18
5.800000E+03	1.671660E-16	8.116908E-18
5.810000E+03	1.639194E-16	7.926845E-18
5.820000E+03	1.607948E-16	7.743049E-18
5.830000E+03	1.578105E-16	7.566280E-18
5.840000E+03	1.550066E-16	7.398297E-18
5.850000E+03	1.524178E-16	7.240584E-18
5.860000E+03	1.500387E-16	7.092686E-18
5.870000E+03	1.478956E-16	6.955676E-18
5.880000E+03	1.459986E-16	6.829846E-18
5.890000E+03	1.443419E-16	6.714767E-18
5.900000E+03	1.429496E-16	6.611420E-18
5.910000E+03	1.417960E-16	6.518493E-18
5.920000E+03	1.408962E-16	6.436588E-18
5.930000E+03	1.402164E-16	6.364082E-18
5.940000E+03	1.397522E-16	6.300733E-18
5.950000E+03	1.394841E-16	6.245637E-18
5.960000E+03	1.393891E-16	6.197762E-18
5.970000E+03	1.394301E-16	6.155478E-18
5.980000E+03	1.396004E-16	6.118528E-18
5.990000E+03	1.398476E-16	6.084658E-18
6.000000E+03	1.401624E-16	6.053524E-18
6.010000E+03	1.404912E-16	6.022878E-18
6.020000E+03	1.408144E-16	5.991963E-18
6.030000E+03	1.411035E-16	5.959633E-18
6.040000E+03	1.413325E-16	5.924867E-18
6.050000E+03	1.414790E-16	5.886793E-18
6.060000E+03	1.415135E-16	5.844251E-18
6.070000E+03	1.414445E-16	5.797650E-18
6.080000E+03	1.412519E-16	5.746199E-18
6.090000E+03	1.409201E-16	5.689307E-18
6.100000E+03	1.404604E-16	5.627466E-18
6.110000E+03	1.398885E-16	5.561317E-18
6.120000E+03	1.391902E-16	5.490315E-18
6.130000E+03	1.383883E-16	5.415368E-18
6.140000E+03	1.374967E-16	5.337034E-18
6.150000E+03	1.365207E-16	5.255525E-18
6.160000E+03	1.354994E-16	5.172346E-18
6.170000E+03	1.344401E-16	5.087753E-18
6.180000E+03	1.333502E-16	5.002014E-18
6.190000E+03	1.322688E-16	4.916553E-18
6.200000E+03	1.311913E-16	4.831148E-18
6.210000E+03	1.301538E-16	4.747059E-18
6.220000E+03	1.291490E-16	4.663923E-18
6.230000E+03	1.281984E-16	4.582425E-18
6.240000E+03	1.273112E-16	4.502768E-18
6.250000E+03	1.264939E-16	4.425067E-18
6.260000E+03	1.257510E-16	4.349359E-18
6.270000E+03	1.250846E-16	4.275616E-18
6.280000E+03	1.244950E-16	4.203772E-18
6.290000E+03	1.239707E-16	4.133415E-18
6.300000E+03	1.235281E-16	4.065138E-18
6.310000E+03	1.231530E-16	3.998578E-18
6.320000E+03	1.228300E-16	3.933464E-18
6.330000E+03	1.225722E-16	3.870571E-18
6.340000E+03	1.223531E-16	3.809548E-18
6.350000E+03	1.221752E-16	3.751127E-18
6.360000E+03	1.220406E-16	3.696188E-18
6.370000E+03	1.219225E-16	3.644900E-18
6.380000E+03	1.218235E-16	3.598498E-18
6.390000E+03	1.217371E-16	3.558071E-18
6.400000E+03	1.216578E-16	3.524824E-18
6.410000E+03	1.215809E-16	3.499996E-18
6.420000E+03	1.215033E-16	3.484757E-18
6.430000E+03	1.214233E-16	3.480068E-18
6.440000E+03	1.213311E-16	3.486255E-18
6.450000E+03	1.212475E-16	3.504024E-18
6.460000E+03	1.211658E-16	3.532765E-18
6.470000E+03	1.210902E-16	3.571739E-18
6.480000E+03	1.210162E-16	3.619636E-18
6.490000E+03	1.209688E-16	3.675863E-18
6.500000E+03	1.209344E-16	3.738636E-18
6.510000E+03	1.209377E-16	3.807391E-18
6.520000E+03	1.209638E-16	3.880450E-18
6.530000E+03	1.210250E-16	3.957135E-18
6.540000E+03	1.211318E-16	4.036887E-18
6.550000E+03	1.212631E-16	4.118250E-18
6.560000E+03	1.214240E-16	4.200770E-18
6.570000E+03	1.216066E-16	4.283685E-18
6.580000E+03	1.217999E-16	4.366217E-18
6.590000E+03	1.219891E-16	4.447535E-18
6.600000E+03	1.221565E-16	4.526742E-18
6.610000E+03	1.222812E-16	4.602857E-18
6.620000E+03	1.223395E-16	4.674812E-18
6.630000E+03	1.223060E-16	4.741464E-18
6.640000E+03	1.221541E-16	4.801606E-18
6.650000E+03	1.218568E-16	4.854003E-18
6.660000E+03	1.213880E-16	4.897426E-18
6.670000E+03	1.207236E-16	4.930697E-18
6.680000E+03	1.198329E-16	4.952341E-18
6.690000E+03	1.187186E-16	4.962231E-18
6.700000E+03	1.173592E-16	4.959241E-18
6.710000E+03	1.157392E-16	4.942480E-18
6.720000E+03	1.138780E-16	4.912527E-18
6.730000E+03	1.117635E-16	4.868648E-18
6.740000E+03	1.094269E-16	4.811992E-18
6.750000E+03	1.068688E-16	4.742405E-18
6.760000E+03	1.041300E-16	4.661554E-18
6.770000E+03	1.012209E-16	4.569786E-18
6.780000E+03	9.818849E-17	4.469141E-18
6.790000E+03	9.504859E-17	4.360303E-18
6.800000E+03	9.184215E-17	4.245141E-18
6.810000E+03	8.860871E-17	4.125519E-18
6.820000E+03	8.536459E-17	4.002263E-18
6.830000E+03	8.214618E-17	3.877170E-18
6.840000E+03	7.897979E-17	3.751600E-18
6.850000E+03	7.589486E-17	3.627095E-18
6.860000E+03	7.289875E-17	3.504164E-18
6.870000E+03	7.001454E-17	3.384083E-18
6.880000E+03	6.725559E-17	3.267677E-18
6.890000E+03	6.463211E-17	3.155627E-18
6.900000E+03	6.215143E-17	3.048477E-18
6.910000E+03	5.981823E-17	2.946646E-18
6.920000E+03	5.763493E-17	2.850435E-18
6.930000E+03	5.560193E-17	2.760042E-18
6.940000E+03	5.371362E-17	2.675359E-18
6.950000E+03	5.197638E-17	2.596863E-18
6.960000E+03	5.038206E-17	2.524300E-18
6.970000E+03	4.892628E-17	2.457592E-18
6.980000E+03	4.760023E-17	2.396426E-18
6.990000E+03	4.640662E-17	2.341059E-18
7.000000E+03	4.533606E-17	2.291129E-18
7.010000E+03	4.437954E-17	2.246282E-18
7.020000E+03	4.353920E-17	2.206718E-18
7.030000E+03	4.280277E-17	2.171899E-18
7.040000E+03	4.217262E-17	2.142021E-18
7.050000E+03	4.163736E-17	2.116573E-18
7.060000E+03	4.119989E-17	2.095764E-18
7.070000E+03	4.084977E-17	2.079115E-18
7.080000E+03	4.058724E-17	2.066686E-18
7.090000E+03	4.041285E-17	2.058545E-18
7.100000E+03	4.031754E-17	2.054267E-18
7.110000E+03	4.030268E-17	2.053948E-18
7.120000E+03	4.036666E-17	2.057526E-18
7.130000E+03	4.051156E-17	2.065116E-18
7.140000E+03	4.072974E-17	2.076326E-18
7.150000E+03	4.102386E-17	2.091273E-18
7.160000E+03	4.139348E-17	2.109902E-18
7.170000E+03	4.183836E-17	2.132147E-18
7.180000E+03	4.235841E-17	2.157931E-18
7.190000E+03	4.295006E-17	2.186977E-18
7.200000E+03	4.362047E-17	2.219535E-18
7.210000E+03	4.436615E-17	2.255292E-18
7.220000E+03	4.518706E-17	2.294094E-18
7.230000E+03	4.607916E-17	2.335572E-18
7.240000E+03	4.704967E-17	2.379918E-18
7.250000E+03	4.809414E-17	2.426730E-18
7.260000E+03	4.920741E-17	2.475578E-18
7.270000E+03	5.039194E-17	2.526429E-18
7.280000E+03	5.165011E-17	2.579261E-18
7.290000E+03	5.297090E-17	2.633411E-18
7.300000E+03	5.436002E-17	2.689082E-18
7.310000E+03	5.580480E-17	2.745606E-18
7.320000E+03	5.730538E-17	2.802992E-18
7.330000E+03	5.885678E-17	2.861046E-18
7.340000E+03	6.045343E-17	2.919591E-18
7.350000E+03	6.208909E-17	2.978469E-18
7.360000E+03	6.375698E-17	3.037537E-18
7.370000E+03	6.544977E-17	3.096673E-18
7.380000E+03	6.715966E-17	3.155765E-18
7.390000E+03	6.887847E-17	3.214709E-18
7.400000E+03	7.059168E-17	3.273130E-18
7.410000E+03	7.230236E-17	3.331474E-18
7.420000E+03	7.398949E-17	3.389072E-18
7.430000E+03	7.565652E-17	3.446372E-18
7.440000E+03	7.728190E-17	3.502656E-18
7.450000E+03	7.886992E-17	3.558359E-18
7.460000E+03	8.039897E-17	3.612706E-18
7.470000E+03	8.186778E-17	3.665809E-18
7.480000E+03	8.326915E-17	3.717469E-18
7.490000E+03	8.460388E-17	3.767805E-18
7.500000E+03	8.585219E-17	3.815981E-18
7.510000E+03	8.701676E-17	3.862125E-18
7.520000E+03	8.808670E-17	3.905732E-18
7.530000E+03	8.907477E-17	3.947318E-18
7.540000E+03	8.997240E-17	3.986431E-18
7.550000E+03	9.077941E-17	4.022976E-18
7.560000E+03	9.148868E-17	4.056538E-18
7.570000E+03	9.211724E-17	4.087773E-18
7.580000E+03	9.265132E-17	4.115967E-18
7.590000E+03	9.310111E-17	4.141480E-18
7.600000E+03	9.347722E-17	4.164705E-18
7.610000E+03	9.376627E-17	4.184978E-18
7.620000E+03	9.397894E-17	4.202726E-18
7.630000E+03	9.411784E-17	4.218033E-18
7.640000E+03	9.418552E-17	4.230994E-18
7.650000E+03	9.418455E-17	4.241716E-18
7.660000E+03	9.410937E-17	4.249945E-18
7.670000E+03	9.397907E-17	4.256540E-18
7.680000E+03	9.378858E-17	4.261263E-18
7.690000E+03	9.353326E-17	4.263885E-18
7.700000E+03	9.322530E-17	4.264925E-18
7.710000E+03	9.287741E-17	4.264916E-18
7.720000E+03	9.247865E-17	4.263288E-18
7.730000E+03	9.204298E-17	4.260592E-18
7.740000E+03	9.157672E-17	4.257018E-18
7.750000E+03	9.108655E-17	4.252755E-18
7.760000E+03	9.057925E-17	4.247987E-18
