#wls	flux	fluxerr
1.600000E+03	4.553486E-18	4.258391E-18
1.640000E+03	4.603923E-18	4.257001E-18
1.680000E+03	4.656923E-18	4.255524E-18
1.720000E+03	4.714365E-18	4.255502E-18
1.760000E+03	4.775694E-18	4.256218E-18
1.800000E+03	4.842045E-18	4.258456E-18
1.840000E+03	4.912891E-18	4.261499E-18
1.880000E+03	4.988564E-18	4.265379E-18
1.920000E+03	5.069420E-18	4.270124E-18
1.960000E+03	5.156749E-18	4.276508E-18
2.000000E+03	5.250100E-18	4.283805E-18
2.040000E+03	5.349930E-18	4.292031E-18
2.080000E+03	5.456738E-18	4.301197E-18
2.120000E+03	5.572034E-18	4.312057E-18
2.160000E+03	5.696466E-18	4.324609E-18
2.200000E+03	5.828725E-18	4.337338E-18
2.240000E+03	5.971515E-18	4.351721E-18
2.280000E+03	6.125676E-18	4.367723E-18
2.320000E+03	6.289965E-18	4.383783E-18
2.360000E+03	6.467447E-18	4.401337E-18
2.400000E+03	6.659221E-18	4.420296E-18
2.440000E+03	6.865317E-18	4.439786E-18
2.480000E+03	7.086959E-18	4.459663E-18
2.520000E+03	7.325482E-18	4.479747E-18
2.560000E+03	7.583644E-18	4.500590E-18
2.600000E+03	7.863183E-18	4.521940E-18
2.640000E+03	8.163256E-18	4.541963E-18
2.680000E+03	8.488531E-18	4.561838E-18
2.720000E+03	8.841312E-18	4.581153E-18
2.760000E+03	9.222592E-18	4.598661E-18
2.800000E+03	9.634977E-18	4.613810E-18
2.840000E+03	1.008301E-17	4.626743E-18
2.880000E+03	1.056831E-17	4.635977E-18
2.920000E+03	1.109433E-17	4.640714E-18
2.960000E+03	1.166682E-17	4.640840E-18
3.000000E+03	1.228821E-17	4.634614E-18
3.010000E+03	1.245070E-17	4.631563E-18
3.020000E+03	1.261867E-17	4.628797E-18
3.030000E+03	1.279015E-17	4.625535E-18
3.040000E+03	1.296310E-17	4.620998E-18
3.050000E+03	1.314184E-17	4.616691E-18
3.060000E+03	1.332435E-17	4.611836E-18
3.070000E+03	1.350850E-17	4.605658E-18
3.080000E+03	1.369878E-17	4.599653E-18
3.090000E+03	1.389308E-17	4.593046E-18
3.100000E+03	1.408921E-17	4.585070E-18
3.110000E+03	1.429182E-17	4.577210E-18
3.120000E+03	1.449875E-17	4.568697E-18
3.130000E+03	1.471009E-17	4.559513E-18
3.140000E+03	1.492594E-17	4.549643E-18
3.150000E+03	1.514640E-17	4.539071E-18
3.160000E+03	1.537159E-17	4.527782E-18
3.170000E+03	1.559906E-17	4.515025E-18
3.180000E+03	1.583397E-17	4.502261E-18
3.190000E+03	1.607393E-17	4.488739E-18
3.200000E+03	1.631904E-17	4.474447E-18
3.210000E+03	1.656944E-17	4.459375E-18
3.220000E+03	1.682524E-17	4.443516E-18
3.230000E+03	1.708655E-17	4.426860E-18
3.240000E+03	1.735351E-17	4.409405E-18
3.250000E+03	1.762624E-17	4.391147E-18
3.260000E+03	1.790488E-17	4.372085E-18
3.270000E+03	1.819248E-17	4.352925E-18
3.280000E+03	1.848336E-17	4.332262E-18
3.290000E+03	1.878055E-17	4.310812E-18
3.300000E+03	1.908419E-17	4.288587E-18
3.310000E+03	1.939441E-17	4.265603E-18
3.320000E+03	1.971138E-17	4.241882E-18
3.330000E+03	2.003523E-17	4.217449E-18
3.340000E+03	2.036938E-17	4.193009E-18
3.350000E+03	2.070751E-17	4.167247E-18
3.360000E+03	2.105299E-17	4.140886E-18
3.370000E+03	2.140597E-17	4.113975E-18
3.380000E+03	2.177010E-17	4.087227E-18
3.390000E+03	2.213864E-17	4.059394E-18
3.400000E+03	2.251517E-17	4.031209E-18
3.410000E+03	2.290351E-17	4.003396E-18
3.420000E+03	2.329660E-17	3.974765E-18
3.430000E+03	2.369818E-17	3.946063E-18
3.440000E+03	2.411227E-17	3.918028E-18
3.450000E+03	2.453142E-17	3.889533E-18
3.460000E+03	2.495958E-17	3.861344E-18
3.470000E+03	2.540094E-17	3.834216E-18
3.480000E+03	2.584767E-17	3.807087E-18
3.490000E+03	2.630806E-17	3.781341E-18
3.500000E+03	2.677399E-17	3.755955E-18
3.510000E+03	2.725402E-17	3.732315E-18
3.520000E+03	2.773972E-17	3.709434E-18
3.530000E+03	2.823546E-17	3.688114E-18
3.540000E+03	2.874587E-17	3.669144E-18
3.550000E+03	2.926203E-17	3.651576E-18
3.560000E+03	2.979315E-17	3.636778E-18
3.570000E+03	3.032993E-17	3.623808E-18
3.580000E+03	3.088184E-17	3.614011E-18
3.590000E+03	3.143918E-17	3.606435E-18
3.600000E+03	3.201164E-17	3.602384E-18
3.610000E+03	3.259418E-17	3.601440E-18
3.620000E+03	3.318136E-17	3.603160E-18
3.630000E+03	3.378320E-17	3.608765E-18
3.640000E+03	3.438880E-17	3.617183E-18
3.650000E+03	3.500835E-17	3.629565E-18
3.660000E+03	3.563042E-17	3.644759E-18
3.670000E+03	3.626539E-17	3.663847E-18
3.680000E+03	3.690703E-17	3.686165E-18
3.690000E+03	3.754865E-17	3.711007E-18
3.700000E+03	3.820093E-17	3.739359E-18
3.710000E+03	3.885110E-17	3.769869E-18
3.720000E+03	3.951011E-17	3.803488E-18
3.730000E+03	4.017093E-17	3.839399E-18
3.740000E+03	4.082614E-17	3.876756E-18
3.750000E+03	4.148725E-17	3.916502E-18
3.760000E+03	4.214697E-17	3.957792E-18
3.770000E+03	4.279771E-17	3.999761E-18
3.780000E+03	4.345172E-17	4.043409E-18
3.790000E+03	4.409490E-17	4.087276E-18
3.800000E+03	4.474013E-17	4.132424E-18
3.810000E+03	4.538026E-17	4.178059E-18
3.820000E+03	4.600792E-17	4.223388E-18
3.830000E+03	4.663715E-17	4.269592E-18
3.840000E+03	4.726115E-17	4.315943E-18
3.850000E+03	4.787299E-17	4.361715E-18
3.860000E+03	4.848798E-17	4.408215E-18
3.870000E+03	4.909976E-17	4.454777E-18
3.880000E+03	4.970188E-17	4.500731E-18
3.890000E+03	5.031083E-17	4.547490E-18
3.900000E+03	5.091284E-17	4.593720E-18
3.910000E+03	5.152505E-17	4.640885E-18
3.920000E+03	5.214147E-17	4.688356E-18
3.930000E+03	5.275578E-17	4.735477E-18
3.940000E+03	5.338568E-17	4.783748E-18
3.950000E+03	5.402474E-17	4.832501E-18
3.960000E+03	5.466599E-17	4.881027E-18
3.970000E+03	5.532705E-17	4.930817E-18
3.980000E+03	5.599195E-17	4.980368E-18
3.990000E+03	5.667799E-17	5.031145E-18
4.000000E+03	5.737672E-17	5.082331E-18
4.010000E+03	5.807886E-17	5.133049E-18
4.020000E+03	5.880098E-17	5.184716E-18
4.030000E+03	5.952399E-17	5.235607E-18
4.040000E+03	6.026398E-17	5.287108E-18
4.050000E+03	6.100983E-17	5.338218E-18
4.060000E+03	6.174967E-17	5.387883E-18
4.070000E+03	6.249916E-17	5.437465E-18
4.080000E+03	6.323654E-17	5.485065E-18
4.090000E+03	6.397759E-17	5.532053E-18
4.100000E+03	6.469998E-17	5.576500E-18
4.110000E+03	6.541997E-17	5.619816E-18
4.120000E+03	6.611510E-17	5.660076E-18
4.130000E+03	6.680249E-17	5.698757E-18
4.140000E+03	6.745991E-17	5.733967E-18
4.150000E+03	6.810565E-17	5.767275E-18
4.160000E+03	6.871805E-17	5.796850E-18
4.170000E+03	6.931677E-17	5.824361E-18
4.180000E+03	6.988084E-17	5.848053E-18
4.190000E+03	7.042079E-17	5.868819E-18
4.200000E+03	7.094789E-17	5.887599E-18
4.210000E+03	7.144218E-17	5.902736E-18
4.220000E+03	7.191564E-17	5.915227E-18
4.230000E+03	7.238073E-17	5.926090E-18
4.240000E+03	7.281781E-17	5.933707E-18
4.250000E+03	7.325031E-17	5.939978E-18
4.260000E+03	7.365823E-17	5.943264E-18
4.270000E+03	7.405391E-17	5.944549E-18
4.280000E+03	7.443847E-17	5.943904E-18
4.290000E+03	7.482371E-17	5.942239E-18
4.300000E+03	7.518772E-17	5.937784E-18
4.310000E+03	7.554116E-17	5.931367E-18
4.320000E+03	7.588309E-17	5.922889E-18
4.330000E+03	7.621200E-17	5.912211E-18
4.340000E+03	7.653715E-17	5.900030E-18
4.350000E+03	7.683349E-17	5.884397E-18
4.360000E+03	7.710942E-17	5.865960E-18
4.370000E+03	7.736185E-17	5.844485E-18
4.380000E+03	7.758763E-17	5.819735E-18
4.390000E+03	7.778368E-17	5.791487E-18
4.400000E+03	7.794721E-17	5.759541E-18
4.410000E+03	7.807592E-17	5.723733E-18
4.420000E+03	7.816815E-17	5.683948E-18
4.430000E+03	7.822310E-17	5.640133E-18
4.440000E+03	7.824102E-17	5.592303E-18
4.450000E+03	7.822332E-17	5.540555E-18
4.460000E+03	7.817276E-17	5.485074E-18
4.470000E+03	7.809348E-17	5.426136E-18
4.480000E+03	7.799112E-17	5.364109E-18
4.490000E+03	7.787276E-17	5.299451E-18
4.500000E+03	7.773563E-17	5.231937E-18
4.510000E+03	7.761230E-17	5.163713E-18
4.520000E+03	7.750254E-17	5.094672E-18
4.530000E+03	7.741849E-17	5.025513E-18
4.540000E+03	7.736183E-17	4.956234E-18
4.550000E+03	7.736855E-17	4.888993E-18
4.560000E+03	7.744113E-17	4.823738E-18
4.570000E+03	7.758197E-17	4.760398E-18
4.580000E+03	7.782683E-17	4.700907E-18
4.590000E+03	7.817702E-17	4.645008E-18
4.600000E+03	7.863266E-17	4.592358E-18
4.610000E+03	7.922654E-17	4.544485E-18
4.620000E+03	7.994414E-17	4.500104E-18
4.630000E+03	8.081479E-17	4.460404E-18
4.640000E+03	8.181909E-17	4.423805E-18
4.650000E+03	8.298168E-17	4.391138E-18
4.660000E+03	8.427679E-17	4.360516E-18
4.670000E+03	8.571087E-17	4.331804E-18
4.680000E+03	8.728747E-17	4.304712E-18
4.690000E+03	8.896880E-17	4.276966E-18
4.700000E+03	9.075036E-17	4.248079E-18
4.710000E+03	9.262462E-17	4.217507E-18
4.720000E+03	9.454058E-17	4.182899E-18
4.730000E+03	9.648323E-17	4.143820E-18
4.740000E+03	9.842161E-17	4.099389E-18
4.750000E+03	1.003227E-16	4.048978E-18
4.760000E+03	1.021524E-16	3.992309E-18
4.770000E+03	1.038769E-16	3.929545E-18
4.780000E+03	1.054634E-16	3.861380E-18
4.790000E+03	1.068824E-16	3.789103E-18
4.800000E+03	1.081083E-16	3.714640E-18
4.810000E+03	1.091207E-16	3.640545E-18
4.820000E+03	1.099055E-16	3.569924E-18
4.830000E+03	1.104557E-16	3.506285E-18
4.840000E+03	1.107712E-16	3.453278E-18
4.850000E+03	1.108589E-16	3.414346E-18
4.860000E+03	1.107320E-16	3.392308E-18
4.870000E+03	1.103935E-16	3.388485E-18
4.880000E+03	1.098983E-16	3.404382E-18
4.890000E+03	1.092568E-16	3.438797E-18
4.900000E+03	1.084818E-16	3.489508E-18
4.910000E+03	1.076336E-16	3.555151E-18
4.920000E+03	1.067256E-16	3.632670E-18
4.930000E+03	1.057704E-16	3.719060E-18
4.940000E+03	1.048240E-16	3.813168E-18
4.950000E+03	1.038794E-16	3.912101E-18
4.960000E+03	1.029862E-16	4.015518E-18
4.970000E+03	1.021310E-16	4.121203E-18
4.980000E+03	1.013411E-16	4.228901E-18
4.990000E+03	1.006394E-16	4.338632E-18
5.000000E+03	1.000022E-16	4.448724E-18
5.010000E+03	9.944540E-17	4.559395E-18
5.020000E+03	9.898102E-17	4.670951E-18
5.030000E+03	9.857618E-17	4.781709E-18
5.040000E+03	9.823750E-17	4.891891E-18
5.050000E+03	9.795527E-17	5.001012E-18
5.060000E+03	9.771802E-17	5.108512E-18
5.070000E+03	9.751296E-17	5.213763E-18
5.080000E+03	9.734021E-17	5.316831E-18
5.090000E+03	9.715846E-17	5.415508E-18
5.100000E+03	9.696791E-17	5.509798E-18
5.110000E+03	9.674229E-17	5.598200E-18
5.120000E+03	9.649771E-17	5.681626E-18
5.130000E+03	9.621129E-17	5.758734E-18
5.140000E+03	9.587626E-17	5.829089E-18
5.150000E+03	9.548864E-17	5.892410E-18
5.160000E+03	9.504751E-17	5.948601E-18
5.170000E+03	9.454174E-17	5.996923E-18
5.180000E+03	9.400320E-17	6.039362E-18
5.190000E+03	9.342653E-17	6.075591E-18
5.200000E+03	9.280912E-17	6.105444E-18
5.210000E+03	9.218950E-17	6.131487E-18
5.220000E+03	9.156827E-17	6.153846E-18
5.230000E+03	9.094725E-17	6.172729E-18
5.240000E+03	9.036681E-17	6.190988E-18
5.250000E+03	8.981600E-17	6.208027E-18
5.260000E+03	8.933379E-17	6.226700E-18
5.270000E+03	8.890767E-17	6.246323E-18
5.280000E+03	8.856139E-17	6.268746E-18
5.290000E+03	8.831686E-17	6.295726E-18
5.300000E+03	8.815715E-17	6.326267E-18
5.310000E+03	8.810074E-17	6.361885E-18
5.320000E+03	8.815192E-17	6.403085E-18
5.330000E+03	8.832564E-17	6.451144E-18
5.340000E+03	8.859819E-17	6.504511E-18
5.350000E+03	8.898128E-17	6.564199E-18
5.360000E+03	8.947284E-17	6.630199E-18
5.370000E+03	9.006942E-17	6.702386E-18
5.380000E+03	9.076630E-17	6.780518E-18
5.390000E+03	9.155757E-17	6.864244E-18
5.400000E+03	9.243621E-17	6.953110E-18
5.410000E+03	9.339421E-17	7.046566E-18
5.420000E+03	9.442266E-17	7.143973E-18
5.430000E+03	9.551183E-17	7.244609E-18
5.440000E+03	9.665131E-17	7.347684E-18
5.450000E+03	9.781648E-17	7.451306E-18
5.460000E+03	9.902297E-17	7.556632E-18
5.470000E+03	1.002455E-16	7.661695E-18
5.480000E+03	1.014720E-16	7.765521E-18
5.490000E+03	1.026759E-16	7.866019E-18
5.500000E+03	1.038734E-16	7.964359E-18
5.510000E+03	1.050379E-16	8.058445E-18
5.520000E+03	1.061424E-16	8.146128E-18
5.530000E+03	1.072039E-16	8.228650E-18
5.540000E+03	1.081804E-16	8.302725E-18
5.550000E+03	1.090896E-16	8.369646E-18
5.560000E+03	1.098891E-16	8.426099E-18
5.570000E+03	1.105968E-16	8.473429E-18
5.580000E+03	1.111701E-16	8.508316E-18
5.590000E+03	1.116121E-16	8.530986E-18
5.600000E+03	1.119266E-16	8.541723E-18
5.610000E+03	1.120712E-16	8.537311E-18
5.620000E+03	1.120509E-16	8.518182E-18
5.630000E+03	1.118566E-16	8.483707E-18
5.640000E+03	1.114959E-16	8.434581E-18
5.650000E+03	1.109324E-16	8.368175E-18
5.660000E+03	1.101786E-16	8.285622E-18
5.670000E+03	1.092348E-16	8.187140E-18
5.680000E+03	1.081046E-16	8.073234E-18
5.690000E+03	1.067955E-16	7.944711E-18
5.700000E+03	1.053189E-16	7.802677E-18
5.710000E+03	1.036899E-16	7.648516E-18
5.720000E+03	1.019273E-16	7.483865E-18
5.730000E+03	1.000529E-16	7.310560E-18
5.740000E+03	9.809122E-17	7.130586E-18
5.750000E+03	9.606820E-17	6.946009E-18
5.760000E+03	9.401094E-17	6.758915E-18
5.770000E+03	9.193389E-17	6.570429E-18
5.780000E+03	8.988940E-17	6.384334E-18
5.790000E+03	8.788972E-17	6.201475E-18
5.800000E+03	8.595827E-17	6.023444E-18
5.810000E+03	8.410453E-17	5.850806E-18
5.820000E+03	8.237061E-17	5.686344E-18
5.830000E+03	8.076039E-17	5.530126E-18
5.840000E+03	7.927589E-17	5.382067E-18
5.850000E+03	7.794946E-17	5.244106E-18
5.860000E+03	7.677739E-17	5.115684E-18
5.870000E+03	7.575409E-17	4.996109E-18
5.880000E+03	7.490309E-17	4.886588E-18
5.890000E+03	7.420360E-17	4.785380E-18
5.900000E+03	7.367413E-17	4.693296E-18
5.910000E+03	7.329000E-17	4.608347E-18
5.920000E+03	7.305525E-17	4.530392E-18
5.930000E+03	7.297185E-17	4.459133E-18
5.940000E+03	7.300966E-17	4.392318E-18
5.950000E+03	7.317726E-17	4.330091E-18
5.960000E+03	7.344114E-17	4.270111E-18
5.970000E+03	7.379667E-17	4.211823E-18
5.980000E+03	7.422786E-17	4.154064E-18
5.990000E+03	7.472803E-17	4.096265E-18
6.000000E+03	7.525889E-17	4.036209E-18
6.010000E+03	7.581271E-17	3.973485E-18
6.020000E+03	7.637162E-17	3.907233E-18
6.030000E+03	7.691834E-17	3.836746E-18
6.040000E+03	7.743671E-17	3.761499E-18
6.050000E+03	7.792286E-17	3.681676E-18
6.060000E+03	7.834266E-17	3.596147E-18
6.070000E+03	7.869651E-17	3.505559E-18
6.080000E+03	7.897666E-17	3.410281E-18
6.090000E+03	7.917806E-17	3.310917E-18
6.100000E+03	7.929837E-17	3.208305E-18
6.110000E+03	7.933785E-17	3.103512E-18
6.120000E+03	7.929911E-17	2.997826E-18
6.130000E+03	7.917588E-17	2.892344E-18
6.140000E+03	7.899645E-17	2.789576E-18
6.150000E+03	7.875751E-17	2.690981E-18
6.160000E+03	7.846760E-17	2.598583E-18
6.170000E+03	7.813571E-17	2.514496E-18
6.180000E+03	7.777097E-17	2.440847E-18
6.190000E+03	7.737156E-17	2.379309E-18
6.200000E+03	7.696733E-17	2.332249E-18
6.210000E+03	7.655521E-17	2.300531E-18
6.220000E+03	7.614195E-17	2.284667E-18
6.230000E+03	7.572285E-17	2.284070E-18
6.240000E+03	7.532358E-17	2.298370E-18
6.250000E+03	7.493717E-17	2.325685E-18
6.260000E+03	7.455575E-17	2.363800E-18
6.270000E+03	7.420139E-17	2.411366E-18
6.280000E+03	7.386412E-17	2.466126E-18
6.290000E+03	7.353328E-17	2.525954E-18
6.300000E+03	7.322798E-17	2.589976E-18
6.310000E+03	7.292602E-17	2.656138E-18
6.320000E+03	7.264524E-17	2.724040E-18
6.330000E+03	7.236278E-17	2.792001E-18
6.340000E+03	7.209586E-17	2.860023E-18
6.350000E+03	7.182160E-17	2.926712E-18
6.360000E+03	7.155723E-17	2.992388E-18
6.370000E+03	7.128053E-17	3.055863E-18
6.380000E+03	7.099951E-17	3.117275E-18
6.390000E+03	7.072263E-17	3.176889E-18
6.400000E+03	7.042957E-17	3.233740E-18
6.410000E+03	7.013994E-17	3.288696E-18
6.420000E+03	6.983505E-17	3.340904E-18
6.430000E+03	6.952620E-17	3.390924E-18
6.440000E+03	6.921556E-17	3.438921E-18
6.450000E+03	6.891545E-17	3.485589E-18
6.460000E+03	6.860987E-17	3.530213E-18
6.470000E+03	6.831178E-17	3.573536E-18
6.480000E+03	6.802454E-17	3.615832E-18
6.490000E+03	6.776062E-17	3.657875E-18
6.500000E+03	6.750377E-17	3.698895E-18
6.510000E+03	6.726519E-17	3.739590E-18
6.520000E+03	6.704561E-17	3.780096E-18
6.530000E+03	6.684445E-17	3.820467E-18
6.540000E+03	6.665966E-17	3.860661E-18
6.550000E+03	6.648750E-17	3.900524E-18
6.560000E+03	6.633167E-17	3.940327E-18
6.570000E+03	6.616641E-17	3.978571E-18
6.580000E+03	6.599180E-17	4.015255E-18
6.590000E+03	6.579703E-17	4.049701E-18
6.600000E+03	6.556975E-17	4.081106E-18
6.610000E+03	6.529643E-17	4.108560E-18
6.620000E+03	6.496273E-17	4.131064E-18
6.630000E+03	6.455398E-17	4.147566E-18
6.640000E+03	6.405574E-17	4.156996E-18
6.650000E+03	6.345442E-17	4.158310E-18
6.660000E+03	6.272925E-17	4.149960E-18
6.670000E+03	6.188787E-17	4.132255E-18
6.680000E+03	6.091428E-17	4.103940E-18
6.690000E+03	5.980456E-17	4.064549E-18
6.700000E+03	5.855841E-17	4.013864E-18
6.710000E+03	5.717929E-17	3.951936E-18
6.720000E+03	5.567443E-17	3.879094E-18
6.730000E+03	5.404714E-17	3.795412E-18
6.740000E+03	5.232667E-17	3.702814E-18
6.750000E+03	5.052184E-17	3.601835E-18
6.760000E+03	4.865117E-17	3.493726E-18
6.770000E+03	4.673433E-17	3.379864E-18
6.780000E+03	4.478518E-17	3.261244E-18
6.790000E+03	4.283623E-17	3.140259E-18
6.800000E+03	4.089984E-17	3.017874E-18
6.810000E+03	3.898792E-17	2.895047E-18
6.820000E+03	3.712709E-17	2.773855E-18
6.830000E+03	3.532502E-17	2.654995E-18
6.840000E+03	3.358811E-17	2.539081E-18
6.850000E+03	3.193477E-17	2.427646E-18
6.860000E+03	3.036670E-17	2.320973E-18
6.870000E+03	2.888445E-17	2.219255E-18
6.880000E+03	2.749902E-17	2.123488E-18
6.890000E+03	2.620368E-17	2.033303E-18
6.900000E+03	2.500572E-17	1.949412E-18
6.910000E+03	2.389670E-17	1.871298E-18
6.920000E+03	2.288130E-17	1.799459E-18
6.930000E+03	2.195020E-17	1.733292E-18
6.940000E+03	2.110644E-17	1.673153E-18
6.950000E+03	2.034049E-17	1.618398E-18
6.960000E+03	1.965451E-17	1.569302E-18
6.970000E+03	1.903924E-17	1.525219E-18
6.980000E+03	1.849650E-17	1.486381E-18
6.990000E+03	1.801760E-17	1.452170E-18
7.000000E+03	1.760439E-17	1.422805E-18
7.010000E+03	1.724888E-17	1.397707E-18
7.020000E+03	1.695083E-17	1.376912E-18
7.030000E+03	1.671012E-17	1.360462E-18
7.040000E+03	1.651987E-17	1.347843E-18
7.050000E+03	1.638056E-17	1.339133E-18
7.060000E+03	1.629291E-17	1.334425E-18
7.070000E+03	1.625106E-17	1.333267E-18
7.080000E+03	1.625628E-17	1.335787E-18
7.090000E+03	1.631012E-17	1.342131E-18
7.100000E+03	1.640752E-17	1.351896E-18
7.110000E+03	1.655052E-17	1.365259E-18
7.120000E+03	1.673908E-17	1.382220E-18
7.130000E+03	1.697572E-17	1.402989E-18
7.140000E+03	1.725605E-17	1.427199E-18
7.150000E+03	1.758287E-17	1.455075E-18
7.160000E+03	1.795675E-17	1.486653E-18
7.170000E+03	1.837832E-17	1.521970E-18
7.180000E+03	1.884823E-17	1.561064E-18
7.190000E+03	1.936983E-17	1.604195E-18
7.200000E+03	1.993831E-17	1.650943E-18
7.210000E+03	2.055675E-17	1.701540E-18
7.220000E+03	2.122535E-17	1.755984E-18
7.230000E+03	2.194408E-17	1.814249E-18
7.240000E+03	2.271257E-17	1.876285E-18
7.250000E+03	2.353006E-17	1.942013E-18
7.260000E+03	2.439533E-17	2.011318E-18
7.270000E+03	2.530667E-17	2.084050E-18
7.280000E+03	2.626180E-17	2.160017E-18
7.290000E+03	2.725787E-17	2.238986E-18
7.300000E+03	2.829143E-17	2.320682E-18
7.310000E+03	2.935846E-17	2.404788E-18
7.320000E+03	3.045434E-17	2.490950E-18
7.330000E+03	3.157395E-17	2.578775E-18
7.340000E+03	3.271170E-17	2.667841E-18
7.350000E+03	3.385684E-17	2.757309E-18
7.360000E+03	3.501246E-17	2.847475E-18
7.370000E+03	3.616744E-17	2.937481E-18
7.380000E+03	3.731514E-17	3.026835E-18
7.390000E+03	3.844888E-17	3.115044E-18
7.400000E+03	3.956198E-17	3.201617E-18
7.410000E+03	4.064213E-17	3.285608E-18
7.420000E+03	4.169425E-17	3.367463E-18
7.430000E+03	4.270652E-17	3.446276E-18
7.440000E+03	4.367298E-17	3.521613E-18
7.450000E+03	4.458167E-17	3.592554E-18
7.460000E+03	4.543981E-17	3.659726E-18
7.470000E+03	4.623637E-17	3.722279E-18
7.480000E+03	4.696703E-17	3.779901E-18
7.490000E+03	4.762128E-17	3.831780E-18
7.500000E+03	4.820944E-17	3.878769E-18
7.510000E+03	4.871559E-17	3.919604E-18
7.520000E+03	4.915192E-17	3.955269E-18
7.530000E+03	4.951083E-17	3.985150E-18
7.540000E+03	4.978534E-17	4.008668E-18
7.550000E+03	4.999044E-17	4.027005E-18
7.560000E+03	5.011368E-17	4.039123E-18
7.570000E+03	5.017170E-17	4.046320E-18
7.580000E+03	5.015329E-17	4.047650E-18
7.590000E+03	5.007634E-17	4.044505E-18
7.600000E+03	4.993064E-17	4.036014E-18
7.610000E+03	4.973483E-17	4.023639E-18
7.620000E+03	4.947941E-17	4.006570E-18
7.630000E+03	4.918334E-17	3.986306E-18
7.640000E+03	4.883755E-17	3.962082E-18
7.650000E+03	4.846099E-17	3.935408E-18
7.660000E+03	4.804482E-17	3.905546E-18
7.670000E+03	4.760097E-17	3.873445E-18
7.680000E+03	4.714106E-17	3.840035E-18
7.690000E+03	4.665634E-17	3.804589E-18
7.700000E+03	4.615824E-17	3.768022E-18
7.710000E+03	4.565771E-17	3.731212E-18
7.720000E+03	4.514583E-17	3.693416E-18
7.730000E+03	4.463311E-17	3.655474E-18
7.740000E+03	4.412314E-17	3.617662E-18
7.750000E+03	4.362533E-17	3.580733E-18
7.760000E+03	4.312985E-17	3.543862E-18
