#wls	flux	fluxerr
1.592040E+03	3.233220E-04	2.438025E-05
1.631841E+03	3.276701E-04	2.460044E-05
1.671642E+03	3.323386E-04	2.483899E-05
1.711443E+03	3.373190E-04	2.509477E-05
1.751244E+03	3.426237E-04	2.536820E-05
1.791045E+03	3.482618E-04	2.565940E-05
1.830846E+03	3.541062E-04	2.595848E-05
1.870647E+03	3.601579E-04	2.626506E-05
1.910448E+03	3.663181E-04	2.657153E-05
1.950249E+03	3.725012E-04	2.687133E-05
1.990050E+03	3.786614E-04	2.716091E-05
2.029851E+03	3.849400E-04	2.745013E-05
2.069652E+03	3.916828E-04	2.776310E-05
2.109453E+03	3.994345E-04	2.813732E-05
2.149254E+03	4.088281E-04	2.861544E-05
2.189055E+03	4.200658E-04	2.920897E-05
2.228856E+03	4.328965E-04	2.989756E-05
2.268657E+03	4.468156E-04	3.064389E-05
2.308458E+03	4.613499E-04	3.141361E-05
2.348259E+03	4.762406E-04	3.218776E-05
2.388060E+03	4.914150E-04	3.296033E-05
2.427861E+03	5.069172E-04	3.373319E-05
2.467662E+03	5.229243E-04	3.451690E-05
2.507463E+03	5.395767E-04	3.531914E-05
2.547264E+03	5.570700E-04	3.615088E-05
2.587065E+03	5.755385E-04	3.701856E-05
2.626866E+03	5.951392E-04	3.792974E-05
2.666667E+03	6.159884E-04	3.888891E-05
2.706468E+03	6.382061E-04	3.990044E-05
2.746269E+03	6.619194E-04	4.096870E-05
2.786070E+03	6.872423E-04	4.209682E-05
2.825871E+03	7.143009E-04	4.328825E-05
2.865672E+03	7.432752E-04	4.454918E-05
2.905473E+03	7.743201E-04	4.588367E-05
2.945274E+03	8.077092E-04	4.730215E-05
2.985075E+03	8.436790E-04	4.881191E-05
2.995025E+03	8.531335E-04	4.920619E-05
3.004975E+03	8.627613E-04	4.960627E-05
3.014925E+03	8.725658E-04	5.001226E-05
3.024876E+03	8.825916E-04	5.042657E-05
3.034826E+03	8.928298E-04	5.084853E-05
3.044776E+03	9.032906E-04	5.127859E-05
3.054726E+03	9.139966E-04	5.171788E-05
3.064677E+03	9.249298E-04	5.216520E-05
3.074627E+03	9.360924E-04	5.262055E-05
3.084577E+03	9.475269E-04	5.308611E-05
3.094527E+03	9.591975E-04	5.355973E-05
3.104478E+03	9.711264E-04	5.404246E-05
3.114428E+03	9.832984E-04	5.453329E-05
3.124378E+03	9.957755E-04	5.503547E-05
3.134328E+03	1.008504E-03	5.554583E-05
3.144279E+03	1.021508E-03	5.606552E-05
3.154229E+03	1.034812E-03	5.659565E-05
3.164179E+03	1.048421E-03	5.713635E-05
3.174129E+03	1.062302E-03	5.768553E-05
3.184080E+03	1.076520E-03	5.824653E-05
3.194030E+03	1.091040E-03	5.881730E-05
3.203980E+03	1.105890E-03	5.939907E-05
3.213930E+03	1.121057E-03	5.999088E-05
3.223881E+03	1.136569E-03	6.059398E-05
3.233831E+03	1.152431E-03	6.120849E-05
3.243781E+03	1.168653E-03	6.183457E-05
3.253731E+03	1.185222E-03	6.247138E-05
3.263682E+03	1.202169E-03	6.312016E-05
3.273632E+03	1.219501E-03	6.378109E-05
3.283582E+03	1.237208E-03	6.445334E-05
3.293532E+03	1.255320E-03	6.513821E-05
3.303483E+03	1.273827E-03	6.583488E-05
3.313433E+03	1.292761E-03	6.654464E-05
3.323383E+03	1.312112E-03	6.726669E-05
3.333333E+03	1.331891E-03	6.800134E-05
3.343284E+03	1.352111E-03	6.874884E-05
3.353234E+03	1.372785E-03	6.950952E-05
3.363184E+03	1.393924E-03	7.028369E-05
3.373134E+03	1.415523E-03	7.107061E-05
3.383085E+03	1.437615E-03	7.187168E-05
3.393035E+03	1.460174E-03	7.268515E-05
3.402985E+03	1.483256E-03	7.351349E-05
3.412935E+03	1.506835E-03	7.435498E-05
3.422886E+03	1.530926E-03	7.521001E-05
3.432836E+03	1.555547E-03	7.607901E-05
3.442786E+03	1.580692E-03	7.696133E-05
3.452736E+03	1.606401E-03	7.785844E-05
3.462687E+03	1.632672E-03	7.876979E-05
3.472637E+03	1.659499E-03	7.969475E-05
3.482587E+03	1.686904E-03	8.063381E-05
3.492537E+03	1.714884E-03	8.158645E-05
3.502488E+03	1.743481E-03	8.255416E-05
3.512438E+03	1.772651E-03	8.353438E-05
3.522388E+03	1.802436E-03	8.452862E-05
3.532338E+03	1.832837E-03	8.553644E-05
3.542289E+03	1.863876E-03	8.655833E-05
3.552239E+03	1.895532E-03	8.759282E-05
3.562189E+03	1.927806E-03	8.863942E-05
3.572139E+03	1.960743E-03	8.969975E-05
3.582090E+03	1.994301E-03	9.077128E-05
3.592040E+03	2.028526E-03	9.185564E-05
3.601990E+03	2.063421E-03	9.295239E-05
3.611940E+03	2.098967E-03	9.406007E-05
3.621891E+03	2.135165E-03	9.517825E-05
3.625918E+03	3.066906E-03	1.364182E-04
3.631409E+03	3.078253E-03	1.365203E-04
3.636900E+03	3.098932E-03	1.370312E-04
3.642390E+03	3.130093E-03	1.379980E-04
3.647881E+03	3.164306E-03	1.390900E-04
3.653370E+03	3.191150E-03	1.398492E-04
3.658861E+03	3.217846E-03	1.405939E-04
3.664351E+03	3.241672E-03	1.412058E-04
3.669842E+03	3.260928E-03	1.416120E-04
3.675332E+03	3.268676E-03	1.415140E-04
3.680823E+03	3.272340E-03	1.412368E-04
3.686313E+03	3.261310E-03	1.403256E-04
3.691804E+03	3.229341E-03	1.385183E-04
3.697295E+03	3.180185E-03	1.359838E-04
3.702785E+03	3.112493E-03	1.326715E-04
3.708276E+03	3.021180E-03	1.283731E-04
3.713766E+03	2.911222E-03	1.233086E-04
3.719257E+03	2.788879E-03	1.177502E-04
3.724747E+03	2.649609E-03	1.115117E-04
3.730238E+03	2.497361E-03	1.047658E-04
3.735727E+03	2.354206E-03	9.844088E-05
3.741218E+03	2.223736E-03	9.268290E-05
3.746708E+03	2.105943E-03	8.748649E-05
3.752199E+03	2.006586E-03	8.308505E-05
3.757690E+03	1.938269E-03	7.999128E-05
3.763180E+03	1.885986E-03	7.757524E-05
3.768671E+03	1.845116E-03	7.564095E-05
3.774161E+03	1.813618E-03	7.410038E-05
3.779652E+03	1.784981E-03	7.268448E-05
3.785142E+03	1.770044E-03	7.183204E-05
3.790633E+03	1.773675E-03	7.173429E-05
3.796123E+03	1.790785E-03	7.217835E-05
3.801614E+03	1.823667E-03	7.325076E-05
3.807104E+03	1.879217E-03	7.522095E-05
3.812594E+03	1.940363E-03	7.739854E-05
3.818085E+03	2.021112E-03	8.033774E-05
3.823575E+03	2.122194E-03	8.405939E-05
3.829066E+03	2.237984E-03	8.833277E-05
3.834556E+03	2.370096E-03	9.321515E-05
3.840047E+03	2.521562E-03	9.881843E-05
3.845537E+03	2.684191E-03	1.048145E-04
3.851028E+03	2.863045E-03	1.113955E-04
3.856518E+03	3.071091E-03	1.190571E-04
3.862009E+03	3.293108E-03	1.271989E-04
3.867500E+03	3.524562E-03	1.356405E-04
3.872990E+03	3.765989E-03	1.443981E-04
3.878481E+03	4.022041E-03	1.536450E-04
3.883970E+03	4.282381E-03	1.629818E-04
3.889461E+03	4.547951E-03	1.724417E-04
3.894951E+03	4.817199E-03	1.819639E-04
3.900442E+03	5.079252E-03	1.911375E-04
3.905932E+03	5.323130E-03	1.995538E-04
3.911423E+03	5.539658E-03	2.068779E-04
3.916913E+03	5.738170E-03	2.134685E-04
3.922404E+03	5.914696E-03	2.191862E-04
3.927895E+03	6.072821E-03	2.241727E-04
3.933385E+03	6.210127E-03	2.283470E-04
3.938876E+03	6.336261E-03	2.320712E-04
3.944366E+03	6.443492E-03	2.350682E-04
3.949857E+03	6.530202E-03	2.372873E-04
3.955347E+03	6.605235E-03	2.390574E-04
3.960838E+03	6.674583E-03	2.405995E-04
3.966327E+03	6.725734E-03	2.414672E-04
3.971818E+03	6.764551E-03	2.418775E-04
3.977308E+03	6.789493E-03	2.417811E-04
3.982799E+03	6.799625E-03	2.411510E-04
3.988290E+03	6.792270E-03	2.398991E-04
3.993780E+03	6.770799E-03	2.381517E-04
3.999271E+03	6.737909E-03	2.360093E-04
4.004761E+03	6.690711E-03	2.333763E-04
4.010252E+03	6.631033E-03	2.303226E-04
4.015742E+03	6.553438E-03	2.266655E-04
4.021233E+03	6.463512E-03	2.226055E-04
4.026723E+03	6.353604E-03	2.178855E-04
4.032214E+03	6.234341E-03	2.128775E-04
4.037703E+03	6.105651E-03	2.075833E-04
4.043194E+03	5.972920E-03	2.021892E-04
4.048685E+03	5.836481E-03	1.967084E-04
4.054175E+03	5.702980E-03	1.913656E-04
4.059666E+03	5.563091E-03	1.858482E-04
4.065156E+03	5.420842E-03	1.802928E-04
4.070647E+03	5.281459E-03	1.748738E-04
4.076137E+03	5.155345E-03	1.699328E-04
4.081628E+03	5.046578E-03	1.655978E-04
4.087118E+03	4.963392E-03	1.621300E-04
4.092609E+03	4.897326E-03	1.592431E-04
4.098100E+03	4.851666E-03	1.570357E-04
4.103590E+03	4.816134E-03	1.551677E-04
4.109081E+03	4.784904E-03	1.534477E-04
4.114571E+03	4.772443E-03	1.523356E-04
4.120061E+03	4.773917E-03	1.516695E-04
4.125551E+03	4.784696E-03	1.512966E-04
4.131042E+03	4.801898E-03	1.511221E-04
4.136532E+03	4.831942E-03	1.513443E-04
4.142023E+03	4.856292E-03	1.513795E-04
4.147513E+03	4.878162E-03	1.513300E-04
4.153004E+03	4.908447E-03	1.515334E-04
4.158495E+03	4.942538E-03	1.518442E-04
4.163985E+03	4.971205E-03	1.519785E-04
4.169476E+03	5.005071E-03	1.522621E-04
4.174966E+03	5.036254E-03	1.524540E-04
4.180457E+03	5.063555E-03	1.525192E-04
4.185947E+03	5.091046E-03	1.525816E-04
4.191438E+03	5.114917E-03	1.525276E-04
4.196927E+03	5.133910E-03	1.523215E-04
4.202418E+03	5.149886E-03	1.520203E-04
4.207908E+03	5.154109E-03	1.513689E-04
4.213399E+03	5.147518E-03	1.504001E-04
4.218890E+03	5.144265E-03	1.495302E-04
4.224380E+03	5.134278E-03	1.484665E-04
4.229871E+03	5.128563E-03	1.475285E-04
4.235361E+03	5.126586E-03	1.466992E-04
4.240852E+03	5.131480E-03	1.460661E-04
4.246342E+03	5.132774E-03	1.453295E-04
4.251833E+03	5.144472E-03	1.448856E-04
4.257323E+03	5.158897E-03	1.445146E-04
4.262814E+03	5.180450E-03	1.443380E-04
4.268303E+03	5.206192E-03	1.442713E-04
4.273794E+03	5.242722E-03	1.444942E-04
4.279285E+03	5.278708E-03	1.446913E-04
4.284775E+03	5.315479E-03	1.448993E-04
4.290266E+03	5.344714E-03	1.448922E-04
4.295756E+03	5.368347E-03	1.447256E-04
4.301247E+03	5.381122E-03	1.442611E-04
4.306737E+03	5.382643E-03	1.434932E-04
4.312228E+03	5.372650E-03	1.424201E-04
4.317718E+03	5.343369E-03	1.408420E-04
4.323209E+03	5.294210E-03	1.387523E-04
4.328700E+03	5.223316E-03	1.361115E-04
4.334190E+03	5.131232E-03	1.329435E-04
4.339681E+03	5.015449E-03	1.291933E-04
4.345170E+03	4.884281E-03	1.250844E-04
4.350661E+03	4.738536E-03	1.206442E-04
4.356151E+03	4.582348E-03	1.159839E-04
4.361642E+03	4.420957E-03	1.112400E-04
4.367132E+03	4.261422E-03	1.065913E-04
4.372623E+03	4.106524E-03	1.021061E-04
4.378113E+03	3.968348E-03	9.808102E-05
4.383604E+03	3.846819E-03	9.450673E-05
4.389095E+03	3.746311E-03	9.148254E-05
4.394585E+03	3.669599E-03	8.906650E-05
4.400076E+03	3.617269E-03	8.726214E-05
4.405566E+03	3.584663E-03	8.594700E-05
4.411057E+03	3.577742E-03	8.525440E-05
4.416547E+03	3.598218E-03	8.521356E-05
4.422038E+03	3.643952E-03	8.576217E-05
4.427527E+03	3.713475E-03	8.685488E-05
4.433018E+03	3.805448E-03	8.845004E-05
4.438508E+03	3.911175E-03	9.033722E-05
4.443999E+03	4.018855E-03	9.223964E-05
4.449490E+03	4.138291E-03	9.438024E-05
4.454980E+03	4.265770E-03	9.666986E-05
4.460471E+03	4.406121E-03	9.921399E-05
4.465961E+03	4.551855E-03	1.018397E-04
4.471452E+03	4.707268E-03	1.046403E-04
4.476942E+03	4.862102E-03	1.073855E-04
4.482433E+03	5.020261E-03	1.101613E-04
4.487923E+03	5.176842E-03	1.128596E-04
4.493414E+03	5.343227E-03	1.157281E-04
4.498904E+03	5.521727E-03	1.188125E-04
4.504394E+03	5.705656E-03	1.219653E-04
4.509885E+03	5.894288E-03	1.251687E-04
4.515375E+03	6.085034E-03	1.283668E-04
4.520866E+03	6.271553E-03	1.314260E-04
4.526356E+03	6.451462E-03	1.342991E-04
4.531847E+03	6.628732E-03	1.370713E-04
4.537337E+03	6.796758E-03	1.396084E-04
4.542828E+03	6.955474E-03	1.419133E-04
4.548318E+03	7.103571E-03	1.439637E-04
4.553809E+03	7.246990E-03	1.458840E-04
4.559300E+03	7.371878E-03	1.473996E-04
4.564790E+03	7.483512E-03	1.486230E-04
4.570281E+03	7.575969E-03	1.494433E-04
4.575771E+03	7.659152E-03	1.500625E-04
4.581261E+03	7.717233E-03	1.501768E-04
4.586751E+03	7.765402E-03	1.500898E-04
4.592242E+03	7.805633E-03	1.498437E-04
4.597732E+03	7.841236E-03	1.495050E-04
4.603223E+03	7.870234E-03	1.490383E-04
4.608713E+03	7.899220E-03	1.485705E-04
4.614204E+03	7.926217E-03	1.480649E-04
4.619695E+03	7.949914E-03	1.474981E-04
4.625185E+03	7.970304E-03	1.468717E-04
4.630676E+03	7.986078E-03	1.461630E-04
4.636166E+03	7.990648E-03	1.452544E-04
4.641657E+03	7.989287E-03	1.442454E-04
4.647147E+03	7.984635E-03	1.431858E-04
4.652637E+03	7.970109E-03	1.419598E-04
4.658127E+03	7.950322E-03	1.406526E-04
4.663618E+03	7.922643E-03	1.392200E-04
4.669108E+03	7.885761E-03	1.376421E-04
4.674599E+03	7.835071E-03	1.358425E-04
4.680090E+03	7.769928E-03	1.338149E-04
4.685580E+03	7.679817E-03	1.313845E-04
4.691071E+03	7.573949E-03	1.287162E-04
4.696561E+03	7.437874E-03	1.255712E-04
4.702052E+03	7.271600E-03	1.219596E-04
4.707542E+03	7.081067E-03	1.179899E-04
4.713033E+03	6.866282E-03	1.136696E-04
4.718523E+03	6.627912E-03	1.090170E-04
4.724014E+03	6.378988E-03	1.042516E-04
4.729503E+03	6.124624E-03	9.945925E-05
4.734994E+03	5.862925E-03	9.460978E-05
4.740485E+03	5.605849E-03	8.989638E-05
4.745975E+03	5.361661E-03	8.544839E-05
4.751466E+03	5.126614E-03	8.120167E-05
4.756956E+03	4.904579E-03	7.721351E-05
4.762447E+03	4.702827E-03	7.359308E-05
4.767937E+03	4.522139E-03	7.034588E-05
4.773428E+03	4.367224E-03	6.753816E-05
4.778918E+03	4.234594E-03	6.510858E-05
4.784409E+03	4.127716E-03	6.310360E-05
4.789900E+03	4.046707E-03	6.151781E-05
4.795390E+03	3.987488E-03	6.028258E-05
4.800881E+03	3.945527E-03	5.932408E-05
4.806371E+03	3.925861E-03	5.871326E-05
4.811861E+03	3.916684E-03	5.826921E-05
4.817351E+03	3.913538E-03	5.792342E-05
4.822842E+03	3.916419E-03	5.767460E-05
4.828332E+03	3.919169E-03	5.743132E-05
4.833823E+03	3.914192E-03	5.708296E-05
4.839313E+03	3.909347E-03	5.674533E-05
4.844804E+03	3.901429E-03	5.637214E-05
4.850295E+03	3.889653E-03	5.595279E-05
4.855785E+03	3.880825E-03	5.558555E-05
4.861276E+03	3.882010E-03	5.537066E-05
4.866766E+03	3.903015E-03	5.544577E-05
4.872257E+03	3.947491E-03	5.585937E-05
4.877747E+03	4.021770E-03	5.669721E-05
4.883238E+03	4.125314E-03	5.794760E-05
4.888727E+03	4.253206E-03	5.953810E-05
4.894218E+03	4.396872E-03	6.134645E-05
4.899708E+03	4.557676E-03	6.339056E-05
4.905199E+03	4.726138E-03	6.553793E-05
4.910690E+03	4.896048E-03	6.770295E-05
4.916180E+03	5.068123E-03	6.989638E-05
4.921671E+03	5.233023E-03	7.199053E-05
4.927161E+03	5.377631E-03	7.380707E-05
4.932652E+03	5.497388E-03	7.528633E-05
4.938142E+03	5.588124E-03	7.637414E-05
4.943633E+03	5.642092E-03	7.696762E-05
4.949123E+03	5.656044E-03	7.702551E-05
4.954614E+03	5.642920E-03	7.672642E-05
4.960103E+03	5.599276E-03	7.602503E-05
4.965594E+03	5.530995E-03	7.500238E-05
4.971085E+03	5.444937E-03	7.375203E-05
4.976575E+03	5.343326E-03	7.230415E-05
4.982066E+03	5.222389E-03	7.060756E-05
4.987556E+03	5.090283E-03	6.877223E-05
4.993047E+03	4.953788E-03	6.688908E-05
4.998537E+03	4.820858E-03	6.506462E-05
5.004028E+03	4.705105E-03	6.348152E-05
5.009518E+03	4.612123E-03	6.221424E-05
5.015009E+03	4.547565E-03	6.133815E-05
5.020500E+03	4.512912E-03	6.087260E-05
5.025990E+03	4.512127E-03	6.087073E-05
5.031481E+03	4.538874E-03	6.124702E-05
5.036970E+03	4.591647E-03	6.198132E-05
5.042461E+03	4.669720E-03	6.306425E-05
5.047951E+03	4.767347E-03	6.441871E-05
5.053442E+03	4.869760E-03	6.584563E-05
5.058932E+03	4.978195E-03	6.736203E-05
5.064423E+03	5.094004E-03	6.898658E-05
5.069913E+03	5.209781E-03	7.061930E-05
5.075404E+03	5.326825E-03	7.227800E-05
5.080895E+03	5.442275E-03	7.392399E-05
5.086385E+03	5.547421E-03	7.543888E-05
5.091876E+03	5.640648E-03	7.680025E-05
5.097366E+03	5.724100E-03	7.803678E-05
5.102857E+03	5.794407E-03	7.910193E-05
5.108347E+03	5.857811E-03	8.008023E-05
5.113838E+03	5.918278E-03	8.102548E-05
5.119327E+03	5.969895E-03	8.185631E-05
5.124818E+03	6.013129E-03	8.257847E-05
5.130308E+03	6.047454E-03	8.318405E-05
5.135799E+03	6.077037E-03	8.372966E-05
5.141290E+03	6.102980E-03	8.422999E-05
5.146780E+03	6.129699E-03	8.474566E-05
5.152271E+03	6.164648E-03	8.537977E-05
5.157761E+03	6.211523E-03	8.618401E-05
5.163252E+03	6.271812E-03	8.717981E-05
5.168742E+03	6.351085E-03	8.844558E-05
5.174233E+03	6.445248E-03	8.992557E-05
5.179723E+03	6.550730E-03	9.157085E-05
5.185214E+03	6.663183E-03	9.332134E-05
5.190704E+03	6.780791E-03	9.515198E-05
5.196194E+03	6.904199E-03	9.707208E-05
5.201685E+03	7.043121E-03	9.921887E-05
5.207175E+03	7.194315E-03	1.015477E-04
5.212666E+03	7.354535E-03	1.040135E-04
5.218156E+03	7.523780E-03	1.066169E-04
5.223647E+03	7.697515E-03	1.092941E-04
5.229137E+03	7.864079E-03	1.118792E-04
5.234628E+03	8.020249E-03	1.143257E-04
5.240118E+03	8.174434E-03	1.167525E-04
5.245609E+03	8.325344E-03	1.191407E-04
5.251100E+03	8.465871E-03	1.213879E-04
5.256590E+03	8.601833E-03	1.235765E-04
5.262081E+03	8.734526E-03	1.257247E-04
5.267570E+03	8.854256E-03	1.276919E-04
5.273061E+03	8.957147E-03	1.294210E-04
5.278551E+03	9.045144E-03	1.309384E-04
5.284042E+03	9.116963E-03	1.322240E-04
5.289532E+03	9.173252E-03	1.332857E-04
5.295023E+03	9.215967E-03	1.341504E-04
5.300513E+03	9.247041E-03	1.348451E-04
5.306004E+03	9.263254E-03	1.353216E-04
5.311495E+03	9.262674E-03	1.355503E-04
5.316985E+03	9.247243E-03	1.355581E-04
5.322476E+03	9.216324E-03	1.353344E-04
5.327966E+03	9.173150E-03	1.349255E-04
5.333457E+03	9.124180E-03	1.344256E-04
5.338947E+03	9.069422E-03	1.338341E-04
5.344437E+03	9.012104E-03	1.331984E-04
5.349927E+03	8.956743E-03	1.325852E-04
5.355418E+03	8.909147E-03	1.320804E-04
5.360908E+03	8.862861E-03	1.315888E-04
5.366399E+03	8.824339E-03	1.312064E-04
5.371890E+03	8.788411E-03	1.308566E-04
5.377380E+03	8.755081E-03	1.305395E-04
5.382871E+03	8.721769E-03	1.302168E-04
5.388361E+03	8.692339E-03	1.299462E-04
5.393852E+03	8.667435E-03	1.297374E-04
5.399342E+03	8.656732E-03	1.297356E-04
5.404833E+03	8.652485E-03	1.298255E-04
5.410323E+03	8.652762E-03	1.299781E-04
5.415814E+03	8.658198E-03	1.302032E-04
5.421303E+03	8.666221E-03	1.304622E-04
5.426794E+03	8.665877E-03	1.305901E-04
5.432285E+03	8.661028E-03	1.306447E-04
5.437775E+03	8.651035E-03	1.306161E-04
5.443266E+03	8.639121E-03	1.305526E-04
5.448756E+03	8.619488E-03	1.303666E-04
5.454247E+03	8.599224E-03	1.301649E-04
5.459737E+03	8.573825E-03	1.298794E-04
5.465228E+03	8.540711E-03	1.294706E-04
5.470718E+03	8.500532E-03	1.289482E-04
5.476209E+03	8.461012E-03	1.284293E-04
5.481700E+03	8.420868E-03	1.278945E-04
5.487190E+03	8.390395E-03	1.275001E-04
5.492681E+03	8.366374E-03	1.271976E-04
5.498171E+03	8.342364E-03	1.268891E-04
5.503661E+03	8.311291E-03	1.264670E-04
5.509151E+03	8.268654E-03	1.258627E-04
5.514642E+03	8.215101E-03	1.250859E-04
5.520132E+03	8.148060E-03	1.240975E-04
5.525623E+03	8.075894E-03	1.230246E-04
5.531113E+03	8.005039E-03	1.219656E-04
5.536604E+03	7.932277E-03	1.208715E-04
5.542095E+03	7.858253E-03	1.197523E-04
5.547585E+03	7.784894E-03	1.186374E-04
5.553076E+03	7.714129E-03	1.175565E-04
5.558566E+03	7.634388E-03	1.163334E-04
5.564057E+03	7.555309E-03	1.151151E-04
5.569547E+03	7.476256E-03	1.138920E-04
5.575038E+03	7.403011E-03	1.127525E-04
5.580527E+03	7.334924E-03	1.116868E-04
5.586018E+03	7.278428E-03	1.107928E-04
5.591508E+03	7.227726E-03	1.099823E-04
5.596999E+03	7.189255E-03	1.093533E-04
5.602490E+03	7.157862E-03	1.088272E-04
5.607980E+03	7.127123E-03	1.083065E-04
5.613471E+03	7.100255E-03	1.078400E-04
5.618961E+03	7.081105E-03	1.074861E-04
5.624452E+03	7.058760E-03	1.070790E-04
5.629942E+03	7.036423E-03	1.066677E-04
5.635433E+03	7.016671E-03	1.062910E-04
5.640923E+03	7.003349E-03	1.060073E-04
5.646414E+03	6.984904E-03	1.056416E-04
5.651903E+03	6.966473E-03	1.052719E-04
5.657394E+03	6.940992E-03	1.047914E-04
5.662885E+03	6.909107E-03	1.042105E-04
5.668375E+03	6.866963E-03	1.034712E-04
5.673866E+03	6.821630E-03	1.026807E-04
5.679356E+03	6.773742E-03	1.018488E-04
5.684847E+03	6.729721E-03	1.010722E-04
5.690337E+03	6.688281E-03	1.003315E-04
5.695828E+03	6.650065E-03	9.963632E-05
5.701318E+03	6.615715E-03	9.899625E-05
5.706809E+03	6.590360E-03	9.848783E-05
5.712300E+03	6.579128E-03	9.818717E-05
5.717790E+03	6.581382E-03	9.808395E-05
5.723281E+03	6.602890E-03	9.826328E-05
5.728770E+03	6.646861E-03	9.877161E-05
5.734261E+03	6.704946E-03	9.948353E-05
5.739751E+03	6.779077E-03	1.004267E-04
5.745242E+03	6.873732E-03	1.016662E-04
5.750732E+03	6.988919E-03	1.032006E-04
5.756223E+03	7.115652E-03	1.048957E-04
5.761713E+03	7.262267E-03	1.068734E-04
5.767204E+03	7.428766E-03	1.091319E-04
5.772695E+03	7.610015E-03	1.115944E-04
5.778185E+03	7.806017E-03	1.142593E-04
5.783676E+03	8.014849E-03	1.170974E-04
5.789166E+03	8.225600E-03	1.199483E-04
5.794657E+03	8.435720E-03	1.227744E-04
5.800147E+03	8.640711E-03	1.255104E-04
5.805638E+03	8.836095E-03	1.280915E-04
5.811127E+03	9.019941E-03	1.304907E-04
5.816618E+03	9.192901E-03	1.327182E-04
5.822108E+03	9.343431E-03	1.346086E-04
5.827599E+03	9.465765E-03	1.360810E-04
5.833090E+03	9.550924E-03	1.370092E-04
5.838580E+03	9.600842E-03	1.374245E-04
5.844071E+03	9.614872E-03	1.373210E-04
5.849561E+03	9.604555E-03	1.368666E-04
5.855052E+03	9.578234E-03	1.361826E-04
5.860542E+03	9.538462E-03	1.353069E-04
5.866033E+03	9.489095E-03	1.342956E-04
5.871523E+03	9.432693E-03	1.331859E-04
5.877014E+03	9.368620E-03	1.319699E-04
5.882504E+03	9.296227E-03	1.306393E-04
