#wls	flux	fluxerr
1.592040E+03	1.902650E-04	1.587812E-05
1.631841E+03	1.910614E-04	1.589034E-05
1.671642E+03	1.919602E-04	1.590917E-05
1.711443E+03	1.929273E-04	1.593169E-05
1.751244E+03	1.939914E-04	1.596012E-05
1.791045E+03	1.951413E-04	1.599341E-05
1.830846E+03	1.963567E-04	1.602976E-05
1.870647E+03	1.976088E-04	1.606671E-05
1.910448E+03	1.988441E-04	1.609983E-05
1.950249E+03	2.000581E-04	1.612871E-05
1.990050E+03	2.012800E-04	1.615565E-05
2.029851E+03	2.026009E-04	1.618786E-05
2.069652E+03	2.042398E-04	1.624257E-05
2.109453E+03	2.065858E-04	1.635015E-05
2.149254E+03	2.100179E-04	1.653955E-05
2.189055E+03	2.147342E-04	1.682486E-05
2.228856E+03	2.207737E-04	1.720743E-05
2.268657E+03	2.279922E-04	1.767422E-05
2.308458E+03	2.362083E-04	1.820953E-05
2.348259E+03	2.452821E-04	1.880105E-05
2.388060E+03	2.550901E-04	1.943794E-05
2.427861E+03	2.656691E-04	2.012163E-05
2.467662E+03	2.770070E-04	2.084979E-05
2.507463E+03	2.891927E-04	2.162758E-05
2.547264E+03	3.022742E-04	2.245691E-05
2.587065E+03	3.163694E-04	2.334469E-05
2.626866E+03	3.315505E-04	2.429415E-05
2.666667E+03	3.479101E-04	2.530982E-05
2.706468E+03	3.655302E-04	2.639513E-05
2.746269E+03	3.845152E-04	2.755491E-05
2.786070E+03	4.049168E-04	2.878985E-05
2.825871E+03	4.268745E-04	3.010667E-05
2.865672E+03	4.505101E-04	3.151038E-05
2.905473E+03	4.760827E-04	3.301512E-05
2.945274E+03	5.039290E-04	3.463960E-05
2.985075E+03	5.345143E-04	3.641034E-05
2.995025E+03	5.426575E-04	3.687983E-05
3.004975E+03	5.509984E-04	3.735975E-05
3.014925E+03	5.595556E-04	3.785124E-05
3.024876E+03	5.683484E-04	3.835548E-05
3.034826E+03	5.773846E-04	3.887286E-05
3.044776E+03	5.866727E-04	3.940383E-05
3.054726E+03	5.962456E-04	3.995042E-05
3.064677E+03	6.060911E-04	4.051168E-05
3.074627E+03	6.162117E-04	4.108761E-05
3.084577E+03	6.266417E-04	4.168035E-05
3.094527E+03	6.373846E-04	4.228992E-05
3.104478E+03	6.484601E-04	4.291748E-05
3.114428E+03	6.598414E-04	4.356105E-05
3.124378E+03	6.715949E-04	4.422483E-05
3.134328E+03	6.836949E-04	4.490692E-05
3.144279E+03	6.961622E-04	4.560848E-05
3.154229E+03	7.090179E-04	4.633067E-05
3.164179E+03	7.222683E-04	4.707367E-05
3.174129E+03	7.359357E-04	4.783871E-05
3.184080E+03	7.500271E-04	4.862599E-05
3.194030E+03	7.645657E-04	4.943676E-05
3.203980E+03	7.795595E-04	5.027127E-05
3.213930E+03	7.950329E-04	5.113083E-05
3.223881E+03	8.109948E-04	5.201571E-05
3.233831E+03	8.274547E-04	5.292624E-05
3.243781E+03	8.444388E-04	5.386378E-05
3.253731E+03	8.619582E-04	5.482873E-05
3.263682E+03	8.800398E-04	5.582246E-05
3.273632E+03	8.986961E-04	5.684543E-05
3.283582E+03	9.179398E-04	5.789809E-05
3.293532E+03	9.377847E-04	5.898094E-05
3.303483E+03	9.582611E-04	6.009553E-05
3.313433E+03	9.793839E-04	6.124240E-05
3.323383E+03	1.001169E-03	6.242214E-05
3.333333E+03	1.023634E-03	6.363542E-05
3.343284E+03	1.046780E-03	6.488187E-05
3.353234E+03	1.070641E-03	6.616323E-05
3.363184E+03	1.095221E-03	6.747922E-05
3.373134E+03	1.120555E-03	6.883166E-05
3.383085E+03	1.146651E-03	7.022039E-05
3.393035E+03	1.173495E-03	7.164424E-05
3.402985E+03	1.201146E-03	7.310615E-05
3.412935E+03	1.229576E-03	7.460407E-05
3.422886E+03	1.258811E-03	7.613900E-05
3.432836E+03	1.288859E-03	7.771096E-05
3.442786E+03	1.319732E-03	7.932001E-05
3.452736E+03	1.351422E-03	8.096525E-05
3.462687E+03	1.383940E-03	8.264679E-05
3.472637E+03	1.417265E-03	8.436277E-05
3.482587E+03	1.451425E-03	8.611438E-05
3.492537E+03	1.486398E-03	8.789979E-05
3.502488E+03	1.522163E-03	8.971714E-05
3.512438E+03	1.558715E-03	9.156562E-05
3.522388E+03	1.595995E-03	9.344125E-05
3.532338E+03	1.633978E-03	9.534212E-05
3.542289E+03	1.672640E-03	9.726628E-05
3.552239E+03	1.711936E-03	9.921068E-05
3.562189E+03	1.751819E-03	1.011722E-04
3.572139E+03	1.792223E-03	1.031464E-04
3.582090E+03	1.833151E-03	1.051334E-04
3.592040E+03	1.874532E-03	1.071285E-04
3.601990E+03	1.916347E-03	1.091304E-04
3.611940E+03	1.958575E-03	1.111374E-04
3.621891E+03	2.001192E-03	1.131481E-04
3.631841E+03	2.044172E-03	1.151605E-04
3.641791E+03	2.087503E-03	1.171737E-04
3.651741E+03	2.131193E-03	1.191879E-04
3.661692E+03	2.175226E-03	1.212019E-04
3.671642E+03	2.219561E-03	1.232131E-04
3.681592E+03	2.264235E-03	1.252234E-04
3.691542E+03	2.309198E-03	1.272297E-04
3.701493E+03	2.354461E-03	1.292323E-04
3.711443E+03	2.400007E-03	1.312302E-04
3.721393E+03	2.445838E-03	1.332230E-04
3.731343E+03	2.491904E-03	1.352080E-04
3.741294E+03	2.538198E-03	1.371845E-04
3.751244E+03	2.584727E-03	1.391528E-04
3.761194E+03	2.631428E-03	1.411091E-04
3.771144E+03	2.678277E-03	1.430521E-04
3.781095E+03	2.725242E-03	1.449800E-04
3.791045E+03	2.772289E-03	1.468908E-04
3.800995E+03	2.819353E-03	1.487810E-04
3.810945E+03	2.866390E-03	1.506482E-04
3.820896E+03	2.913371E-03	1.524909E-04
3.830846E+03	2.960192E-03	1.543038E-04
3.840796E+03	3.006820E-03	1.560850E-04
3.850746E+03	3.053189E-03	1.578314E-04
3.860697E+03	3.099206E-03	1.595383E-04
3.870647E+03	3.144806E-03	1.612026E-04
3.880597E+03	3.189912E-03	1.628205E-04
3.890547E+03	3.234425E-03	1.643875E-04
3.900498E+03	3.278300E-03	1.659015E-04
3.910448E+03	3.321406E-03	1.673564E-04
3.920398E+03	3.363704E-03	1.687507E-04
3.930348E+03	3.405118E-03	1.700813E-04
3.940299E+03	3.445528E-03	1.713427E-04
3.950249E+03	3.484871E-03	1.725324E-04
3.960199E+03	3.523088E-03	1.736484E-04
3.970149E+03	3.560123E-03	1.746887E-04
3.980100E+03	3.595877E-03	1.756491E-04
3.990050E+03	3.630310E-03	1.765287E-04
4.000000E+03	3.663387E-03	1.773267E-04
4.009950E+03	3.695057E-03	1.780415E-04
4.019900E+03	3.725275E-03	1.786720E-04
4.029851E+03	3.754034E-03	1.792190E-04
4.039801E+03	3.781308E-03	1.796821E-04
4.049751E+03	3.807047E-03	1.800602E-04
4.059701E+03	3.831301E-03	1.803566E-04
4.069652E+03	3.854042E-03	1.805711E-04
4.079602E+03	3.875310E-03	1.807066E-04
4.089552E+03	3.895114E-03	1.807647E-04
4.099502E+03	3.913451E-03	1.807462E-04
4.109453E+03	3.930414E-03	1.806566E-04
4.119403E+03	3.946005E-03	1.804969E-04
4.129353E+03	3.960274E-03	1.802704E-04
4.139303E+03	3.973290E-03	1.799813E-04
4.149254E+03	3.985117E-03	1.796333E-04
4.159204E+03	3.995803E-03	1.792296E-04
4.169154E+03	4.005446E-03	1.787753E-04
4.179104E+03	4.014068E-03	1.782724E-04
4.189055E+03	4.021802E-03	1.777273E-04
4.199005E+03	4.028677E-03	1.771422E-04
4.208955E+03	4.034820E-03	1.765233E-04
4.218905E+03	4.040261E-03	1.758726E-04
4.228856E+03	4.045157E-03	1.751973E-04
4.238806E+03	4.049569E-03	1.745008E-04
4.248756E+03	4.053580E-03	1.737868E-04
4.258706E+03	4.057279E-03	1.730598E-04
4.268657E+03	4.060804E-03	1.723259E-04
4.278607E+03	4.064266E-03	1.715900E-04
4.288557E+03	4.067732E-03	1.708551E-04
4.298507E+03	4.071332E-03	1.701269E-04
4.308458E+03	4.075155E-03	1.694091E-04
4.318408E+03	4.079312E-03	1.687064E-04
4.328358E+03	4.083917E-03	1.680234E-04
4.338308E+03	4.088998E-03	1.673611E-04
4.348259E+03	4.094551E-03	1.667192E-04
4.358209E+03	4.100422E-03	1.660914E-04
4.368159E+03	4.106584E-03	1.654767E-04
4.378109E+03	4.112860E-03	1.648679E-04
4.388060E+03	4.119202E-03	1.642632E-04
4.398010E+03	4.125449E-03	1.636565E-04
4.407960E+03	4.131492E-03	1.630436E-04
4.417910E+03	4.137223E-03	1.624208E-04
4.427861E+03	4.142514E-03	1.617834E-04
4.437811E+03	4.147227E-03	1.611266E-04
4.447761E+03	4.151262E-03	1.604470E-04
4.457711E+03	4.154539E-03	1.597423E-04
4.467662E+03	4.156837E-03	1.590047E-04
4.477612E+03	4.158098E-03	1.582328E-04
4.487562E+03	4.158203E-03	1.574229E-04
4.497512E+03	4.156990E-03	1.565699E-04
4.507463E+03	4.154372E-03	1.556714E-04
4.517413E+03	4.150233E-03	1.547242E-04
4.527363E+03	4.144490E-03	1.537263E-04
4.537313E+03	4.137008E-03	1.526739E-04
4.547264E+03	4.127763E-03	1.515672E-04
4.557214E+03	4.116638E-03	1.504032E-04
4.567164E+03	4.103638E-03	1.491832E-04
4.577114E+03	4.088648E-03	1.479043E-04
4.587065E+03	4.071739E-03	1.465703E-04
4.597015E+03	4.052841E-03	1.451798E-04
4.606965E+03	4.032002E-03	1.437358E-04
4.616915E+03	4.009297E-03	1.422420E-04
4.626866E+03	3.984793E-03	1.407018E-04
4.636816E+03	3.958548E-03	1.391183E-04
4.646766E+03	3.930749E-03	1.374989E-04
4.656716E+03	3.901471E-03	1.358472E-04
4.666667E+03	3.870990E-03	1.341732E-04
4.676617E+03	3.839398E-03	1.324810E-04
4.686567E+03	3.806976E-03	1.307806E-04
4.696517E+03	3.773964E-03	1.290805E-04
4.706468E+03	3.740615E-03	1.273897E-04
4.716418E+03	3.707200E-03	1.257175E-04
4.726368E+03	3.674026E-03	1.240741E-04
4.736318E+03	3.641373E-03	1.224689E-04
4.746269E+03	3.609531E-03	1.209112E-04
4.756219E+03	3.578813E-03	1.194112E-04
4.766169E+03	3.549485E-03	1.179772E-04
4.776119E+03	3.521816E-03	1.166174E-04
4.786070E+03	3.496055E-03	1.153394E-04
4.796020E+03	3.472429E-03	1.141500E-04
4.805970E+03	3.451188E-03	1.130565E-04
4.815920E+03	3.432501E-03	1.120636E-04
4.825871E+03	3.416587E-03	1.111776E-04
4.835821E+03	3.403583E-03	1.104019E-04
4.845771E+03	3.393669E-03	1.097415E-04
4.855721E+03	3.386917E-03	1.091979E-04
4.865672E+03	3.383229E-03	1.087670E-04
4.875622E+03	3.382558E-03	1.084465E-04
4.885572E+03	3.384794E-03	1.082323E-04
4.895522E+03	3.389916E-03	1.081226E-04
4.905473E+03	3.397778E-03	1.081120E-04
4.915423E+03	3.408324E-03	1.081979E-04
4.925373E+03	3.421471E-03	1.083770E-04
4.935323E+03	3.437137E-03	1.086458E-04
4.945274E+03	3.455248E-03	1.090016E-04
4.955224E+03	3.475684E-03	1.094400E-04
4.965174E+03	3.498442E-03	1.099604E-04
4.975124E+03	3.523379E-03	1.105577E-04
4.985075E+03	3.550452E-03	1.112304E-04
4.995025E+03	3.579594E-03	1.119759E-04
5.004975E+03	3.610732E-03	1.127915E-04
5.014925E+03	3.643797E-03	1.136749E-04
5.024876E+03	3.678682E-03	1.146224E-04
5.034826E+03	3.715348E-03	1.156326E-04
5.044776E+03	3.753721E-03	1.167030E-04
5.054726E+03	3.793692E-03	1.178299E-04
5.064677E+03	3.835219E-03	1.190118E-04
5.074627E+03	3.878179E-03	1.202449E-04
5.084577E+03	3.922534E-03	1.215277E-04
5.094527E+03	3.968153E-03	1.228560E-04
5.104478E+03	4.014983E-03	1.242282E-04
5.114428E+03	4.062855E-03	1.256387E-04
5.124378E+03	4.111747E-03	1.270868E-04
5.134328E+03	4.161481E-03	1.285670E-04
5.144279E+03	4.212026E-03	1.300780E-04
5.154229E+03	4.263196E-03	1.316141E-04
5.164179E+03	4.314914E-03	1.331727E-04
5.174129E+03	4.367031E-03	1.347491E-04
5.184080E+03	4.419465E-03	1.363406E-04
5.194030E+03	4.472098E-03	1.379434E-04
5.203980E+03	4.524728E-03	1.395512E-04
5.213930E+03	4.577320E-03	1.411627E-04
5.223881E+03	4.629708E-03	1.427726E-04
5.233831E+03	4.681734E-03	1.443758E-04
5.243781E+03	4.733318E-03	1.459697E-04
5.253731E+03	4.784357E-03	1.475509E-04
5.263682E+03	4.834738E-03	1.491156E-04
5.273632E+03	4.884263E-03	1.506575E-04
5.283582E+03	4.932930E-03	1.521763E-04
5.293532E+03	4.980597E-03	1.536674E-04
5.303483E+03	5.027188E-03	1.551280E-04
5.313433E+03	5.072575E-03	1.565541E-04
5.323383E+03	5.116736E-03	1.579446E-04
5.333333E+03	5.159573E-03	1.592962E-04
5.343284E+03	5.201088E-03	1.606086E-04
5.353234E+03	5.241143E-03	1.618772E-04
5.363184E+03	5.279763E-03	1.631026E-04
5.373134E+03	5.316935E-03	1.642839E-04
5.383085E+03	5.352606E-03	1.654192E-04
5.393035E+03	5.386779E-03	1.665083E-04
5.402985E+03	5.419527E-03	1.675531E-04
5.412935E+03	5.450719E-03	1.685493E-04
5.422886E+03	5.480444E-03	1.694991E-04
5.432836E+03	5.508698E-03	1.704023E-04
5.442786E+03	5.535475E-03	1.712583E-04
5.452736E+03	5.560841E-03	1.720688E-04
5.462687E+03	5.584978E-03	1.728391E-04
5.472637E+03	5.607848E-03	1.735679E-04
5.482587E+03	5.629534E-03	1.742573E-04
5.492537E+03	5.650177E-03	1.749115E-04
5.502488E+03	5.669761E-03	1.755296E-04
5.512438E+03	5.688426E-03	1.761159E-04
5.522388E+03	5.706272E-03	1.766729E-04
5.532338E+03	5.723386E-03	1.772034E-04
5.542289E+03	5.739810E-03	1.777083E-04
5.552239E+03	5.755634E-03	1.781902E-04
5.562189E+03	5.770943E-03	1.786514E-04
5.572139E+03	5.785884E-03	1.790964E-04
5.582090E+03	5.800415E-03	1.795236E-04
5.592040E+03	5.814736E-03	1.799390E-04
5.601990E+03	5.828794E-03	1.803408E-04
5.611940E+03	5.842644E-03	1.807305E-04
5.621891E+03	5.856471E-03	1.811136E-04
5.631841E+03	5.870193E-03	1.814875E-04
5.641791E+03	5.883914E-03	1.818551E-04
5.651741E+03	5.897598E-03	1.822152E-04
5.661692E+03	5.911264E-03	1.825683E-04
5.671642E+03	5.924988E-03	1.829166E-04
5.681592E+03	5.938769E-03	1.832597E-04
5.691542E+03	5.952542E-03	1.835957E-04
5.701493E+03	5.966288E-03	1.839238E-04
5.711443E+03	5.980046E-03	1.842451E-04
5.721393E+03	5.993718E-03	1.845564E-04
5.731343E+03	6.007335E-03	1.848586E-04
5.741294E+03	6.020845E-03	1.851500E-04
5.751244E+03	6.034137E-03	1.854270E-04
5.761194E+03	6.047216E-03	1.856899E-04
5.771144E+03	6.060022E-03	1.859365E-04
5.781095E+03	6.072497E-03	1.861652E-04
5.791045E+03	6.084573E-03	1.863738E-04
5.800995E+03	6.096182E-03	1.865601E-04
5.810945E+03	6.107268E-03	1.867225E-04
5.820896E+03	6.117828E-03	1.868608E-04
5.830846E+03	6.127744E-03	1.869716E-04
5.840796E+03	6.137026E-03	1.870550E-04
5.850746E+03	6.145625E-03	1.871097E-04
5.860697E+03	6.153506E-03	1.871347E-04
5.870647E+03	6.160698E-03	1.871308E-04
5.880597E+03	6.167038E-03	1.870933E-04
5.890547E+03	6.172722E-03	1.870283E-04
5.900498E+03	6.177676E-03	1.869335E-04
5.910448E+03	6.181832E-03	1.868070E-04
5.920398E+03	6.185424E-03	1.866561E-04
5.930348E+03	6.188338E-03	1.864774E-04
5.940299E+03	6.190687E-03	1.862745E-04
5.950249E+03	6.192595E-03	1.860513E-04
5.960199E+03	6.194133E-03	1.858100E-04
5.970149E+03	6.195373E-03	1.855530E-04
5.980100E+03	6.196403E-03	1.852829E-04
5.990050E+03	6.197472E-03	1.850074E-04
6.000000E+03	6.198621E-03	1.847277E-04
6.009950E+03	6.200045E-03	1.844499E-04
6.019900E+03	6.201948E-03	1.841799E-04
6.029851E+03	6.204467E-03	1.839220E-04
6.039801E+03	6.207828E-03	1.836828E-04
6.049751E+03	6.212269E-03	1.834694E-04
6.059701E+03	6.217864E-03	1.832839E-04
6.069652E+03	6.225015E-03	1.831380E-04
6.079602E+03	6.233817E-03	1.830344E-04
6.089552E+03	6.244683E-03	1.829851E-04
6.099502E+03	6.257782E-03	1.829948E-04
6.109453E+03	6.273383E-03	1.830710E-04
6.119403E+03	6.291737E-03	1.832209E-04
6.129353E+03	6.313268E-03	1.834562E-04
6.139303E+03	6.338071E-03	1.837795E-04
6.149254E+03	6.366312E-03	1.841948E-04
6.159204E+03	6.397881E-03	1.846987E-04
6.169154E+03	6.432919E-03	1.852947E-04
6.179104E+03	6.471554E-03	1.859858E-04
6.189055E+03	6.513810E-03	1.867723E-04
6.199005E+03	6.559548E-03	1.876497E-04
6.208955E+03	6.608945E-03	1.886224E-04
6.218905E+03	6.661790E-03	1.896839E-04
6.228856E+03	6.718034E-03	1.908323E-04
6.238806E+03	6.777689E-03	1.920674E-04
6.248756E+03	6.840474E-03	1.933808E-04
6.258706E+03	6.906448E-03	1.947737E-04
6.268657E+03	6.975276E-03	1.962362E-04
6.278607E+03	7.046884E-03	1.977657E-04
6.288557E+03	7.120974E-03	1.993533E-04
6.298507E+03	7.197333E-03	2.009926E-04
6.308458E+03	7.275715E-03	2.026765E-04
6.318408E+03	7.355873E-03	2.043975E-04
6.328358E+03	7.437528E-03	2.061477E-04
6.338308E+03	7.520289E-03	2.079161E-04
6.348259E+03	7.603850E-03	2.096940E-04
6.358209E+03	7.687793E-03	2.114700E-04
6.368159E+03	7.771909E-03	2.132382E-04
6.378109E+03	7.855892E-03	2.149904E-04
6.388060E+03	7.939423E-03	2.167180E-04
6.398010E+03	8.022087E-03	2.184100E-04
6.407960E+03	8.103704E-03	2.200617E-04
6.417910E+03	8.184149E-03	2.216702E-04
6.427861E+03	8.262982E-03	2.232241E-04
6.437811E+03	8.340289E-03	2.247260E-04
6.447761E+03	8.415792E-03	2.261691E-04
6.457711E+03	8.489246E-03	2.275474E-04
6.467662E+03	8.560674E-03	2.288621E-04
6.477612E+03	8.629997E-03	2.301117E-04
6.487562E+03	8.696882E-03	2.312881E-04
6.497512E+03	8.761411E-03	2.323940E-04
6.507463E+03	8.823565E-03	2.334291E-04
6.517413E+03	8.883326E-03	2.343933E-04
6.527363E+03	8.940414E-03	2.352794E-04
6.537313E+03	8.995116E-03	2.360952E-04
6.547264E+03	9.047163E-03	2.368340E-04
6.557214E+03	9.096725E-03	2.375005E-04
6.567164E+03	9.143689E-03	2.380919E-04
6.577114E+03	9.188089E-03	2.386094E-04
6.587065E+03	9.230116E-03	2.390584E-04
6.597015E+03	9.269673E-03	2.394364E-04
6.606965E+03	9.306663E-03	2.397413E-04
6.616915E+03	9.341450E-03	2.399828E-04
6.626866E+03	9.373787E-03	2.401547E-04
6.636816E+03	9.403737E-03	2.402590E-04
6.646766E+03	9.431681E-03	2.403056E-04
6.656716E+03	9.457378E-03	2.402886E-04
6.666667E+03	9.481069E-03	2.402146E-04
6.676617E+03	9.502665E-03	2.400814E-04
6.686567E+03	9.522415E-03	2.398956E-04
6.696517E+03	9.540237E-03	2.396555E-04
6.706468E+03	9.556378E-03	2.393674E-04
6.716418E+03	9.570767E-03	2.390300E-04
6.726368E+03	9.583654E-03	2.386496E-04
6.736318E+03	9.594963E-03	2.382246E-04
6.746269E+03	9.604954E-03	2.377619E-04
6.756219E+03	9.613707E-03	2.372635E-04
6.766169E+03	9.621160E-03	2.367282E-04
6.776119E+03	9.627554E-03	2.361623E-04
6.786070E+03	9.632812E-03	2.355640E-04
6.796020E+03	9.637185E-03	2.349398E-04
6.805970E+03	9.640759E-03	2.342920E-04
6.815920E+03	9.643431E-03	2.336184E-04
6.825871E+03	9.645445E-03	2.329251E-04
6.835821E+03	9.646871E-03	2.322142E-04
6.845771E+03	9.647772E-03	2.314873E-04
6.855721E+03	9.648029E-03	2.307420E-04
6.865672E+03	9.648035E-03	2.299879E-04
6.875622E+03	9.647495E-03	2.292183E-04
6.885572E+03	9.646612E-03	2.284384E-04
6.895522E+03	9.645423E-03	2.276492E-04
6.905473E+03	9.643949E-03	2.268517E-04
6.915423E+03	9.642211E-03	2.260467E-04
6.925373E+03	9.640227E-03	2.252350E-04
6.935323E+03	9.637997E-03	2.244171E-04
6.945274E+03	9.635706E-03	2.235976E-04
6.955224E+03	9.632991E-03	2.227685E-04
6.965174E+03	9.630213E-03	2.219387E-04
6.975124E+03	9.627177E-03	2.211042E-04
6.985075E+03	9.623866E-03	2.202650E-04
6.995025E+03	9.620266E-03	2.194215E-04
7.004975E+03	9.616550E-03	2.185781E-04
7.014925E+03	9.612508E-03	2.177308E-04
7.024876E+03	9.608305E-03	2.168837E-04
7.034826E+03	9.603745E-03	2.160333E-04
7.044776E+03	9.598982E-03	2.151836E-04
7.054726E+03	9.593820E-03	2.143309E-04
7.064677E+03	9.588424E-03	2.134798E-04
7.074627E+03	9.582774E-03	2.126304E-04
7.084577E+03	9.576863E-03	2.117836E-04
7.094527E+03	9.570667E-03	2.109394E-04
7.104478E+03	9.563985E-03	2.100945E-04
7.114428E+03	9.557187E-03	2.092577E-04
7.124378E+03	9.550072E-03	2.084256E-04
7.134328E+03	9.542623E-03	2.075987E-04
7.144279E+03	9.534828E-03	2.067778E-04
7.154229E+03	9.526879E-03	2.059678E-04
7.164179E+03	9.518765E-03	2.051697E-04
7.174129E+03	9.510271E-03	2.043796E-04
7.184080E+03	9.501590E-03	2.036028E-04
7.194030E+03	9.492501E-03	2.028357E-04
7.203980E+03	9.483397E-03	2.020875E-04
7.213930E+03	9.473847E-03	2.013503E-04
7.223881E+03	9.464246E-03	2.006335E-04
7.233831E+03	9.454162E-03	1.999291E-04
7.243781E+03	9.443976E-03	1.992461E-04
7.253731E+03	9.433456E-03	1.985808E-04
7.263682E+03	9.422567E-03	1.979336E-04
7.273632E+03	9.411272E-03	1.973049E-04
7.283582E+03	9.399543E-03	1.966951E-04
7.293532E+03	9.387327E-03	1.961044E-04
7.303483E+03	9.374375E-03	1.955287E-04
7.313433E+03	9.360644E-03	1.949681E-04
7.323383E+03	9.346070E-03	1.944226E-04
7.333333E+03	9.330609E-03	1.938923E-04
7.343284E+03	9.313575E-03	1.933641E-04
7.353234E+03	9.295321E-03	1.928462E-04
7.363184E+03	9.275162E-03	1.923257E-04
7.373134E+03	9.253033E-03	1.918020E-04
7.383085E+03	9.228658E-03	1.912703E-04
7.393035E+03	9.201971E-03	1.907302E-04
7.402985E+03	9.172714E-03	1.901770E-04
7.412935E+03	9.141665E-03	1.896275E-04
7.422886E+03	9.108571E-03	1.890769E-04
7.432836E+03	9.073600E-03	1.885292E-04
7.442786E+03	9.037137E-03	1.879927E-04
7.452736E+03	8.999149E-03	1.874664E-04
7.462687E+03	8.959830E-03	1.869529E-04
7.472637E+03	8.919165E-03	1.864502E-04
7.482587E+03	8.877137E-03	1.859565E-04
7.492537E+03	8.834182E-03	1.854793E-04
7.502488E+03	8.789886E-03	1.850080E-04
7.512438E+03	8.744684E-03	1.845504E-04
7.522388E+03	8.698411E-03	1.841010E-04
7.532338E+03	8.650900E-03	1.836548E-04
7.542289E+03	8.602631E-03	1.832200E-04
7.552239E+03	8.553464E-03	1.827920E-04
7.562189E+03	8.503454E-03	1.823703E-04
7.572139E+03	8.452462E-03	1.819501E-04
7.582090E+03	8.400976E-03	1.815402E-04
7.592040E+03	8.348639E-03	1.811313E-04
7.601990E+03	8.295500E-03	1.807227E-04
7.611940E+03	8.241840E-03	1.803189E-04
7.621891E+03	8.187695E-03	1.799191E-04
7.631841E+03	8.132901E-03	1.795182E-04
7.641791E+03	8.077704E-03	1.791200E-04
7.651741E+03	8.021916E-03	1.787188E-04
7.661692E+03	7.965560E-03	1.783137E-04
7.671642E+03	7.908851E-03	1.779081E-04
7.681592E+03	7.851587E-03	1.774960E-04
7.691542E+03	7.793981E-03	1.770808E-04
7.701493E+03	7.735805E-03	1.766561E-04
7.711443E+03	7.677261E-03	1.762252E-04
7.721393E+03	7.618327E-03	1.757864E-04
