#wls	flux	fluxerr
1.592040E+03	7.978222E-05	8.367318E-06
1.631841E+03	7.901259E-05	8.264262E-06
1.671642E+03	7.823194E-05	8.159920E-06
1.711443E+03	7.745565E-05	8.055908E-06
1.751244E+03	7.666706E-05	7.950501E-06
1.791045E+03	7.588837E-05	7.846010E-06
1.830846E+03	7.509428E-05	7.739825E-06
1.870647E+03	7.428702E-05	7.632198E-06
1.910448E+03	7.345351E-05	7.521809E-06
1.950249E+03	7.259906E-05	7.409237E-06
1.990050E+03	7.171427E-05	7.293557E-06
2.029851E+03	7.084674E-05	7.179636E-06
2.069652E+03	7.007159E-05	7.075051E-06
2.109453E+03	6.951072E-05	6.991971E-06
2.149254E+03	6.926175E-05	6.939938E-06
2.189055E+03	6.934321E-05	6.920430E-06
2.228856E+03	6.973162E-05	6.930705E-06
2.268657E+03	7.030915E-05	6.958701E-06
2.308458E+03	7.101600E-05	6.998262E-06
2.348259E+03	7.179617E-05	7.043696E-06
2.388060E+03	7.259688E-05	7.089714E-06
2.427861E+03	7.344915E-05	7.139269E-06
2.467662E+03	7.432961E-05	7.189992E-06
2.507463E+03	7.524497E-05	7.242449E-06
2.547264E+03	7.621619E-05	7.298557E-06
2.587065E+03	7.726381E-05	7.360148E-06
2.626866E+03	7.836929E-05	7.425304E-06
2.666667E+03	7.955187E-05	7.495700E-06
2.706468E+03	8.083006E-05	7.572899E-06
2.746269E+03	8.220900E-05	7.657171E-06
2.786070E+03	8.368077E-05	7.747561E-06
2.825871E+03	8.528808E-05	7.847780E-06
2.865672E+03	8.703526E-05	7.957926E-06
2.905473E+03	8.892667E-05	8.078078E-06
2.945274E+03	9.100483E-05	8.211740E-06
2.985075E+03	9.328687E-05	8.360022E-06
2.995025E+03	9.388622E-05	8.399053E-06
3.004975E+03	9.451374E-05	8.440339E-06
3.014925E+03	9.514419E-05	8.481616E-06
3.024876E+03	9.580318E-05	8.525160E-06
3.034826E+03	9.647888E-05	8.569904E-06
3.044776E+03	9.717212E-05	8.615914E-06
3.054726E+03	9.788278E-05	8.663167E-06
3.064677E+03	9.862348E-05	8.712769E-06
3.074627E+03	9.936864E-05	8.762447E-06
3.084577E+03	1.001563E-04	8.815547E-06
3.094527E+03	1.009483E-04	8.868689E-06
3.104478E+03	1.017700E-04	8.924100E-06
3.114428E+03	1.026213E-04	8.981757E-06
3.124378E+03	1.034896E-04	9.040529E-06
3.134328E+03	1.043876E-04	9.101516E-06
3.144279E+03	1.053152E-04	9.164704E-06
3.154229E+03	1.062598E-04	9.228971E-06
3.164179E+03	1.072470E-04	9.296522E-06
3.174129E+03	1.082511E-04	9.365126E-06
3.184080E+03	1.092851E-04	9.435880E-06
3.194030E+03	1.103619E-04	9.509880E-06
3.203980E+03	1.114688E-04	9.586007E-06
3.213930E+03	1.125929E-04	9.663144E-06
3.223881E+03	1.137729E-04	9.744594E-06
3.233831E+03	1.149833E-04	9.828139E-06
3.243781E+03	1.162242E-04	9.913766E-06
3.253731E+03	1.175085E-04	1.000256E-05
3.263682E+03	1.188365E-04	1.009452E-05
3.273632E+03	1.201953E-04	1.018853E-05
3.283582E+03	1.215981E-04	1.028568E-05
3.293532E+03	1.230579E-04	1.038704E-05
3.303483E+03	1.245621E-04	1.049151E-05
3.313433E+03	1.260977E-04	1.059799E-05
3.323383E+03	1.277039E-04	1.070974E-05
3.333333E+03	1.293551E-04	1.082455E-05
3.343284E+03	1.310512E-04	1.094242E-05
3.353234E+03	1.328056E-04	1.106441E-05
3.363184E+03	1.346186E-04	1.119052E-05
3.373134E+03	1.364903E-04	1.132072E-05
3.383085E+03	1.384210E-04	1.145500E-05
3.393035E+03	1.404109E-04	1.159334E-05
3.402985E+03	1.424733E-04	1.173679E-05
3.412935E+03	1.445954E-04	1.188427E-05
3.422886E+03	1.467906E-04	1.203682E-05
3.432836E+03	1.490461E-04	1.219335E-05
3.442786E+03	1.513883E-04	1.235598E-05
3.452736E+03	1.538044E-04	1.252362E-05
3.462687E+03	1.562815E-04	1.269516E-05
3.472637E+03	1.588595E-04	1.287380E-05
3.482587E+03	1.615122E-04	1.305736E-05
3.492537E+03	1.642399E-04	1.324582E-05
3.502488E+03	1.670562E-04	1.344020E-05
3.512438E+03	1.699747E-04	1.364155E-05
3.522388E+03	1.729689E-04	1.384769E-05
3.532338E+03	1.760660E-04	1.406072E-05
3.542289E+03	1.792528E-04	1.427954E-05
3.552239E+03	1.825429E-04	1.450517E-05
3.562189E+03	1.859367E-04	1.473756E-05
3.572139E+03	1.894211E-04	1.497561E-05
3.582090E+03	1.930232E-04	1.522139E-05
3.592040E+03	1.967298E-04	1.547380E-05
3.601990E+03	2.005547E-04	1.573383E-05
3.611940E+03	2.044847E-04	1.600039E-05
3.621891E+03	2.085336E-04	1.627446E-05
3.631841E+03	2.126881E-04	1.655494E-05
3.641791E+03	2.169754E-04	1.684386E-05
3.651741E+03	2.213824E-04	1.714013E-05
3.661692E+03	2.259228E-04	1.744470E-05
3.671642E+03	2.305833E-04	1.775648E-05
3.681592E+03	2.353777E-04	1.807643E-05
3.691542E+03	2.402927E-04	1.840343E-05
3.701493E+03	2.453556E-04	1.873950E-05
3.711443E+03	2.505531E-04	1.908352E-05
3.721393E+03	2.558853E-04	1.943539E-05
3.731343E+03	2.613523E-04	1.979504E-05
3.741294E+03	2.669681E-04	2.016341E-05
3.751244E+03	2.727329E-04	2.054043E-05
3.761194E+03	2.786329E-04	2.092494E-05
3.771144E+03	2.846959E-04	2.131894E-05
3.781095E+03	2.908944E-04	2.172026E-05
3.791045E+03	2.972561E-04	2.213085E-05
3.800995E+03	3.037675E-04	2.254960E-05
3.810945E+03	3.104423E-04	2.297742E-05
3.820896E+03	3.172668E-04	2.341318E-05
3.830846E+03	3.242412E-04	2.385677E-05
3.840796E+03	3.313793E-04	2.430911E-05
3.850746E+03	3.386813E-04	2.477010E-05
3.860697E+03	3.461474E-04	2.523961E-05
3.870647E+03	3.537636E-04	2.571653E-05
3.880597E+03	3.615441E-04	2.620177E-05
3.890547E+03	3.695031E-04	2.669622E-05
3.900498E+03	3.776125E-04	2.719774E-05
3.910448E+03	3.858867E-04	2.770726E-05
3.920398E+03	3.943399E-04	2.822565E-05
3.930348E+03	4.029442E-04	2.875082E-05
3.940299E+03	4.117141E-04	2.928365E-05
3.950249E+03	4.206497E-04	2.982407E-05
3.960199E+03	4.297657E-04	3.037295E-05
3.970149E+03	4.390343E-04	3.092823E-05
3.980100E+03	4.484559E-04	3.148981E-05
3.990050E+03	4.580593E-04	3.205960E-05
4.000000E+03	4.678168E-04	3.263553E-05
4.009950E+03	4.777294E-04	3.321755E-05
4.019900E+03	4.878122E-04	3.380659E-05
4.029851E+03	4.980658E-04	3.440257E-05
4.039801E+03	5.084628E-04	3.500348E-05
4.049751E+03	5.190186E-04	3.561026E-05
4.059701E+03	5.297350E-04	3.622293E-05
4.069652E+03	5.405987E-04	3.684045E-05
4.079602E+03	5.516110E-04	3.746280E-05
4.089552E+03	5.627882E-04	3.809098E-05
4.099502E+03	5.741040E-04	3.872310E-05
4.109453E+03	5.855596E-04	3.935913E-05
4.119403E+03	5.971581E-04	3.999916E-05
4.129353E+03	6.089154E-04	4.064418E-05
4.139303E+03	6.207915E-04	4.129139E-05
4.149254E+03	6.328033E-04	4.194183E-05
4.159204E+03	6.449543E-04	4.259564E-05
4.169154E+03	6.572323E-04	4.325190E-05
4.179104E+03	6.696415E-04	4.391082E-05
4.189055E+03	6.821565E-04	4.457063E-05
4.199005E+03	6.947953E-04	4.523242E-05
4.208955E+03	7.075621E-04	4.589640E-05
4.218905E+03	7.204323E-04	4.656088E-05
4.228856E+03	7.333952E-04	4.722511E-05
4.238806E+03	7.464709E-04	4.789030E-05
4.248756E+03	7.596495E-04	4.855575E-05
4.258706E+03	7.729208E-04	4.922075E-05
4.268657E+03	7.862765E-04	4.988472E-05
4.278607E+03	7.997068E-04	5.054697E-05
4.288557E+03	8.132321E-04	5.120876E-05
4.298507E+03	8.268292E-04	5.186857E-05
4.308458E+03	8.404892E-04	5.252581E-05
4.318408E+03	8.542029E-04	5.317987E-05
4.328358E+03	8.679920E-04	5.383207E-05
4.338308E+03	8.818185E-04	5.448003E-05
4.348259E+03	8.956883E-04	5.512411E-05
4.358209E+03	9.096074E-04	5.576466E-05
4.368159E+03	9.235383E-04	5.639937E-05
4.378109E+03	9.375171E-04	5.703045E-05
4.388060E+03	9.515046E-04	5.765553E-05
4.398010E+03	9.654922E-04	5.827409E-05
4.407960E+03	9.795011E-04	5.888744E-05
4.417910E+03	9.935219E-04	5.949503E-05
4.427861E+03	1.007545E-03	6.009633E-05
4.437811E+03	1.021576E-03	6.069166E-05
4.447761E+03	1.035605E-03	6.128044E-05
4.457711E+03	1.049621E-03	6.186214E-05
4.467662E+03	1.063659E-03	6.243880E-05
4.477612E+03	1.077708E-03	6.300984E-05
4.487562E+03	1.091756E-03	6.357456E-05
4.497512E+03	1.105821E-03	6.413405E-05
4.507463E+03	1.119907E-03	6.468857E-05
4.517413E+03	1.134015E-03	6.523821E-05
4.527363E+03	1.148147E-03	6.578311E-05
4.537313E+03	1.162303E-03	6.632333E-05
4.547264E+03	1.176499E-03	6.685981E-05
4.557214E+03	1.190720E-03	6.739165E-05
4.567164E+03	1.204995E-03	6.792060E-05
4.577114E+03	1.219305E-03	6.844564E-05
4.587065E+03	1.233633E-03	6.896575E-05
4.597015E+03	1.248022E-03	6.948342E-05
4.606965E+03	1.262435E-03	6.999661E-05
4.616915E+03	1.276881E-03	7.050590E-05
4.626866E+03	1.291353E-03	7.101093E-05
4.636816E+03	1.305843E-03	7.151132E-05
4.646766E+03	1.320358E-03	7.200746E-05
4.656716E+03	1.334871E-03	7.249797E-05
4.666667E+03	1.349369E-03	7.298224E-05
4.676617E+03	1.363857E-03	7.346055E-05
4.686567E+03	1.378301E-03	7.393129E-05
4.696517E+03	1.392704E-03	7.439463E-05
4.706468E+03	1.407032E-03	7.484890E-05
4.716418E+03	1.421250E-03	7.529234E-05
4.726368E+03	1.435372E-03	7.572590E-05
4.736318E+03	1.449344E-03	7.614688E-05
4.746269E+03	1.463162E-03	7.655523E-05
4.756219E+03	1.476804E-03	7.695001E-05
4.766169E+03	1.490248E-03	7.733025E-05
4.776119E+03	1.503489E-03	7.769593E-05
4.786070E+03	1.516486E-03	7.804522E-05
4.796020E+03	1.529257E-03	7.837921E-05
4.805970E+03	1.541808E-03	7.869845E-05
4.815920E+03	1.554107E-03	7.900160E-05
4.825871E+03	1.566180E-03	7.929018E-05
4.835821E+03	1.578035E-03	7.956483E-05
4.845771E+03	1.589643E-03	7.982434E-05
4.855721E+03	1.601015E-03	8.006949E-05
4.865672E+03	1.612161E-03	8.030105E-05
4.875622E+03	1.623078E-03	8.051904E-05
4.885572E+03	1.633778E-03	8.072434E-05
4.895522E+03	1.644258E-03	8.091700E-05
4.905473E+03	1.654535E-03	8.109805E-05
4.915423E+03	1.664569E-03	8.126569E-05
4.925373E+03	1.674416E-03	8.142270E-05
4.935323E+03	1.684058E-03	8.156832E-05
4.945274E+03	1.693497E-03	8.170266E-05
4.955224E+03	1.702754E-03	8.182683E-05
4.965174E+03	1.711832E-03	8.194101E-05
4.975124E+03	1.720716E-03	8.204453E-05
4.985075E+03	1.729449E-03	8.213947E-05
4.995025E+03	1.738017E-03	8.222523E-05
5.004975E+03	1.746427E-03	8.230212E-05
5.014925E+03	1.754704E-03	8.237132E-05
5.024876E+03	1.762836E-03	8.243230E-05
5.034826E+03	1.770869E-03	8.248720E-05
5.044776E+03	1.778754E-03	8.253369E-05
5.054726E+03	1.786556E-03	8.257479E-05
5.064677E+03	1.794264E-03	8.261000E-05
5.074627E+03	1.801868E-03	8.263877E-05
5.084577E+03	1.809416E-03	8.266326E-05
5.094527E+03	1.816876E-03	8.268202E-05
5.104478E+03	1.824298E-03	8.269720E-05
5.114428E+03	1.831669E-03	8.270824E-05
5.124378E+03	1.839000E-03	8.271548E-05
5.134328E+03	1.846299E-03	8.271921E-05
5.144279E+03	1.853575E-03	8.271979E-05
5.154229E+03	1.860835E-03	8.271748E-05
5.164179E+03	1.868109E-03	8.271347E-05
5.174129E+03	1.875385E-03	8.270712E-05
5.184080E+03	1.882670E-03	8.269868E-05
5.194030E+03	1.889973E-03	8.268842E-05
5.203980E+03	1.897302E-03	8.267658E-05
5.213930E+03	1.904662E-03	8.266332E-05
5.223881E+03	1.912063E-03	8.264888E-05
5.233831E+03	1.919531E-03	8.263428E-05
5.243781E+03	1.927033E-03	8.261799E-05
5.253731E+03	1.934616E-03	8.260187E-05
5.263682E+03	1.942245E-03	8.258433E-05
5.273632E+03	1.949948E-03	8.256639E-05
5.283582E+03	1.957731E-03	8.254817E-05
5.293532E+03	1.965598E-03	8.252973E-05
5.303483E+03	1.973557E-03	8.251123E-05
5.313433E+03	1.981612E-03	8.249270E-05
5.323383E+03	1.989749E-03	8.247337E-05
5.333333E+03	1.997972E-03	8.245331E-05
5.343284E+03	2.006329E-03	8.243431E-05
5.353234E+03	2.014763E-03	8.241384E-05
5.363184E+03	2.023318E-03	8.239362E-05
5.373134E+03	2.032000E-03	8.237371E-05
5.383085E+03	2.040794E-03	8.235328E-05
5.393035E+03	2.049704E-03	8.233235E-05
5.402985E+03	2.058734E-03	8.231092E-05
5.412935E+03	2.067888E-03	8.228900E-05
5.422886E+03	2.077171E-03	8.226661E-05
5.432836E+03	2.086588E-03	8.224373E-05
5.442786E+03	2.096142E-03	8.222035E-05
5.452736E+03	2.105816E-03	8.219563E-05
5.462687E+03	2.115636E-03	8.217039E-05
5.472637E+03	2.125584E-03	8.214375E-05
5.482587E+03	2.135685E-03	8.211653E-05
5.492537E+03	2.145923E-03	8.208787E-05
5.502488E+03	2.156301E-03	8.205774E-05
5.512438E+03	2.166843E-03	8.202692E-05
5.522388E+03	2.177534E-03	8.199456E-05
5.532338E+03	2.188419E-03	8.196221E-05
5.542289E+03	2.199437E-03	8.192740E-05
5.552239E+03	2.210657E-03	8.189252E-05
5.562189E+03	2.222062E-03	8.185667E-05
5.572139E+03	2.233656E-03	8.181980E-05
5.582090E+03	2.245463E-03	8.178263E-05
5.592040E+03	2.257443E-03	8.174349E-05
5.601990E+03	2.269624E-03	8.170313E-05
5.611940E+03	2.282029E-03	8.166221E-05
5.621891E+03	2.294619E-03	8.161909E-05
5.631841E+03	2.307440E-03	8.157525E-05
5.641791E+03	2.320453E-03	8.152902E-05
5.651741E+03	2.333705E-03	8.148186E-05
5.661692E+03	2.347154E-03	8.143211E-05
5.671642E+03	2.360825E-03	8.138042E-05
5.681592E+03	2.374722E-03	8.132669E-05
5.691542E+03	2.388824E-03	8.127002E-05
5.701493E+03	2.403134E-03	8.121026E-05
5.711443E+03	2.417676E-03	8.114807E-05
5.721393E+03	2.432431E-03	8.108255E-05
5.731343E+03	2.447422E-03	8.101431E-05
5.741294E+03	2.462605E-03	8.094166E-05
5.751244E+03	2.478003E-03	8.086521E-05
5.761194E+03	2.493618E-03	8.078482E-05
5.771144E+03	2.509451E-03	8.070031E-05
5.781095E+03	2.525477E-03	8.061075E-05
5.791045E+03	2.541720E-03	8.051672E-05
5.800995E+03	2.558131E-03	8.041652E-05
5.810945E+03	2.574759E-03	8.031152E-05
5.820896E+03	2.591575E-03	8.020072E-05
5.830846E+03	2.608554E-03	8.008321E-05
5.840796E+03	2.625719E-03	7.995955E-05
5.850746E+03	2.643039E-03	7.982877E-05
5.860697E+03	2.660538E-03	7.969145E-05
5.870647E+03	2.678186E-03	7.954665E-05
5.880597E+03	2.695951E-03	7.939340E-05
5.890547E+03	2.713880E-03	7.923304E-05
5.900498E+03	2.731915E-03	7.906385E-05
5.910448E+03	2.750076E-03	7.888642E-05
5.920398E+03	2.768327E-03	7.869982E-05
5.930348E+03	2.786663E-03	7.850389E-05
5.940299E+03	2.805099E-03	7.829921E-05
5.950249E+03	2.823574E-03	7.808414E-05
5.960199E+03	2.842131E-03	7.786006E-05
5.970149E+03	2.860705E-03	7.762535E-05
5.980100E+03	2.879340E-03	7.738140E-05
5.990050E+03	2.897969E-03	7.712666E-05
6.000000E+03	2.916579E-03	7.686106E-05
6.009950E+03	2.935213E-03	7.658607E-05
6.019900E+03	2.953802E-03	7.630022E-05
6.029851E+03	2.972360E-03	7.600427E-05
6.039801E+03	2.990874E-03	7.569831E-05
6.049751E+03	3.009328E-03	7.538243E-05
6.059701E+03	3.027680E-03	7.505608E-05
6.069652E+03	3.045971E-03	7.472087E-05
6.079602E+03	3.064131E-03	7.437565E-05
6.089552E+03	3.082202E-03	7.402214E-05
6.099502E+03	3.100110E-03	7.365926E-05
6.109453E+03	3.117840E-03	7.328746E-05
6.119403E+03	3.135407E-03	7.290792E-05
6.129353E+03	3.152736E-03	7.251979E-05
6.139303E+03	3.169750E-03	7.212232E-05
6.149254E+03	3.186403E-03	7.171554E-05
6.159204E+03	3.202712E-03	7.130100E-05
6.169154E+03	3.218661E-03	7.087955E-05
6.179104E+03	3.234301E-03	7.045359E-05
6.189055E+03	3.249683E-03	7.002550E-05
6.199005E+03	3.264771E-03	6.959577E-05
6.208955E+03	3.279589E-03	6.916635E-05
6.218905E+03	3.294170E-03	6.873929E-05
6.228856E+03	3.308510E-03	6.831599E-05
6.238806E+03	3.322576E-03	6.789728E-05
6.248756E+03	3.336402E-03	6.748543E-05
6.258706E+03	3.350023E-03	6.708273E-05
6.268657E+03	3.363373E-03	6.668956E-05
6.278607E+03	3.376521E-03	6.630900E-05
6.288557E+03	3.389472E-03	6.594286E-05
6.298507E+03	3.402194E-03	6.559233E-05
6.308458E+03	3.414760E-03	6.526064E-05
6.318408E+03	3.427103E-03	6.494836E-05
6.328358E+03	3.439297E-03	6.465878E-05
6.338308E+03	3.451342E-03	6.439379E-05
6.348259E+03	3.463205E-03	6.415472E-05
6.358209E+03	3.474956E-03	6.394476E-05
6.368159E+03	3.486557E-03	6.376515E-05
6.378109E+03	3.498041E-03	6.361839E-05
6.388060E+03	3.509364E-03	6.350560E-05
6.398010E+03	3.520519E-03	6.342847E-05
6.407960E+03	3.531564E-03	6.338991E-05
6.417910E+03	3.542384E-03	6.338961E-05
6.427861E+03	3.553017E-03	6.342997E-05
6.437811E+03	3.563428E-03	6.351197E-05
6.447761E+03	3.573613E-03	6.363710E-05
6.457711E+03	3.583530E-03	6.380600E-05
6.467662E+03	3.593134E-03	6.401917E-05
6.477612E+03	3.602488E-03	6.427845E-05
6.487562E+03	3.611620E-03	6.458396E-05
6.497512E+03	3.620591E-03	6.493623E-05
6.507463E+03	3.629351E-03	6.533361E-05
6.517413E+03	3.637963E-03	6.577638E-05
6.527363E+03	3.646451E-03	6.626402E-05
6.537313E+03	3.654800E-03	6.679522E-05
6.547264E+03	3.662997E-03	6.736858E-05
6.557214E+03	3.671066E-03	6.798333E-05
6.567164E+03	3.678992E-03	6.863791E-05
6.577114E+03	3.686802E-03	6.933149E-05
6.587065E+03	3.694401E-03	7.006090E-05
6.597015E+03	3.701855E-03	7.082594E-05
6.606965E+03	3.709113E-03	7.162417E-05
6.616915E+03	3.716200E-03	7.245460E-05
6.626866E+03	3.723106E-03	7.331552E-05
6.636816E+03	3.729819E-03	7.420521E-05
6.646766E+03	3.736286E-03	7.512112E-05
6.656716E+03	3.742580E-03	7.606319E-05
6.666667E+03	3.748650E-03	7.702890E-05
6.676617E+03	3.754445E-03	7.801575E-05
6.686567E+03	3.760042E-03	7.902382E-05
6.696517E+03	3.765390E-03	8.005065E-05
6.706468E+03	3.770526E-03	8.109559E-05
6.716418E+03	3.775401E-03	8.215622E-05
6.726368E+03	3.780010E-03	8.323107E-05
6.736318E+03	3.784392E-03	8.431966E-05
6.746269E+03	3.788500E-03	8.541966E-05
6.756219E+03	3.792375E-03	8.653072E-05
6.766169E+03	3.795970E-03	8.765058E-05
6.776119E+03	3.799329E-03	8.877901E-05
6.786070E+03	3.802406E-03	8.991382E-05
6.796020E+03	3.805289E-03	9.105597E-05
6.805970E+03	3.807847E-03	9.220125E-05
6.815920E+03	3.810213E-03	9.335179E-05
6.825871E+03	3.812301E-03	9.450450E-05
6.835821E+03	3.814157E-03	9.565956E-05
6.845771E+03	3.815784E-03	9.681608E-05
6.855721E+03	3.817186E-03	9.797327E-05
6.865672E+03	3.818322E-03	9.912922E-05
6.875622E+03	3.819241E-03	1.002843E-04
6.885572E+03	3.819948E-03	1.014379E-04
6.895522E+03	3.820404E-03	1.025882E-04
6.905473E+03	3.820659E-03	1.037357E-04
6.915423E+03	3.820673E-03	1.048787E-04
6.925373E+03	3.820545E-03	1.060191E-04
6.935323E+03	3.820144E-03	1.071528E-04
6.945274E+03	3.819569E-03	1.082818E-04
6.955224E+03	3.818827E-03	1.094057E-04
6.965174E+03	3.817881E-03	1.105229E-04
6.975124E+03	3.816738E-03	1.116330E-04
6.985075E+03	3.815453E-03	1.127372E-04
6.995025E+03	3.813988E-03	1.138337E-04
7.004975E+03	3.812351E-03	1.149224E-04
7.014925E+03	3.810552E-03	1.160031E-04
7.024876E+03	3.808600E-03	1.170756E-04
7.034826E+03	3.806458E-03	1.181383E-04
7.044776E+03	3.804229E-03	1.191941E-04
7.054726E+03	3.801828E-03	1.202399E-04
7.064677E+03	3.799312E-03	1.212772E-04
7.074627E+03	3.796647E-03	1.223044E-04
7.084577E+03	3.793840E-03	1.233216E-04
7.094527E+03	3.790949E-03	1.243304E-04
7.104478E+03	3.787939E-03	1.253291E-04
7.114428E+03	3.784819E-03	1.263180E-04
7.124378E+03	3.781601E-03	1.272971E-04
7.134328E+03	3.778249E-03	1.282650E-04
7.144279E+03	3.774822E-03	1.292234E-04
7.154229E+03	3.771329E-03	1.301725E-04
7.164179E+03	3.767736E-03	1.311109E-04
7.174129E+03	3.764056E-03	1.320387E-04
7.184080E+03	3.760299E-03	1.329563E-04
7.194030E+03	3.756525E-03	1.338656E-04
7.203980E+03	3.752653E-03	1.347635E-04
7.213930E+03	3.748741E-03	1.356521E-04
7.223881E+03	3.744756E-03	1.365299E-04
7.233831E+03	3.740803E-03	1.374007E-04
7.243781E+03	3.736758E-03	1.382598E-04
7.253731E+03	3.732725E-03	1.391111E-04
7.263682E+03	3.728671E-03	1.399533E-04
7.273632E+03	3.724658E-03	1.407885E-04
7.283582E+03	3.720606E-03	1.416138E-04
7.293532E+03	3.716624E-03	1.424332E-04
7.303483E+03	3.712630E-03	1.432436E-04
7.313433E+03	3.708736E-03	1.440494E-04
7.323383E+03	3.704861E-03	1.448474E-04
7.333333E+03	3.701115E-03	1.456419E-04
7.343284E+03	3.697420E-03	1.464299E-04
7.353234E+03	3.693884E-03	1.472158E-04
7.363184E+03	3.690476E-03	1.479985E-04
7.373134E+03	3.687167E-03	1.487767E-04
7.383085E+03	3.684065E-03	1.495551E-04
7.393035E+03	3.681185E-03	1.503343E-04
7.402985E+03	3.678451E-03	1.511114E-04
7.412935E+03	3.675925E-03	1.518891E-04
7.422886E+03	3.673622E-03	1.526681E-04
7.432836E+03	3.671604E-03	1.534512E-04
7.442786E+03	3.669793E-03	1.542353E-04
7.452736E+03	3.668249E-03	1.550232E-04
7.462687E+03	3.666939E-03	1.558136E-04
7.472637E+03	3.665971E-03	1.566113E-04
7.482587E+03	3.665261E-03	1.574130E-04
7.492537E+03	3.664822E-03	1.582193E-04
7.502488E+03	3.664711E-03	1.590330E-04
7.512438E+03	3.664888E-03	1.598526E-04
7.522388E+03	3.665361E-03	1.606785E-04
7.532338E+03	3.666132E-03	1.615112E-04
7.542289E+03	3.667250E-03	1.623530E-04
7.552239E+03	3.668671E-03	1.632022E-04
7.562189E+03	3.670440E-03	1.640609E-04
7.572139E+03	3.672463E-03	1.649252E-04
7.582090E+03	3.674833E-03	1.657994E-04
7.592040E+03	3.677502E-03	1.666816E-04
7.601990E+03	3.680513E-03	1.675740E-04
7.611940E+03	3.683817E-03	1.684745E-04
7.621891E+03	3.687412E-03	1.693832E-04
7.631841E+03	3.691343E-03	1.703023E-04
7.641791E+03	3.695558E-03	1.712298E-04
7.651741E+03	3.700104E-03	1.721679E-04
7.661692E+03	3.704928E-03	1.731145E-04
7.671642E+03	3.710079E-03	1.740718E-04
7.681592E+03	3.715504E-03	1.750378E-04
7.691542E+03	3.721299E-03	1.760170E-04
7.701493E+03	3.727367E-03	1.770051E-04
7.711443E+03	3.733704E-03	1.780021E-04
7.721393E+03	3.740409E-03	1.790129E-04
