#wls	flux	fluxerr
1.592040E+03	1.071889E-04	2.601045E-05
1.631841E+03	1.073792E-04	2.596679E-05
1.671642E+03	1.075488E-04	2.591532E-05
1.711443E+03	1.077346E-04	2.586485E-05
1.751244E+03	1.079140E-04	2.580985E-05
1.791045E+03	1.080744E-04	2.574731E-05
1.830846E+03	1.082183E-04	2.567775E-05
1.870647E+03	1.083064E-04	2.559191E-05
1.910448E+03	1.083546E-04	2.549359E-05
1.950249E+03	1.083276E-04	2.537460E-05
1.990050E+03	1.082294E-04	2.523603E-05
2.029851E+03	1.081264E-04	2.509348E-05
2.069652E+03	1.081154E-04	2.496925E-05
2.109453E+03	1.084047E-04	2.491083E-05
2.149254E+03	1.091386E-04	2.495010E-05
2.189055E+03	1.103981E-04	2.510375E-05
2.228856E+03	1.121175E-04	2.535482E-05
2.268657E+03	1.141588E-04	2.567031E-05
2.308458E+03	1.164240E-04	2.602684E-05
2.348259E+03	1.187866E-04	2.639511E-05
2.388060E+03	1.212374E-04	2.677238E-05
2.427861E+03	1.237614E-04	2.715467E-05
2.467662E+03	1.263788E-04	2.754573E-05
2.507463E+03	1.291170E-04	2.795074E-05
2.547264E+03	1.319685E-04	2.836717E-05
2.587065E+03	1.349626E-04	2.880038E-05
2.626866E+03	1.381466E-04	2.925929E-05
2.666667E+03	1.415476E-04	2.974824E-05
2.706468E+03	1.451538E-04	3.026324E-05
2.746269E+03	1.489895E-04	3.080780E-05
2.786070E+03	1.531164E-04	3.139283E-05
2.825871E+03	1.575382E-04	3.201700E-05
2.865672E+03	1.622769E-04	3.268252E-05
2.905473E+03	1.673537E-04	3.339121E-05
2.945274E+03	1.728275E-04	3.415209E-05
2.985075E+03	1.786989E-04	3.496225E-05
2.995025E+03	1.802264E-04	3.517164E-05
3.004975E+03	1.817932E-04	3.538668E-05
3.014925E+03	1.833800E-04	3.560354E-05
3.024876E+03	1.849872E-04	3.582225E-05
3.034826E+03	1.866548E-04	3.605051E-05
3.044776E+03	1.883263E-04	3.627734E-05
3.054726E+03	1.900400E-04	3.651004E-05
3.064677E+03	1.917954E-04	3.674845E-05
3.074627E+03	1.935727E-04	3.698873E-05
3.084577E+03	1.954104E-04	3.723812E-05
3.094527E+03	1.972498E-04	3.748541E-05
3.104478E+03	1.991488E-04	3.774152E-05
3.114428E+03	2.010684E-04	3.799897E-05
3.124378E+03	2.030276E-04	3.826129E-05
3.134328E+03	2.050067E-04	3.852470E-05
3.144279E+03	2.070442E-04	3.879639E-05
3.154229E+03	2.091207E-04	3.907257E-05
3.164179E+03	2.112161E-04	3.934949E-05
3.174129E+03	2.133500E-04	3.963066E-05
3.184080E+03	2.155414E-04	3.991957E-05
3.194030E+03	2.177511E-04	4.020887E-05
3.203980E+03	2.200181E-04	4.050565E-05
3.213930E+03	2.223030E-04	4.080260E-05
3.223881E+03	2.246446E-04	4.110676E-05
3.233831E+03	2.270232E-04	4.141443E-05
3.243781E+03	2.294387E-04	4.172549E-05
3.253731E+03	2.319104E-04	4.204336E-05
3.263682E+03	2.344184E-04	4.236434E-05
3.273632E+03	2.369627E-04	4.268833E-05
3.283582E+03	2.395625E-04	4.301871E-05
3.293532E+03	2.421980E-04	4.335182E-05
3.303483E+03	2.448691E-04	4.368754E-05
3.313433E+03	2.476147E-04	4.403271E-05
3.323383E+03	2.503954E-04	4.438019E-05
3.333333E+03	2.532109E-04	4.472985E-05
3.343284E+03	2.560806E-04	4.508502E-05
3.353234E+03	2.590042E-04	4.544552E-05
3.363184E+03	2.619815E-04	4.581121E-05
3.373134E+03	2.650122E-04	4.618188E-05
3.383085E+03	2.680959E-04	4.655740E-05
3.393035E+03	2.712129E-04	4.693418E-05
3.402985E+03	2.744019E-04	4.731885E-05
3.412935E+03	2.776432E-04	4.770782E-05
3.422886E+03	2.809361E-04	4.810091E-05
3.432836E+03	2.842806E-04	4.849795E-05
3.442786E+03	2.876761E-04	4.889874E-05
3.452736E+03	2.911419E-04	4.930641E-05
3.462687E+03	2.946580E-04	4.971744E-05
3.472637E+03	2.982435E-04	5.013492E-05
3.482587E+03	3.018784E-04	5.055533E-05
3.492537E+03	3.055622E-04	5.097848E-05
3.502488E+03	3.093337E-04	5.141066E-05
3.512438E+03	3.131531E-04	5.184513E-05
3.522388E+03	3.170198E-04	5.228166E-05
3.532338E+03	3.209726E-04	5.272647E-05
3.542289E+03	3.249716E-04	5.317288E-05
3.552239E+03	3.290553E-04	5.362703E-05
3.562189E+03	3.331841E-04	5.408228E-05
3.572139E+03	3.373963E-04	5.454473E-05
3.582090E+03	3.416522E-04	5.500777E-05
3.592040E+03	3.459901E-04	5.547743E-05
3.601990E+03	3.503898E-04	5.595029E-05
3.611940E+03	3.548699E-04	5.642917E-05
3.621891E+03	3.594102E-04	5.691066E-05
3.631841E+03	3.640098E-04	5.739447E-05
3.641791E+03	3.686872E-04	5.788338E-05
3.651741E+03	3.734417E-04	5.837704E-05
3.661692E+03	3.782528E-04	5.887212E-05
3.671642E+03	3.831389E-04	5.937130E-05
3.681592E+03	3.880988E-04	5.987422E-05
3.691542E+03	3.931124E-04	6.037760E-05
3.701493E+03	3.982171E-04	6.088703E-05
3.711443E+03	4.033732E-04	6.139624E-05
3.721393E+03	4.086181E-04	6.191076E-05
3.731343E+03	4.139315E-04	6.242730E-05
3.741294E+03	4.193116E-04	6.294545E-05
3.751244E+03	4.247578E-04	6.346491E-05
3.761194E+03	4.302682E-04	6.398526E-05
3.771144E+03	4.358606E-04	6.450894E-05
3.781095E+03	4.415148E-04	6.503279E-05
3.791045E+03	4.472294E-04	6.555645E-05
3.800995E+03	4.530213E-04	6.608223E-05
3.810945E+03	4.588895E-04	6.660977E-05
3.820896E+03	4.648132E-04	6.713588E-05
3.830846E+03	4.708097E-04	6.766292E-05
3.840796E+03	4.768586E-04	6.818777E-05
3.850746E+03	4.829766E-04	6.871269E-05
3.860697E+03	4.891623E-04	6.923726E-05
3.870647E+03	4.953948E-04	6.975842E-05
3.880597E+03	5.016911E-04	7.027841E-05
3.890547E+03	5.080491E-04	7.079676E-05
3.900498E+03	5.144676E-04	7.131316E-05
3.910448E+03	5.209436E-04	7.182704E-05
3.920398E+03	5.274566E-04	7.233544E-05
3.930348E+03	5.340238E-04	7.284062E-05
3.940299E+03	5.406422E-04	7.334205E-05
3.950249E+03	5.473102E-04	7.383934E-05
3.960199E+03	5.540257E-04	7.433213E-05
3.970149E+03	5.607672E-04	7.481742E-05
3.980100E+03	5.675515E-04	7.529738E-05
3.990050E+03	5.743575E-04	7.576910E-05
4.000000E+03	5.812020E-04	7.623476E-05
4.009950E+03	5.880818E-04	7.669382E-05
4.019900E+03	5.949767E-04	7.714361E-05
4.029851E+03	6.019025E-04	7.758613E-05
4.039801E+03	6.088384E-04	7.801864E-05
4.049751E+03	6.157822E-04	7.844086E-05
4.059701E+03	6.227315E-04	7.885246E-05
4.069652E+03	6.296838E-04	7.925312E-05
4.079602E+03	6.366365E-04	7.964255E-05
4.089552E+03	6.435880E-04	8.002054E-05
4.099502E+03	6.505349E-04	8.038673E-05
4.109453E+03	6.574578E-04	8.073873E-05
4.119403E+03	6.643537E-04	8.107628E-05
4.129353E+03	6.712209E-04	8.139927E-05
4.139303E+03	6.780745E-04	8.170962E-05
4.149254E+03	6.848774E-04	8.200295E-05
4.159204E+03	6.916451E-04	8.228126E-05
4.169154E+03	6.983576E-04	8.254233E-05
4.179104E+03	7.050133E-04	8.278613E-05
4.189055E+03	7.116275E-04	8.301464E-05
4.199005E+03	7.181637E-04	8.322379E-05
4.208955E+03	7.246205E-04	8.341365E-05
4.218905E+03	7.309964E-04	8.358430E-05
4.228856E+03	7.373070E-04	8.373779E-05
4.238806E+03	7.435167E-04	8.387029E-05
4.248756E+03	7.496243E-04	8.398203E-05
4.258706E+03	7.556292E-04	8.407322E-05
4.268657E+03	7.615307E-04	8.414414E-05
4.278607E+03	7.673276E-04	8.419497E-05
4.288557E+03	7.730029E-04	8.422421E-05
4.298507E+03	7.785399E-04	8.423044E-05
4.308458E+03	7.839552E-04	8.421585E-05
4.318408E+03	7.892321E-04	8.417908E-05
4.328358E+03	7.943713E-04	8.412063E-05
4.338308E+03	7.993734E-04	8.404100E-05
4.348259E+03	8.042067E-04	8.393732E-05
4.358209E+03	8.089052E-04	8.381364E-05
4.368159E+03	8.134374E-04	8.366717E-05
4.378109E+03	8.178053E-04	8.349861E-05
4.388060E+03	8.220272E-04	8.331037E-05
4.398010E+03	8.260729E-04	8.309988E-05
4.407960E+03	8.299457E-04	8.286802E-05
4.417910E+03	8.336640E-04	8.261717E-05
4.427861E+03	8.371994E-04	8.234505E-05
4.437811E+03	8.405561E-04	8.205266E-05
4.447761E+03	8.437532E-04	8.174241E-05
4.457711E+03	8.467792E-04	8.141374E-05
4.467662E+03	8.496387E-04	8.106765E-05
4.477612E+03	8.523219E-04	8.070375E-05
4.487562E+03	8.548336E-04	8.032310E-05
4.497512E+03	8.571942E-04	7.992815E-05
4.507463E+03	8.593805E-04	7.951729E-05
4.517413E+03	8.614128E-04	7.909297E-05
4.527363E+03	8.632982E-04	7.865637E-05
4.537313E+03	8.650145E-04	7.820601E-05
4.547264E+03	8.665978E-04	7.774571E-05
4.557214E+03	8.680420E-04	7.727540E-05
4.567164E+03	8.693547E-04	7.679629E-05
4.577114E+03	8.705442E-04	7.630960E-05
4.587065E+03	8.716198E-04	7.581661E-05
4.597015E+03	8.725765E-04	7.531736E-05
4.606965E+03	8.734235E-04	7.481311E-05
4.616915E+03	8.741854E-04	7.430641E-05
4.626866E+03	8.748722E-04	7.379851E-05
4.636816E+03	8.754808E-04	7.328955E-05
4.646766E+03	8.760222E-04	7.278084E-05
4.656716E+03	8.765215E-04	7.227481E-05
4.666667E+03	8.769771E-04	7.177168E-05
4.676617E+03	8.774148E-04	7.127387E-05
4.686567E+03	8.778200E-04	7.078050E-05
4.696517E+03	8.782459E-04	7.029615E-05
4.706468E+03	8.786659E-04	6.981893E-05
4.716418E+03	8.791336E-04	6.935334E-05
4.726368E+03	8.796361E-04	6.889856E-05
4.736318E+03	8.801880E-04	6.845595E-05
4.746269E+03	8.808175E-04	6.802787E-05
4.756219E+03	8.815521E-04	6.761659E-05
4.766169E+03	8.823807E-04	6.722138E-05
4.776119E+03	8.833320E-04	6.684455E-05
4.786070E+03	8.844208E-04	6.648731E-05
4.796020E+03	8.856752E-04	6.615187E-05
4.805970E+03	8.870972E-04	6.583843E-05
4.815920E+03	8.887007E-04	6.554808E-05
4.825871E+03	8.905233E-04	6.528364E-05
4.835821E+03	8.925501E-04	6.504404E-05
4.845771E+03	8.948145E-04	6.483179E-05
4.855721E+03	8.972939E-04	6.464525E-05
4.865672E+03	9.000151E-04	6.448644E-05
4.875622E+03	9.029613E-04	6.435420E-05
4.885572E+03	9.061404E-04	6.424920E-05
4.895522E+03	9.095443E-04	6.417094E-05
4.905473E+03	9.131780E-04	6.411991E-05
4.915423E+03	9.170067E-04	6.409372E-05
4.925373E+03	9.210330E-04	6.409232E-05
4.935323E+03	9.252605E-04	6.411563E-05
4.945274E+03	9.296791E-04	6.416261E-05
4.955224E+03	9.342786E-04	6.423223E-05
4.965174E+03	9.390490E-04	6.432348E-05
4.975124E+03	9.439813E-04	6.443543E-05
4.985075E+03	9.490653E-04	6.456709E-05
4.995025E+03	9.542921E-04	6.471752E-05
5.004975E+03	9.596784E-04	6.488757E-05
5.014925E+03	9.651762E-04	6.507368E-05
5.024876E+03	9.708162E-04	6.527760E-05
5.034826E+03	9.765769E-04	6.549759E-05
5.044776E+03	9.824372E-04	6.573192E-05
5.054726E+03	9.884151E-04	6.598149E-05
5.064677E+03	9.944900E-04	6.624460E-05
5.074627E+03	1.000668E-03	6.652136E-05
5.084577E+03	1.006915E-03	6.680911E-05
5.094527E+03	1.013250E-03	6.710891E-05
5.104478E+03	1.019667E-03	6.741996E-05
5.114428E+03	1.026145E-03	6.774059E-05
5.124378E+03	1.032692E-03	6.807097E-05
5.134328E+03	1.039288E-03	6.840941E-05
5.144279E+03	1.045927E-03	6.875520E-05
5.154229E+03	1.052630E-03	6.910943E-05
5.164179E+03	1.059365E-03	6.946957E-05
5.174129E+03	1.066124E-03	6.983488E-05
5.184080E+03	1.072918E-03	7.020561E-05
5.194030E+03	1.079726E-03	7.058011E-05
5.203980E+03	1.086558E-03	7.095863E-05
5.213930E+03	1.093395E-03	7.133961E-05
5.223881E+03	1.100246E-03	7.172327E-05
5.233831E+03	1.107092E-03	7.210806E-05
5.243781E+03	1.113928E-03	7.249329E-05
5.253731E+03	1.120751E-03	7.287833E-05
5.263682E+03	1.127555E-03	7.326257E-05
5.273632E+03	1.134336E-03	7.364536E-05
5.283582E+03	1.141091E-03	7.402611E-05
5.293532E+03	1.147816E-03	7.440425E-05
5.303483E+03	1.154492E-03	7.477817E-05
5.313433E+03	1.161129E-03	7.514828E-05
5.323383E+03	1.167725E-03	7.551405E-05
5.333333E+03	1.174262E-03	7.587391E-05
5.343284E+03	1.180734E-03	7.622732E-05
5.353234E+03	1.187139E-03	7.657375E-05
5.363184E+03	1.193490E-03	7.691369E-05
5.373134E+03	1.199752E-03	7.724462E-05
5.383085E+03	1.205953E-03	7.756806E-05
5.393035E+03	1.212060E-03	7.788153E-05
5.402985E+03	1.218084E-03	7.818559E-05
5.412935E+03	1.224041E-03	7.848082E-05
5.422886E+03	1.229894E-03	7.876475E-05
5.432836E+03	1.235641E-03	7.903693E-05
5.442786E+03	1.241313E-03	7.929908E-05
5.452736E+03	1.246875E-03	7.954876E-05
5.462687E+03	1.252341E-03	7.978662E-05
5.472637E+03	1.257709E-03	8.001233E-05
5.482587E+03	1.262977E-03	8.022559E-05
5.492537E+03	1.268143E-03	8.042608E-05
5.502488E+03	1.273206E-03	8.061359E-05
5.512438E+03	1.278165E-03	8.078779E-05
5.522388E+03	1.283018E-03	8.094850E-05
5.532338E+03	1.287763E-03	8.109547E-05
5.542289E+03	1.292417E-03	8.122959E-05
5.552239E+03	1.296979E-03	8.135069E-05
5.562189E+03	1.301430E-03	8.145757E-05
5.572139E+03	1.305788E-03	8.155116E-05
5.582090E+03	1.310034E-03	8.163031E-05
5.592040E+03	1.314204E-03	8.169708E-05
5.601990E+03	1.318278E-03	8.175031E-05
5.611940E+03	1.322274E-03	8.179110E-05
5.621891E+03	1.326176E-03	8.181833E-05
5.631841E+03	1.330000E-03	8.183312E-05
5.641791E+03	1.333731E-03	8.183443E-05
5.651741E+03	1.337402E-03	8.182445E-05
5.661692E+03	1.340998E-03	8.180225E-05
5.671642E+03	1.344520E-03	8.176791E-05
5.681592E+03	1.347968E-03	8.172159E-05
5.691542E+03	1.351361E-03	8.166452E-05
5.701493E+03	1.354702E-03	8.159692E-05
5.711443E+03	1.357974E-03	8.151793E-05
5.721393E+03	1.361196E-03	8.142886E-05
5.731343E+03	1.364371E-03	8.132999E-05
5.741294E+03	1.367519E-03	8.122270E-05
5.751244E+03	1.370606E-03	8.110520E-05
5.761194E+03	1.373672E-03	8.097999E-05
5.771144E+03	1.376701E-03	8.084637E-05
5.781095E+03	1.379696E-03	8.070480E-05
5.791045E+03	1.382680E-03	8.055678E-05
5.800995E+03	1.385637E-03	8.040176E-05
5.810945E+03	1.388591E-03	8.024131E-05
5.820896E+03	1.391546E-03	8.007600E-05
5.830846E+03	1.394489E-03	7.990538E-05
5.840796E+03	1.397424E-03	7.973010E-05
5.850746E+03	1.400376E-03	7.955186E-05
5.860697E+03	1.403351E-03	7.937143E-05
5.870647E+03	1.406336E-03	7.918845E-05
5.880597E+03	1.409358E-03	7.900485E-05
5.890547E+03	1.412405E-03	7.882040E-05
5.900498E+03	1.415504E-03	7.863708E-05
5.910448E+03	1.418646E-03	7.845478E-05
5.920398E+03	1.421839E-03	7.827451E-05
5.930348E+03	1.425112E-03	7.809840E-05
5.940299E+03	1.428476E-03	7.792756E-05
5.950249E+03	1.431906E-03	7.776111E-05
5.960199E+03	1.435450E-03	7.760236E-05
5.970149E+03	1.439085E-03	7.745058E-05
5.980100E+03	1.442864E-03	7.730923E-05
5.990050E+03	1.446781E-03	7.717872E-05
6.000000E+03	1.450854E-03	7.706062E-05
6.009950E+03	1.455081E-03	7.695550E-05
6.019900E+03	1.459519E-03	7.686716E-05
6.029851E+03	1.464150E-03	7.679529E-05
6.039801E+03	1.468996E-03	7.674183E-05
6.049751E+03	1.474098E-03	7.670975E-05
6.059701E+03	1.479482E-03	7.670119E-05
6.069652E+03	1.485152E-03	7.671725E-05
6.079602E+03	1.491158E-03	7.676131E-05
6.089552E+03	1.497488E-03	7.683365E-05
6.099502E+03	1.504212E-03	7.693886E-05
6.109453E+03	1.511363E-03	7.707957E-05
6.119403E+03	1.518933E-03	7.725634E-05
6.129353E+03	1.526975E-03	7.747300E-05
6.139303E+03	1.535546E-03	7.773343E-05
6.149254E+03	1.544636E-03	7.803835E-05
6.159204E+03	1.554298E-03	7.839158E-05
6.169154E+03	1.564559E-03	7.879579E-05
6.179104E+03	1.575442E-03	7.925335E-05
6.189055E+03	1.586957E-03	7.976623E-05
6.199005E+03	1.599106E-03	8.033594E-05
6.208955E+03	1.611877E-03	8.096338E-05
6.218905E+03	1.625225E-03	8.164796E-05
6.228856E+03	1.639144E-03	8.239093E-05
6.238806E+03	1.653597E-03	8.319219E-05
6.248756E+03	1.668546E-03	8.405158E-05
6.258706E+03	1.683948E-03	8.496872E-05
6.268657E+03	1.699734E-03	8.594188E-05
6.278607E+03	1.715906E-03	8.697202E-05
6.288557E+03	1.732369E-03	8.805479E-05
6.298507E+03	1.749100E-03	8.918935E-05
6.308458E+03	1.766075E-03	9.037489E-05
6.318408E+03	1.783197E-03	9.160665E-05
6.328358E+03	1.800443E-03	9.288361E-05
6.338308E+03	1.817789E-03	9.420475E-05
6.348259E+03	1.835138E-03	9.556498E-05
6.358209E+03	1.852493E-03	9.696448E-05
6.368159E+03	1.869782E-03	9.839930E-05
6.378109E+03	1.886959E-03	9.986681E-05
6.388060E+03	1.904006E-03	1.013657E-04
6.398010E+03	1.920853E-03	1.028919E-04
6.407960E+03	1.937485E-03	1.044439E-04
6.417910E+03	1.953832E-03	1.060176E-04
6.427861E+03	1.969885E-03	1.076117E-04
6.437811E+03	1.985607E-03	1.092233E-04
6.447761E+03	2.000963E-03	1.108496E-04
6.457711E+03	2.015919E-03	1.124880E-04
6.467662E+03	2.030443E-03	1.141355E-04
6.477612E+03	2.044506E-03	1.157894E-04
6.487562E+03	2.058079E-03	1.174468E-04
6.497512E+03	2.071167E-03	1.191068E-04
6.507463E+03	2.083747E-03	1.207667E-04
6.517413E+03	2.095765E-03	1.224222E-04
6.527363E+03	2.107233E-03	1.240722E-04
6.537313E+03	2.118101E-03	1.257126E-04
6.547264E+03	2.128415E-03	1.273444E-04
6.557214E+03	2.138129E-03	1.289634E-04
6.567164E+03	2.147229E-03	1.305672E-04
6.577114E+03	2.155704E-03	1.321535E-04
6.587065E+03	2.163577E-03	1.337221E-04
6.597015E+03	2.170840E-03	1.352708E-04
6.606965E+03	2.177454E-03	1.367956E-04
6.616915E+03	2.183447E-03	1.382967E-04
6.626866E+03	2.188816E-03	1.397721E-04
6.636816E+03	2.193559E-03	1.412201E-04
6.646766E+03	2.197709E-03	1.426412E-04
6.656716E+03	2.201200E-03	1.440296E-04
6.666667E+03	2.204136E-03	1.453904E-04
6.676617E+03	2.206419E-03	1.467156E-04
6.686567E+03	2.208156E-03	1.480108E-04
6.696517E+03	2.209284E-03	1.492703E-04
6.706468E+03	2.209844E-03	1.504953E-04
6.716418E+03	2.209845E-03	1.516850E-04
6.726368E+03	2.209295E-03	1.528386E-04
6.736318E+03	2.208205E-03	1.539554E-04
6.746269E+03	2.206584E-03	1.550347E-04
6.756219E+03	2.204480E-03	1.560786E-04
6.766169E+03	2.201868E-03	1.570842E-04
6.776119E+03	2.198798E-03	1.580537E-04
6.786070E+03	2.195247E-03	1.589844E-04
6.796020E+03	2.191263E-03	1.598786E-04
6.805970E+03	2.186827E-03	1.607339E-04
6.815920E+03	2.181987E-03	1.615529E-04
6.825871E+03	2.176759E-03	1.623357E-04
6.835821E+03	2.171123E-03	1.630798E-04
6.845771E+03	2.165130E-03	1.637884E-04
6.855721E+03	2.158830E-03	1.644642E-04
6.865672E+03	2.152169E-03	1.651026E-04
6.875622E+03	2.145198E-03	1.657066E-04
6.885572E+03	2.137901E-03	1.662743E-04
6.895522E+03	2.130360E-03	1.668115E-04
6.905473E+03	2.122559E-03	1.673163E-04
6.915423E+03	2.114514E-03	1.677894E-04
6.925373E+03	2.106208E-03	1.682291E-04
6.935323E+03	2.097725E-03	1.686414E-04
6.945274E+03	2.089013E-03	1.690219E-04
6.955224E+03	2.080124E-03	1.693743E-04
6.965174E+03	2.071072E-03	1.696996E-04
6.975124E+03	2.061876E-03	1.699988E-04
6.985075E+03	2.052516E-03	1.702702E-04
6.995025E+03	2.043045E-03	1.705178E-04
7.004975E+03	2.033476E-03	1.707426E-04
7.014925E+03	2.023826E-03	1.709458E-04
7.024876E+03	2.014078E-03	1.711260E-04
7.034826E+03	2.004249E-03	1.712843E-04
7.044776E+03	1.994386E-03	1.714248E-04
7.054726E+03	1.984473E-03	1.715460E-04
7.064677E+03	1.974525E-03	1.716494E-04
7.074627E+03	1.964591E-03	1.717390E-04
7.084577E+03	1.954621E-03	1.718106E-04
7.094527E+03	1.944695E-03	1.718713E-04
7.104478E+03	1.934764E-03	1.719170E-04
7.114428E+03	1.924877E-03	1.719519E-04
7.124378E+03	1.915047E-03	1.719776E-04
7.134328E+03	1.905260E-03	1.719927E-04
7.144279E+03	1.895561E-03	1.720018E-04
7.154229E+03	1.885936E-03	1.720035E-04
7.164179E+03	1.876398E-03	1.719994E-04
7.174129E+03	1.866965E-03	1.719914E-04
7.184080E+03	1.857651E-03	1.719810E-04
7.194030E+03	1.848473E-03	1.719699E-04
7.203980E+03	1.839445E-03	1.719601E-04
7.213930E+03	1.830553E-03	1.719503E-04
7.223881E+03	1.821813E-03	1.719425E-04
7.233831E+03	1.813271E-03	1.719413E-04
7.243781E+03	1.804915E-03	1.719459E-04
7.253731E+03	1.796758E-03	1.719581E-04
7.263682E+03	1.788819E-03	1.719799E-04
7.273632E+03	1.781113E-03	1.720134E-04
7.283582E+03	1.773658E-03	1.720605E-04
7.293532E+03	1.766440E-03	1.721207E-04
7.303483E+03	1.759478E-03	1.721959E-04
7.313433E+03	1.752817E-03	1.722912E-04
7.323383E+03	1.746447E-03	1.724061E-04
7.333333E+03	1.740412E-03	1.725455E-04
7.343284E+03	1.734674E-03	1.727062E-04
7.353234E+03	1.729309E-03	1.728961E-04
7.363184E+03	1.724276E-03	1.731120E-04
7.373134E+03	1.719650E-03	1.733619E-04
7.383085E+03	1.715394E-03	1.736426E-04
7.393035E+03	1.711554E-03	1.739594E-04
7.402985E+03	1.708120E-03	1.743119E-04
7.412935E+03	1.705167E-03	1.747086E-04
7.422886E+03	1.702657E-03	1.751461E-04
7.432836E+03	1.700607E-03	1.756270E-04
7.442786E+03	1.699091E-03	1.761597E-04
7.452736E+03	1.698071E-03	1.767408E-04
7.462687E+03	1.697562E-03	1.773727E-04
7.472637E+03	1.697608E-03	1.780609E-04
7.482587E+03	1.698224E-03	1.788076E-04
7.492537E+03	1.699393E-03	1.796119E-04
7.502488E+03	1.701153E-03	1.804787E-04
7.512438E+03	1.703484E-03	1.814066E-04
7.522388E+03	1.706419E-03	1.824000E-04
7.532338E+03	1.709960E-03	1.834599E-04
7.542289E+03	1.714105E-03	1.845872E-04
7.552239E+03	1.718823E-03	1.857788E-04
7.562189E+03	1.724137E-03	1.870381E-04
7.572139E+03	1.730009E-03	1.883616E-04
7.582090E+03	1.736490E-03	1.897555E-04
7.592040E+03	1.743513E-03	1.912129E-04
7.601990E+03	1.751097E-03	1.927367E-04
7.611940E+03	1.759233E-03	1.943264E-04
7.621891E+03	1.767910E-03	1.959814E-04
7.631841E+03	1.777118E-03	1.977011E-04
7.641791E+03	1.786816E-03	1.994816E-04
7.651741E+03	1.797055E-03	2.013291E-04
7.661692E+03	1.807764E-03	2.032360E-04
7.671642E+03	1.818993E-03	2.052087E-04
7.681592E+03	1.830671E-03	2.072394E-04
7.691542E+03	1.842819E-03	2.093312E-04
7.701493E+03	1.855427E-03	2.114833E-04
7.711443E+03	1.868485E-03	2.136950E-04
7.721393E+03	1.881983E-03	2.159659E-04
