#wls	flux	fluxerr
1.592040E+03	7.660614E-05	3.199235E-06
1.631841E+03	7.751787E-05	3.233097E-06
1.671642E+03	7.844111E-05	3.267224E-06
1.711443E+03	7.936171E-05	3.301017E-06
1.751244E+03	8.029117E-05	3.334950E-06
1.791045E+03	8.120670E-05	3.368067E-06
1.830846E+03	8.211003E-05	3.400437E-06
1.870647E+03	8.297142E-05	3.430826E-06
1.910448E+03	8.378804E-05	3.459116E-06
1.950249E+03	8.454671E-05	3.484767E-06
1.990050E+03	8.523522E-05	3.507282E-06
2.029851E+03	8.590587E-05	3.528817E-06
2.069652E+03	8.663695E-05	3.552581E-06
2.109453E+03	8.758555E-05	3.584982E-06
2.149254E+03	8.889117E-05	3.631665E-06
2.189055E+03	9.061559E-05	3.695056E-06
2.228856E+03	9.270006E-05	3.772654E-06
2.268657E+03	9.505424E-05	3.860689E-06
2.308458E+03	9.757264E-05	3.954802E-06
2.348259E+03	1.001669E-04	4.051360E-06
2.388060E+03	1.028177E-04	4.149544E-06
2.427861E+03	1.055324E-04	4.249619E-06
2.467662E+03	1.082809E-04	4.350337E-06
2.507463E+03	1.110732E-04	4.452066E-06
2.547264E+03	1.139587E-04	4.556756E-06
2.587065E+03	1.169146E-04	4.663440E-06
2.626866E+03	1.199921E-04	4.774115E-06
2.666667E+03	1.231655E-04	4.887705E-06
2.706468E+03	1.264663E-04	5.005398E-06
2.746269E+03	1.299064E-04	5.127598E-06
2.786070E+03	1.334972E-04	5.254689E-06
2.825871E+03	1.372503E-04	5.387043E-06
2.865672E+03	1.411770E-04	5.525024E-06
2.905473E+03	1.452663E-04	5.668109E-06
2.945274E+03	1.495748E-04	5.818414E-06
2.985075E+03	1.540683E-04	5.974507E-06
2.995025E+03	1.552279E-04	6.014705E-06
3.004975E+03	1.564000E-04	6.055290E-06
3.014925E+03	1.576090E-04	6.097210E-06
3.024876E+03	1.588070E-04	6.138606E-06
3.034826E+03	1.600196E-04	6.180467E-06
3.044776E+03	1.612483E-04	6.222847E-06
3.054726E+03	1.625177E-04	6.266698E-06
3.064677E+03	1.637780E-04	6.310094E-06
3.074627E+03	1.650539E-04	6.353983E-06
3.084577E+03	1.663705E-04	6.399333E-06
3.094527E+03	1.677028E-04	6.445175E-06
3.104478E+03	1.690249E-04	6.490517E-06
3.114428E+03	1.703880E-04	6.537322E-06
3.124378E+03	1.717667E-04	6.584608E-06
3.134328E+03	1.731347E-04	6.631367E-06
3.144279E+03	1.745442E-04	6.679601E-06
3.154229E+03	1.759693E-04	6.728311E-06
3.164179E+03	1.774100E-04	6.777497E-06
3.174129E+03	1.788664E-04	6.827160E-06
3.184080E+03	1.803385E-04	6.877300E-06
3.194030E+03	1.818266E-04	6.927918E-06
3.203980E+03	1.833306E-04	6.979019E-06
3.213930E+03	1.848785E-04	7.031656E-06
3.223881E+03	1.864150E-04	7.083731E-06
3.233831E+03	1.879680E-04	7.136299E-06
3.243781E+03	1.895376E-04	7.189359E-06
3.253731E+03	1.911523E-04	7.243994E-06
3.263682E+03	1.927556E-04	7.298059E-06
3.273632E+03	1.944049E-04	7.353722E-06
3.283582E+03	1.960428E-04	7.408810E-06
3.293532E+03	1.977274E-04	7.465518E-06
3.303483E+03	1.994302E-04	7.522762E-06
3.313433E+03	2.011215E-04	7.579426E-06
3.323383E+03	2.028608E-04	7.637746E-06
3.333333E+03	2.046188E-04	7.696619E-06
3.343284E+03	2.063957E-04	7.756045E-06
3.353234E+03	2.081919E-04	7.816037E-06
3.363184E+03	2.100075E-04	7.876594E-06
3.373134E+03	2.118427E-04	7.937728E-06
3.383085E+03	2.136978E-04	7.999441E-06
3.393035E+03	2.155730E-04	8.061740E-06
3.402985E+03	2.174686E-04	8.124634E-06
3.412935E+03	2.193848E-04	8.188124E-06
3.422886E+03	2.213219E-04	8.252219E-06
3.432836E+03	2.232801E-04	8.316928E-06
3.442786E+03	2.252921E-04	8.383461E-06
3.452736E+03	2.272935E-04	8.449415E-06
3.462687E+03	2.293167E-04	8.515999E-06
3.472637E+03	2.313952E-04	8.584450E-06
3.482587E+03	2.334631E-04	8.652317E-06
3.492537E+03	2.355872E-04	8.722077E-06
3.502488E+03	2.377006E-04	8.791249E-06
3.512438E+03	2.398714E-04	8.862344E-06
3.522388E+03	2.420659E-04	8.934116E-06
3.532338E+03	2.442496E-04	9.005291E-06
3.542289E+03	2.464921E-04	9.078427E-06
3.552239E+03	2.487592E-04	9.152257E-06
3.562189E+03	2.510153E-04	9.225481E-06
3.572139E+03	2.533317E-04	9.300706E-06
3.582090E+03	2.556732E-04	9.376636E-06
3.592040E+03	2.580401E-04	9.453279E-06
3.601990E+03	2.604325E-04	9.530638E-06
3.611940E+03	2.628138E-04	9.607365E-06
3.621891E+03	2.652577E-04	9.686157E-06
3.631841E+03	2.677278E-04	9.765674E-06
3.641791E+03	2.702241E-04	9.845918E-06
3.651741E+03	2.727470E-04	9.926894E-06
3.661692E+03	2.752965E-04	1.000860E-05
3.671642E+03	2.778729E-04	1.009105E-05
3.681592E+03	2.805151E-04	1.017564E-05
3.691542E+03	2.831458E-04	1.025956E-05
3.701493E+03	2.858038E-04	1.034422E-05
3.711443E+03	2.884891E-04	1.042963E-05
3.721393E+03	2.912018E-04	1.051576E-05
3.731343E+03	2.939421E-04	1.060264E-05
3.741294E+03	2.967508E-04	1.069172E-05
3.751244E+03	2.995467E-04	1.078008E-05
3.761194E+03	3.023704E-04	1.086917E-05
3.771144E+03	3.052219E-04	1.095899E-05
3.781095E+03	3.081432E-04	1.105104E-05
3.791045E+03	3.110507E-04	1.114232E-05
3.800995E+03	3.139859E-04	1.123432E-05
3.810945E+03	3.169920E-04	1.132857E-05
3.820896E+03	3.199831E-04	1.142200E-05
3.830846E+03	3.230019E-04	1.151613E-05
3.840796E+03	3.260924E-04	1.161253E-05
3.850746E+03	3.291667E-04	1.170806E-05
3.860697E+03	3.322684E-04	1.180427E-05
3.870647E+03	3.354424E-04	1.190275E-05
3.880597E+03	3.385987E-04	1.200030E-05
3.890547E+03	3.418278E-04	1.210012E-05
3.900498E+03	3.450381E-04	1.219898E-05
3.910448E+03	3.482749E-04	1.229846E-05
3.920398E+03	3.515847E-04	1.240021E-05
3.930348E+03	3.548740E-04	1.250092E-05
3.940299E+03	3.582364E-04	1.260389E-05
3.950249E+03	3.615768E-04	1.270578E-05
3.960199E+03	3.649422E-04	1.280821E-05
3.970149E+03	3.683807E-04	1.291289E-05
3.980100E+03	3.717949E-04	1.301640E-05
3.990050E+03	3.752822E-04	1.312213E-05
4.000000E+03	3.787436E-04	1.322663E-05
4.009950E+03	3.822275E-04	1.333159E-05
4.019900E+03	3.857840E-04	1.343874E-05
4.029851E+03	3.893118E-04	1.354456E-05
4.039801E+03	3.928604E-04	1.365077E-05
4.049751E+03	3.964808E-04	1.375914E-05
4.059701E+03	4.000694E-04	1.386606E-05
4.069652E+03	4.036767E-04	1.397329E-05
4.079602E+03	4.073549E-04	1.408263E-05
4.089552E+03	4.109977E-04	1.419040E-05
4.099502E+03	4.146568E-04	1.429840E-05
4.109453E+03	4.183315E-04	1.440659E-05
4.119403E+03	4.220751E-04	1.451680E-05
4.129353E+03	4.257782E-04	1.462528E-05
4.139303E+03	4.294940E-04	1.473385E-05
4.149254E+03	4.332214E-04	1.484247E-05
4.159204E+03	4.369593E-04	1.495110E-05
4.169154E+03	4.407067E-04	1.505972E-05
4.179104E+03	4.445192E-04	1.517021E-05
4.189055E+03	4.482825E-04	1.527867E-05
4.199005E+03	4.520516E-04	1.538699E-05
4.208955E+03	4.558257E-04	1.549513E-05
4.218905E+03	4.596037E-04	1.560307E-05
4.228856E+03	4.633835E-04	1.571072E-05
4.238806E+03	4.671053E-04	1.581606E-05
4.248756E+03	4.708855E-04	1.592305E-05
4.258706E+03	4.746637E-04	1.602963E-05
4.268657E+03	4.784393E-04	1.613579E-05
4.278607E+03	4.822104E-04	1.624145E-05
4.288557E+03	4.859146E-04	1.634454E-05
4.298507E+03	4.896722E-04	1.644910E-05
4.308458E+03	4.934214E-04	1.655304E-05
4.318408E+03	4.970983E-04	1.665424E-05
4.328358E+03	5.008259E-04	1.675682E-05
4.338308E+03	5.044778E-04	1.685655E-05
4.348259E+03	5.081782E-04	1.695759E-05
4.358209E+03	5.117997E-04	1.705568E-05
4.368159E+03	5.154679E-04	1.715503E-05
4.378109E+03	5.190537E-04	1.725133E-05
4.388060E+03	5.226193E-04	1.734667E-05
4.398010E+03	5.262291E-04	1.744318E-05
4.407960E+03	5.297523E-04	1.753653E-05
4.417910E+03	5.332519E-04	1.762881E-05
4.427861E+03	5.367274E-04	1.772003E-05
4.437811E+03	5.401779E-04	1.781014E-05
4.447761E+03	5.436025E-04	1.789914E-05
4.457711E+03	5.470004E-04	1.798699E-05
4.467662E+03	5.503715E-04	1.807371E-05
4.477612E+03	5.537145E-04	1.815926E-05
4.487562E+03	5.570294E-04	1.824364E-05
4.497512E+03	5.602481E-04	1.832462E-05
4.507463E+03	5.635060E-04	1.840666E-05
4.517413E+03	5.666671E-04	1.848532E-05
4.527363E+03	5.698685E-04	1.856507E-05
4.537313E+03	5.729726E-04	1.864144E-05
4.547264E+03	5.761188E-04	1.871897E-05
4.557214E+03	5.791688E-04	1.879316E-05
4.567164E+03	5.822630E-04	1.886861E-05
4.577114E+03	5.852619E-04	1.894077E-05
4.587065E+03	5.882373E-04	1.901199E-05
4.597015E+03	5.911901E-04	1.908230E-05
4.606965E+03	5.941226E-04	1.915179E-05
4.616915E+03	5.970366E-04	1.922052E-05
4.626866E+03	5.999334E-04	1.928854E-05
4.636816E+03	6.028154E-04	1.935593E-05
4.646766E+03	6.056124E-04	1.942045E-05
4.656716E+03	6.084719E-04	1.948682E-05
4.666667E+03	6.113237E-04	1.955282E-05
4.676617E+03	6.140964E-04	1.961616E-05
4.686567E+03	6.169402E-04	1.968164E-05
4.696517E+03	6.197094E-04	1.974463E-05
4.706468E+03	6.225547E-04	1.980992E-05
4.716418E+03	6.253304E-04	1.987288E-05
4.726368E+03	6.281121E-04	1.993594E-05
4.736318E+03	6.309024E-04	1.999916E-05
4.746269E+03	6.337033E-04	2.006263E-05
4.756219E+03	6.365166E-04	2.012640E-05
4.766169E+03	6.393449E-04	2.019055E-05
4.776119E+03	6.421897E-04	2.025514E-05
4.786070E+03	6.450537E-04	2.032025E-05
4.796020E+03	6.478631E-04	2.038358E-05
4.805970E+03	6.507732E-04	2.045000E-05
4.815920E+03	6.536352E-04	2.051483E-05
4.825871E+03	6.566051E-04	2.058300E-05
4.835821E+03	6.595323E-04	2.064976E-05
4.845771E+03	6.624982E-04	2.071768E-05
4.855721E+03	6.655066E-04	2.078687E-05
4.865672E+03	6.686411E-04	2.085995E-05
4.875622E+03	6.717498E-04	2.093217E-05
4.885572E+03	6.749163E-04	2.100615E-05
4.895522E+03	6.780656E-04	2.107955E-05
4.905473E+03	6.813593E-04	2.115739E-05
4.915423E+03	6.847206E-04	2.123729E-05
4.925373E+03	6.880719E-04	2.131684E-05
4.935323E+03	6.915743E-04	2.140102E-05
4.945274E+03	6.950668E-04	2.148486E-05
4.955224E+03	6.987113E-04	2.157334E-05
4.965174E+03	7.023442E-04	2.166140E-05
4.975124E+03	7.060457E-04	2.175151E-05
4.985075E+03	7.098131E-04	2.184358E-05
4.995025E+03	7.137281E-04	2.194012E-05
5.004975E+03	7.175396E-04	2.203339E-05
5.014925E+03	7.214936E-04	2.213095E-05
5.024876E+03	7.255043E-04	2.223016E-05
5.034826E+03	7.295696E-04	2.233094E-05
5.044776E+03	7.336013E-04	2.243059E-05
5.054726E+03	7.377663E-04	2.253420E-05
5.064677E+03	7.418917E-04	2.263650E-05
5.074627E+03	7.461446E-04	2.274256E-05
5.084577E+03	7.503521E-04	2.284712E-05
5.094527E+03	7.545964E-04	2.295267E-05
5.104478E+03	7.588742E-04	2.305911E-05
5.114428E+03	7.632720E-04	2.316905E-05
5.124378E+03	7.675236E-04	2.327442E-05
5.134328E+03	7.718897E-04	2.338311E-05
5.144279E+03	7.762803E-04	2.349240E-05
5.154229E+03	7.806938E-04	2.360223E-05
5.164179E+03	7.850379E-04	2.370980E-05
5.174129E+03	7.894897E-04	2.382046E-05
5.184080E+03	7.938680E-04	2.392874E-05
5.194030E+03	7.983514E-04	2.404002E-05
5.203980E+03	8.027572E-04	2.414879E-05
5.213930E+03	8.071736E-04	2.425770E-05
5.223881E+03	8.116923E-04	2.436950E-05
5.233831E+03	8.161275E-04	2.447861E-05
5.243781E+03	8.205697E-04	2.458774E-05
5.253731E+03	8.249242E-04	2.469406E-05
5.263682E+03	8.293766E-04	2.480311E-05
5.273632E+03	8.338331E-04	2.491208E-05
5.283582E+03	8.382921E-04	2.502092E-05
5.293532E+03	8.426574E-04	2.512675E-05
5.303483E+03	8.471192E-04	2.523525E-05
5.313433E+03	8.514847E-04	2.534067E-05
5.323383E+03	8.558488E-04	2.544582E-05
5.333333E+03	8.603081E-04	2.555359E-05
5.343284E+03	8.646677E-04	2.565816E-05
5.353234E+03	8.690238E-04	2.576240E-05
5.363184E+03	8.733757E-04	2.586628E-05
5.373134E+03	8.777231E-04	2.596978E-05
5.383085E+03	8.820650E-04	2.607288E-05
5.393035E+03	8.863011E-04	2.617261E-05
5.402985E+03	8.906307E-04	2.627484E-05
5.412935E+03	8.949533E-04	2.637662E-05
5.422886E+03	8.991665E-04	2.647491E-05
5.432836E+03	9.034730E-04	2.657568E-05
5.442786E+03	9.076686E-04	2.667293E-05
5.452736E+03	9.118540E-04	2.676960E-05
5.462687E+03	9.160293E-04	2.686571E-05
5.472637E+03	9.202965E-04	2.696423E-05
5.482587E+03	9.244496E-04	2.705912E-05
5.492537E+03	9.285896E-04	2.715335E-05
5.502488E+03	9.327171E-04	2.724692E-05
5.512438E+03	9.367261E-04	2.733673E-05
5.522388E+03	9.408257E-04	2.742890E-05
5.532338E+03	9.449104E-04	2.752032E-05
5.542289E+03	9.489801E-04	2.761101E-05
5.552239E+03	9.529267E-04	2.769780E-05
5.562189E+03	9.569630E-04	2.778688E-05
5.572139E+03	9.608741E-04	2.787202E-05
5.582090E+03	9.647665E-04	2.795629E-05
5.592040E+03	9.687481E-04	2.804283E-05
5.601990E+03	9.726012E-04	2.812532E-05
5.611940E+03	9.764329E-04	2.820687E-05
5.621891E+03	9.802430E-04	2.828745E-05
5.631841E+03	9.840306E-04	2.836706E-05
5.641791E+03	9.877948E-04	2.844565E-05
5.651741E+03	9.915356E-04	2.852322E-05
5.661692E+03	9.952511E-04	2.859972E-05
5.671642E+03	9.988295E-04	2.867194E-05
5.681592E+03	1.002493E-03	2.874626E-05
5.691542E+03	1.006130E-03	2.881945E-05
5.701493E+03	1.009626E-03	2.888826E-05
5.711443E+03	1.013207E-03	2.895913E-05
5.721393E+03	1.016645E-03	2.902556E-05
5.731343E+03	1.020052E-03	2.909076E-05
5.741294E+03	1.023543E-03	2.915799E-05
5.751244E+03	1.026888E-03	2.922070E-05
5.761194E+03	1.030202E-03	2.928214E-05
5.771144E+03	1.033483E-03	2.934228E-05
5.781095E+03	1.036730E-03	2.940112E-05
5.791045E+03	1.039945E-03	2.945865E-05
5.800995E+03	1.043126E-03	2.951485E-05
5.810945E+03	1.046273E-03	2.956971E-05
5.820896E+03	1.049385E-03	2.962322E-05
5.830846E+03	1.052346E-03	2.967209E-05
5.840796E+03	1.055389E-03	2.972291E-05
5.850746E+03	1.058398E-03	2.977239E-05
5.860697E+03	1.061254E-03	2.981717E-05
5.870647E+03	1.064194E-03	2.986395E-05
5.880597E+03	1.066981E-03	2.990604E-05
5.890547E+03	1.069733E-03	2.994681E-05
5.900498E+03	1.072571E-03	2.998959E-05
5.910448E+03	1.075256E-03	3.002771E-05
5.920398E+03	1.077908E-03	3.006455E-05
5.930348E+03	1.080527E-03	3.010009E-05
5.940299E+03	1.083235E-03	3.013774E-05
5.950249E+03	1.085792E-03	3.017078E-05
5.960199E+03	1.088319E-03	3.020262E-05
5.970149E+03	1.090815E-03	3.023326E-05
5.980100E+03	1.093284E-03	3.026273E-05
5.990050E+03	1.095602E-03	3.028768E-05
6.000000E+03	1.098016E-03	3.031491E-05
6.009950E+03	1.100404E-03	3.034105E-05
6.019900E+03	1.102768E-03	3.036613E-05
6.029851E+03	1.104984E-03	3.038680E-05
6.039801E+03	1.107301E-03	3.040986E-05
6.049751E+03	1.109596E-03	3.043197E-05
6.059701E+03	1.111746E-03	3.044972E-05
6.069652E+03	1.114000E-03	3.046996E-05
6.079602E+03	1.116110E-03	3.048590E-05
6.089552E+03	1.118201E-03	3.050096E-05
6.099502E+03	1.120400E-03	3.051858E-05
6.109453E+03	1.122456E-03	3.053196E-05
6.119403E+03	1.124494E-03	3.054452E-05
6.129353E+03	1.126642E-03	3.055969E-05
6.139303E+03	1.128647E-03	3.057063E-05
6.149254E+03	1.130636E-03	3.058078E-05
6.159204E+03	1.132608E-03	3.059015E-05
6.169154E+03	1.134565E-03	3.059874E-05
6.179104E+03	1.136505E-03	3.060653E-05
6.189055E+03	1.138427E-03	3.061351E-05
6.199005E+03	1.140329E-03	3.061962E-05
6.208955E+03	1.142211E-03	3.062484E-05
6.218905E+03	1.144068E-03	3.062909E-05
6.228856E+03	1.145771E-03	3.062886E-05
6.238806E+03	1.147573E-03	3.063096E-05
6.248756E+03	1.149342E-03	3.063185E-05
6.258706E+03	1.151075E-03	3.063147E-05
6.268657E+03	1.152639E-03	3.062627E-05
6.278607E+03	1.154289E-03	3.062306E-05
6.288557E+03	1.155761E-03	3.061484E-05
6.298507E+03	1.157312E-03	3.060839E-05
6.308458E+03	1.158678E-03	3.059676E-05
6.318408E+03	1.160114E-03	3.058669E-05
6.328358E+03	1.161355E-03	3.057121E-05
6.338308E+03	1.162659E-03	3.055711E-05
6.348259E+03	1.163758E-03	3.053738E-05
6.358209E+03	1.164781E-03	3.051539E-05
6.368159E+03	1.165854E-03	3.049446E-05
6.378109E+03	1.166710E-03	3.046763E-05
6.388060E+03	1.167479E-03	3.043830E-05
6.398010E+03	1.168156E-03	3.040639E-05
6.407960E+03	1.168873E-03	3.037527E-05
6.417910E+03	1.169363E-03	3.033810E-05
6.427861E+03	1.169759E-03	3.029830E-05
6.437811E+03	1.170059E-03	3.025588E-05
6.447761E+03	1.170267E-03	3.021090E-05
6.457711E+03	1.170382E-03	3.016340E-05
6.467662E+03	1.170408E-03	3.011345E-05
6.477612E+03	1.170345E-03	3.006112E-05
6.487562E+03	1.170197E-03	3.000648E-05
6.497512E+03	1.169966E-03	2.994963E-05
6.507463E+03	1.169523E-03	2.988728E-05
6.517413E+03	1.169134E-03	2.982625E-05
6.527363E+03	1.168671E-03	2.976327E-05
6.537313E+03	1.168136E-03	2.969841E-05
6.547264E+03	1.167533E-03	2.963178E-05
6.557214E+03	1.166732E-03	2.956012E-05
6.567164E+03	1.166000E-03	2.949019E-05
6.577114E+03	1.165208E-03	2.941874E-05
6.587065E+03	1.164227E-03	2.934255E-05
6.597015E+03	1.163323E-03	2.926831E-05
6.606965E+03	1.162236E-03	2.918951E-05
6.616915E+03	1.161231E-03	2.911282E-05
6.626866E+03	1.160179E-03	2.903501E-05
6.636816E+03	1.158953E-03	2.895291E-05
6.646766E+03	1.157815E-03	2.887311E-05
6.656716E+03	1.156508E-03	2.878918E-05
6.666667E+03	1.155164E-03	2.870445E-05
6.676617E+03	1.153917E-03	2.862223E-05
6.686567E+03	1.152507E-03	2.853612E-05
6.696517E+03	1.151068E-03	2.844942E-05
6.706468E+03	1.149732E-03	2.836542E-05
6.716418E+03	1.148240E-03	2.827775E-05
6.726368E+03	1.146725E-03	2.818968E-05
6.736318E+03	1.145319E-03	2.810449E-05
6.746269E+03	1.143765E-03	2.801585E-05
6.756219E+03	1.142195E-03	2.792703E-05
6.766169E+03	1.140610E-03	2.783806E-05
6.776119E+03	1.139012E-03	2.774903E-05
6.786070E+03	1.137404E-03	2.765999E-05
6.796020E+03	1.135787E-03	2.757100E-05
6.805970E+03	1.134164E-03	2.748212E-05
6.815920E+03	1.132536E-03	2.739340E-05
6.825871E+03	1.130905E-03	2.730491E-05
6.835821E+03	1.129274E-03	2.721672E-05
6.845771E+03	1.127643E-03	2.712884E-05
6.855721E+03	1.126015E-03	2.704137E-05
6.865672E+03	1.124392E-03	2.695434E-05
6.875622E+03	1.122775E-03	2.686782E-05
6.885572E+03	1.121166E-03	2.678185E-05
6.895522E+03	1.119568E-03	2.669651E-05
6.905473E+03	1.117981E-03	2.661183E-05
6.915423E+03	1.116281E-03	2.652485E-05
6.925373E+03	1.114724E-03	2.644168E-05
6.935323E+03	1.113184E-03	2.635934E-05
6.945274E+03	1.111665E-03	2.627790E-05
6.955224E+03	1.110039E-03	2.619440E-05
6.965174E+03	1.108562E-03	2.611490E-05
6.975124E+03	1.107111E-03	2.603645E-05
6.985075E+03	1.105560E-03	2.595614E-05
6.995025E+03	1.104165E-03	2.587997E-05
7.004975E+03	1.102674E-03	2.580208E-05
7.014925E+03	1.101342E-03	2.572843E-05
7.024876E+03	1.099918E-03	2.565317E-05
7.034826E+03	1.098658E-03	2.558227E-05
7.044776E+03	1.097311E-03	2.550989E-05
7.054726E+03	1.096130E-03	2.544196E-05
7.064677E+03	1.094868E-03	2.537272E-05
7.074627E+03	1.093777E-03	2.530803E-05
7.084577E+03	1.092607E-03	2.524215E-05
7.094527E+03	1.091489E-03	2.517808E-05
7.104478E+03	1.090424E-03	2.511586E-05
7.114428E+03	1.089539E-03	2.505845E-05
7.124378E+03	1.088587E-03	2.500014E-05
7.134328E+03	1.087695E-03	2.494392E-05
7.144279E+03	1.086867E-03	2.488984E-05
7.154229E+03	1.086230E-03	2.484084E-05
7.164179E+03	1.085537E-03	2.479128E-05
7.174129E+03	1.084917E-03	2.474410E-05
7.184080E+03	1.084371E-03	2.469939E-05
7.194030E+03	1.083905E-03	2.465723E-05
7.203980E+03	1.083520E-03	2.461770E-05
7.213930E+03	1.083220E-03	2.458091E-05
7.223881E+03	1.083008E-03	2.454691E-05
7.233831E+03	1.082888E-03	2.451583E-05
7.243781E+03	1.082865E-03	2.448776E-05
7.253731E+03	1.082940E-03	2.446278E-05
7.263682E+03	1.082993E-03	2.443818E-05
7.273632E+03	1.083278E-03	2.441970E-05
7.283582E+03	1.083674E-03	2.440462E-05
7.293532E+03	1.084184E-03	2.439304E-05
7.303483E+03	1.084812E-03	2.438505E-05
7.313433E+03	1.085436E-03	2.437795E-05
7.323383E+03	1.086313E-03	2.437747E-05
7.333333E+03	1.087318E-03	2.438089E-05
7.343284E+03	1.088330E-03	2.438547E-05
7.353234E+03	1.089604E-03	2.439698E-05
7.363184E+03	1.090890E-03	2.440981E-05
7.373134E+03	1.092444E-03	2.442974E-05
7.383085E+03	1.094015E-03	2.445113E-05
7.393035E+03	1.095859E-03	2.447975E-05
7.402985E+03	1.097721E-03	2.450994E-05
7.412935E+03	1.099857E-03	2.454743E-05
7.422886E+03	1.102010E-03	2.458651E-05
7.432836E+03	1.104307E-03	2.463001E-05
7.442786E+03	1.106874E-03	2.468081E-05
7.452736E+03	1.109448E-03	2.473307E-05
7.462687E+03	1.112154E-03	2.478957E-05
7.472637E+03	1.114984E-03	2.485021E-05
7.482587E+03	1.117933E-03	2.491486E-05
7.492537E+03	1.121123E-03	2.498632E-05
7.502488E+03	1.124289E-03	2.505867E-05
7.512438E+03	1.127556E-03	2.513477E-05
7.522388E+03	1.130926E-03	2.521468E-05
7.532338E+03	1.134403E-03	2.529853E-05
7.542289E+03	1.137994E-03	2.538651E-05
7.552239E+03	1.141707E-03	2.547883E-05
7.562189E+03	1.145416E-03	2.557270E-05
7.572139E+03	1.149396E-03	2.567428E-05
7.582090E+03	1.153522E-03	2.578075E-05
7.592040E+03	1.157798E-03	2.589221E-05
7.601990E+03	1.162228E-03	2.600878E-05
7.611940E+03	1.166680E-03	2.612746E-05
7.621891E+03	1.171428E-03	2.625445E-05
7.631841E+03	1.176339E-03	2.638672E-05
7.641791E+03	1.181272E-03	2.652116E-05
7.651741E+03	1.186507E-03	2.666402E-05
7.661692E+03	1.191761E-03	2.680900E-05
7.671642E+03	1.197316E-03	2.696241E-05
7.681592E+03	1.202886E-03	2.711784E-05
7.691542E+03	1.208754E-03	2.728167E-05
7.701493E+03	1.214632E-03	2.744741E-05
7.711443E+03	1.220659E-03	2.761821E-05
7.721393E+03	1.226978E-03	2.779731E-05
