#wls	flux	fluxerr
1.592040E+03	6.529075E-05	8.233119E-06
1.631841E+03	6.629800E-05	8.343295E-06
1.671642E+03	6.730066E-05	8.451958E-06
1.711443E+03	6.832188E-05	8.561986E-06
1.751244E+03	6.934789E-05	8.671611E-06
1.791045E+03	7.038335E-05	8.781382E-06
1.830846E+03	7.140528E-05	8.888401E-06
1.870647E+03	7.239994E-05	8.990940E-06
1.910448E+03	7.335195E-05	9.087086E-06
1.950249E+03	7.426200E-05	9.176932E-06
1.990050E+03	7.511878E-05	9.259093E-06
2.029851E+03	7.595508E-05	9.337619E-06
2.069652E+03	7.685297E-05	9.422562E-06
2.109453E+03	7.795327E-05	9.531046E-06
2.149254E+03	7.938261E-05	9.678264E-06
2.189055E+03	8.117173E-05	9.867565E-06
2.228856E+03	8.331275E-05	1.009755E-05
2.268657E+03	8.571424E-05	1.035673E-05
2.308458E+03	8.825321E-05	1.062992E-05
2.348259E+03	9.089530E-05	1.091275E-05
2.388060E+03	9.360949E-05	1.120132E-05
2.427861E+03	9.637118E-05	1.149250E-05
2.467662E+03	9.918384E-05	1.178657E-05
2.507463E+03	1.020572E-04	1.208452E-05
2.547264E+03	1.050212E-04	1.238969E-05
2.587065E+03	1.080896E-04	1.270350E-05
2.626866E+03	1.112386E-04	1.302291E-05
2.666667E+03	1.145173E-04	1.335340E-05
2.706468E+03	1.179383E-04	1.369616E-05
2.746269E+03	1.214939E-04	1.404996E-05
2.786070E+03	1.251949E-04	1.441573E-05
2.825871E+03	1.290735E-04	1.479678E-05
2.865672E+03	1.331199E-04	1.519160E-05
2.905473E+03	1.373450E-04	1.560099E-05
2.945274E+03	1.417831E-04	1.602841E-05
2.985075E+03	1.464233E-04	1.647209E-05
2.995025E+03	1.476042E-04	1.658428E-05
3.004975E+03	1.488229E-04	1.670028E-05
3.014925E+03	1.500554E-04	1.681739E-05
3.024876E+03	1.512776E-04	1.693287E-05
3.034826E+03	1.525402E-04	1.705242E-05
3.044776E+03	1.538201E-04	1.717341E-05
3.054726E+03	1.550916E-04	1.729299E-05
3.064677E+03	1.564052E-04	1.741679E-05
3.074627E+03	1.577357E-04	1.754196E-05
3.084577E+03	1.590568E-04	1.766558E-05
3.094527E+03	1.604204E-04	1.779341E-05
3.104478E+03	1.618007E-04	1.792257E-05
3.114428E+03	1.631975E-04	1.805302E-05
3.124378E+03	1.646109E-04	1.818478E-05
3.134328E+03	1.660410E-04	1.831782E-05
3.144279E+03	1.674878E-04	1.845214E-05
3.154229E+03	1.689237E-04	1.858471E-05
3.164179E+03	1.704038E-04	1.872157E-05
3.174129E+03	1.719008E-04	1.885969E-05
3.184080E+03	1.734149E-04	1.899909E-05
3.194030E+03	1.749460E-04	1.913977E-05
3.203980E+03	1.764943E-04	1.928172E-05
3.213930E+03	1.780602E-04	1.942495E-05
3.223881E+03	1.796435E-04	1.956947E-05
3.233831E+03	1.812447E-04	1.971528E-05
3.243781E+03	1.828637E-04	1.986238E-05
3.253731E+03	1.845306E-04	2.001403E-05
3.263682E+03	1.861862E-04	2.016377E-05
3.273632E+03	1.878603E-04	2.031485E-05
3.283582E+03	1.895531E-04	2.046725E-05
3.293532E+03	1.912648E-04	2.062099E-05
3.303483E+03	1.929957E-04	2.077609E-05
3.313433E+03	1.947458E-04	2.093254E-05
3.323383E+03	1.965472E-04	2.109375E-05
3.333333E+03	1.983370E-04	2.125299E-05
3.343284E+03	2.001470E-04	2.141362E-05
3.353234E+03	2.019772E-04	2.157566E-05
3.363184E+03	2.038606E-04	2.174260E-05
3.373134E+03	2.057325E-04	2.190751E-05
3.383085E+03	2.076255E-04	2.207386E-05
3.393035E+03	2.095732E-04	2.224522E-05
3.402985E+03	2.115093E-04	2.241451E-05
3.412935E+03	2.134673E-04	2.258529E-05
3.422886E+03	2.154817E-04	2.276117E-05
3.432836E+03	2.174845E-04	2.293496E-05
3.442786E+03	2.195099E-04	2.311026E-05
3.452736E+03	2.215934E-04	2.329078E-05
3.462687E+03	2.236652E-04	2.346916E-05
3.472637E+03	2.257962E-04	2.365283E-05
3.482587E+03	2.279156E-04	2.383434E-05
3.492537E+03	2.300953E-04	2.402121E-05
3.502488E+03	2.322631E-04	2.420588E-05
3.512438E+03	2.344555E-04	2.439213E-05
3.522388E+03	2.367100E-04	2.458385E-05
3.532338E+03	2.389526E-04	2.477332E-05
3.542289E+03	2.412585E-04	2.496834E-05
3.552239E+03	2.435523E-04	2.516106E-05
3.562189E+03	2.459106E-04	2.535940E-05
3.572139E+03	2.482568E-04	2.555540E-05
3.582090E+03	2.506686E-04	2.575708E-05
3.592040E+03	2.531077E-04	2.596046E-05
3.601990E+03	2.555344E-04	2.616144E-05
3.611940E+03	2.580287E-04	2.636820E-05
3.621891E+03	2.605102E-04	2.657251E-05
3.631841E+03	2.630605E-04	2.678266E-05
3.641791E+03	2.655979E-04	2.699031E-05
3.651741E+03	2.682052E-04	2.720387E-05
3.661692E+03	2.708416E-04	2.741915E-05
3.671642E+03	2.734646E-04	2.763184E-05
3.681592E+03	2.761595E-04	2.785052E-05
3.691542E+03	2.788407E-04	2.806656E-05
3.701493E+03	2.815949E-04	2.828864E-05
3.711443E+03	2.843793E-04	2.851244E-05
3.721393E+03	2.871496E-04	2.873350E-05
3.731343E+03	2.899946E-04	2.896068E-05
3.741294E+03	2.928704E-04	2.918956E-05
3.751244E+03	2.957314E-04	2.941558E-05
3.761194E+03	2.986690E-04	2.964780E-05
3.771144E+03	3.015914E-04	2.987709E-05
3.781095E+03	3.045914E-04	3.011263E-05
3.791045E+03	3.076232E-04	3.034982E-05
3.800995E+03	3.106389E-04	3.058395E-05
3.810945E+03	3.137340E-04	3.082439E-05
3.820896E+03	3.168613E-04	3.106645E-05
3.830846E+03	3.199717E-04	3.130530E-05
3.840796E+03	3.231632E-04	3.155052E-05
3.850746E+03	3.263872E-04	3.179731E-05
3.860697E+03	3.295933E-04	3.204075E-05
3.870647E+03	3.328822E-04	3.229059E-05
3.880597E+03	3.361524E-04	3.253698E-05
3.890547E+03	3.395065E-04	3.278980E-05
3.900498E+03	3.428934E-04	3.304409E-05
3.910448E+03	3.462605E-04	3.329475E-05
3.920398E+03	3.497131E-04	3.355188E-05
3.930348E+03	3.531986E-04	3.381040E-05
3.940299E+03	3.566629E-04	3.406511E-05
3.950249E+03	3.602142E-04	3.432631E-05
3.960199E+03	3.637432E-04	3.458357E-05
3.970149E+03	3.673601E-04	3.484732E-05
3.980100E+03	3.710101E-04	3.511233E-05
3.990050E+03	3.746362E-04	3.537318E-05
4.000000E+03	3.783516E-04	3.564054E-05
4.009950E+03	3.820421E-04	3.590362E-05
4.019900E+03	3.858227E-04	3.617319E-05
4.029851E+03	3.896360E-04	3.644383E-05
4.039801E+03	3.934226E-04	3.670996E-05
4.049751E+03	3.973005E-04	3.698258E-05
4.059701E+03	4.011504E-04	3.725053E-05
4.069652E+03	4.050924E-04	3.752495E-05
4.079602E+03	4.090050E-04	3.779455E-05
4.089552E+03	4.130104E-04	3.807061E-05
4.099502E+03	4.169852E-04	3.834169E-05
4.109453E+03	4.210534E-04	3.861919E-05
4.119403E+03	4.250888E-04	3.889150E-05
4.129353E+03	4.292191E-04	3.917027E-05
4.139303E+03	4.333150E-04	3.944367E-05
4.149254E+03	4.375057E-04	3.972344E-05
4.159204E+03	4.416612E-04	3.999773E-05
4.169154E+03	4.458452E-04	4.027231E-05
4.179104E+03	4.501252E-04	4.055324E-05
4.189055E+03	4.543667E-04	4.082835E-05
4.199005E+03	4.586360E-04	4.110361E-05
4.208955E+03	4.630022E-04	4.138517E-05
4.218905E+03	4.673269E-04	4.166061E-05
4.228856E+03	4.717485E-04	4.194224E-05
4.238806E+03	4.761273E-04	4.221763E-05
4.248756E+03	4.805322E-04	4.249287E-05
4.258706E+03	4.849624E-04	4.276787E-05
4.268657E+03	4.894906E-04	4.304901E-05
4.278607E+03	4.939711E-04	4.332341E-05
4.288557E+03	4.984762E-04	4.359743E-05
4.298507E+03	5.030051E-04	4.387099E-05
4.308458E+03	5.075575E-04	4.414401E-05
4.318408E+03	5.122077E-04	4.442294E-05
4.328358E+03	5.168050E-04	4.469465E-05
4.338308E+03	5.214241E-04	4.496562E-05
4.348259E+03	5.260644E-04	4.523577E-05
4.358209E+03	5.307253E-04	4.550503E-05
4.368159E+03	5.354056E-04	4.577328E-05
4.378109E+03	5.401050E-04	4.604047E-05
4.388060E+03	5.448235E-04	4.630657E-05
4.398010E+03	5.495593E-04	4.657143E-05
4.407960E+03	5.543126E-04	4.683503E-05
4.417910E+03	5.590821E-04	4.709724E-05
4.427861E+03	5.638673E-04	4.735801E-05
4.437811E+03	5.686674E-04	4.761726E-05
4.447761E+03	5.734817E-04	4.787489E-05
4.457711E+03	5.783095E-04	4.813086E-05
4.467662E+03	5.831494E-04	4.838500E-05
4.477612E+03	5.879156E-04	4.863024E-05
4.487562E+03	5.927775E-04	4.888058E-05
4.497512E+03	5.976488E-04	4.912885E-05
4.507463E+03	6.025295E-04	4.937503E-05
4.517413E+03	6.073301E-04	4.961182E-05
4.527363E+03	6.122250E-04	4.985347E-05
4.537313E+03	6.171263E-04	5.009275E-05
4.547264E+03	6.219424E-04	5.032227E-05
4.557214E+03	6.268527E-04	5.055655E-05
4.567164E+03	6.317662E-04	5.078819E-05
4.577114E+03	6.365898E-04	5.100975E-05
4.587065E+03	6.415065E-04	5.123588E-05
4.597015E+03	6.463304E-04	5.145174E-05
4.606965E+03	6.512475E-04	5.167214E-05
4.616915E+03	6.560690E-04	5.188208E-05
4.626866E+03	6.609834E-04	5.209649E-05
4.636816E+03	6.658001E-04	5.230033E-05
4.646766E+03	6.706138E-04	5.250109E-05
4.656716E+03	6.755214E-04	5.270633E-05
4.666667E+03	6.803287E-04	5.290088E-05
4.676617E+03	6.851329E-04	5.309235E-05
4.686567E+03	6.900338E-04	5.328845E-05
4.696517E+03	6.948348E-04	5.347398E-05
4.706468E+03	6.996348E-04	5.365660E-05
4.716418E+03	7.044354E-04	5.383645E-05
4.726368E+03	7.092384E-04	5.401365E-05
4.736318E+03	7.140456E-04	5.418834E-05
4.746269E+03	7.188595E-04	5.436073E-05
4.756219E+03	7.236824E-04	5.453097E-05
4.766169E+03	7.285168E-04	5.469926E-05
4.776119E+03	7.333656E-04	5.486580E-05
4.786070E+03	7.382303E-04	5.503070E-05
4.796020E+03	7.431142E-04	5.519421E-05
4.805970E+03	7.480186E-04	5.535640E-05
4.815920E+03	7.529449E-04	5.551736E-05
4.825871E+03	7.578949E-04	5.567723E-05
4.835821E+03	7.628690E-04	5.583602E-05
4.845771E+03	7.677578E-04	5.598573E-05
4.855721E+03	7.727802E-04	5.614235E-05
4.865672E+03	7.778264E-04	5.629783E-05
4.875622E+03	7.827848E-04	5.644412E-05
4.885572E+03	7.878763E-04	5.659715E-05
4.895522E+03	7.929892E-04	5.674885E-05
4.905473E+03	7.980084E-04	5.689098E-05
4.915423E+03	8.031585E-04	5.703960E-05
4.925373E+03	8.082107E-04	5.717841E-05
4.935323E+03	8.133931E-04	5.732357E-05
4.945274E+03	8.184736E-04	5.745870E-05
4.955224E+03	8.235656E-04	5.759182E-05
4.965174E+03	8.287865E-04	5.773107E-05
4.975124E+03	8.339011E-04	5.786005E-05
4.985075E+03	8.390253E-04	5.798683E-05
4.995025E+03	8.442778E-04	5.811957E-05
5.004975E+03	8.494211E-04	5.824189E-05
5.014925E+03	8.545727E-04	5.836188E-05
5.024876E+03	8.597329E-04	5.847955E-05
5.034826E+03	8.649015E-04	5.859487E-05
5.044776E+03	8.700784E-04	5.870784E-05
5.054726E+03	8.753868E-04	5.882671E-05
5.064677E+03	8.805815E-04	5.893496E-05
5.074627E+03	8.857840E-04	5.904079E-05
5.084577E+03	8.908693E-04	5.913586E-05
5.094527E+03	8.960880E-04	5.923686E-05
5.104478E+03	9.013152E-04	5.933544E-05
5.114428E+03	9.065507E-04	5.943157E-05
5.124378E+03	9.117943E-04	5.952523E-05
5.134328E+03	9.170459E-04	5.961642E-05
5.144279E+03	9.221763E-04	5.969674E-05
5.154229E+03	9.274437E-04	5.978295E-05
5.164179E+03	9.327182E-04	5.986659E-05
5.174129E+03	9.378688E-04	5.993928E-05
5.184080E+03	9.431573E-04	6.001777E-05
5.194030E+03	9.484528E-04	6.009368E-05
5.203980E+03	9.536208E-04	6.015849E-05
5.213930E+03	9.589280E-04	6.022906E-05
5.223881E+03	9.641051E-04	6.028845E-05
5.233831E+03	9.694217E-04	6.035355E-05
5.243781E+03	9.746064E-04	6.040741E-05
5.253731E+03	9.797930E-04	6.045841E-05
5.263682E+03	9.851194E-04	6.051502E-05
5.273632E+03	9.903096E-04	6.056025E-05
5.283582E+03	9.954998E-04	6.060250E-05
5.293532E+03	1.000689E-03	6.064175E-05
5.303483E+03	1.006018E-03	6.068642E-05
5.313433E+03	1.011205E-03	6.071954E-05
5.323383E+03	1.016388E-03	6.074950E-05
5.333333E+03	1.021567E-03	6.077626E-05
5.343284E+03	1.026740E-03	6.079980E-05
5.353234E+03	1.031908E-03	6.082006E-05
5.363184E+03	1.037068E-03	6.083699E-05
5.373134E+03	1.042220E-03	6.085053E-05
5.383085E+03	1.047362E-03	6.086066E-05
5.393035E+03	1.052494E-03	6.086735E-05
5.402985E+03	1.057614E-03	6.087050E-05
5.412935E+03	1.062720E-03	6.087011E-05
5.422886E+03	1.067664E-03	6.085762E-05
5.432836E+03	1.072740E-03	6.084998E-05
5.442786E+03	1.077799E-03	6.083868E-05
5.452736E+03	1.082839E-03	6.082362E-05
5.462687E+03	1.087709E-03	6.079634E-05
5.472637E+03	1.092708E-03	6.077373E-05
5.482587E+03	1.097685E-03	6.074729E-05
5.492537E+03	1.102484E-03	6.070851E-05
5.502488E+03	1.107410E-03	6.067428E-05
5.512438E+03	1.112155E-03	6.062767E-05
5.522388E+03	1.117025E-03	6.058553E-05
5.532338E+03	1.121710E-03	6.053097E-05
5.542289E+03	1.126517E-03	6.048081E-05
5.552239E+03	1.131135E-03	6.041820E-05
5.562189E+03	1.135716E-03	6.035152E-05
5.572139E+03	1.140418E-03	6.028918E-05
5.582090E+03	1.144922E-03	6.021433E-05
5.592040E+03	1.149385E-03	6.013538E-05
5.601990E+03	1.153806E-03	6.005234E-05
5.611940E+03	1.158343E-03	5.997349E-05
5.621891E+03	1.162673E-03	5.988215E-05
5.631841E+03	1.166955E-03	5.978672E-05
5.641791E+03	1.171188E-03	5.968714E-05
5.651741E+03	1.175368E-03	5.958342E-05
5.661692E+03	1.179496E-03	5.947559E-05
5.671642E+03	1.183568E-03	5.936366E-05
5.681592E+03	1.187584E-03	5.924763E-05
5.691542E+03	1.191541E-03	5.912753E-05
5.701493E+03	1.195437E-03	5.900338E-05
5.711443E+03	1.199271E-03	5.887519E-05
5.721393E+03	1.203041E-03	5.874300E-05
5.731343E+03	1.206744E-03	5.860683E-05
5.741294E+03	1.210213E-03	5.845867E-05
5.751244E+03	1.213780E-03	5.831473E-05
5.761194E+03	1.217275E-03	5.816693E-05
5.771144E+03	1.220697E-03	5.801537E-05
5.781095E+03	1.223876E-03	5.785206E-05
5.791045E+03	1.227147E-03	5.769311E-05
5.800995E+03	1.230340E-03	5.753056E-05
5.810945E+03	1.233283E-03	5.735657E-05
5.820896E+03	1.236315E-03	5.718705E-05
5.830846E+03	1.239265E-03	5.701420E-05
5.840796E+03	1.241960E-03	5.683021E-05
5.850746E+03	1.244740E-03	5.665091E-05
5.860697E+03	1.247262E-03	5.646074E-05
5.870647E+03	1.249868E-03	5.627542E-05
5.880597E+03	1.252212E-03	5.607951E-05
5.890547E+03	1.254465E-03	5.588091E-05
5.900498E+03	1.256801E-03	5.568747E-05
5.910448E+03	1.258871E-03	5.548391E-05
5.920398E+03	1.261025E-03	5.528577E-05
5.930348E+03	1.262910E-03	5.507784E-05
5.940299E+03	1.264703E-03	5.486799E-05
5.950249E+03	1.266402E-03	5.465638E-05
5.960199E+03	1.268185E-03	5.445077E-05
5.970149E+03	1.269701E-03	5.423623E-05
5.980100E+03	1.271125E-03	5.402056E-05
5.990050E+03	1.272459E-03	5.380396E-05
6.000000E+03	1.273705E-03	5.358668E-05
6.009950E+03	1.274865E-03	5.336901E-05
6.019900E+03	1.276117E-03	5.315854E-05
6.029851E+03	1.277111E-03	5.294083E-05
6.039801E+03	1.278027E-03	5.272357E-05
6.049751E+03	1.278870E-03	5.250713E-05
6.059701E+03	1.279644E-03	5.229184E-05
6.069652E+03	1.280355E-03	5.207809E-05
6.079602E+03	1.281008E-03	5.186627E-05
6.089552E+03	1.281611E-03	5.165685E-05
6.099502E+03	1.281995E-03	5.144319E-05
6.109453E+03	1.282523E-03	5.124002E-05
6.119403E+03	1.283028E-03	5.104077E-05
6.129353E+03	1.283521E-03	5.084599E-05
6.139303E+03	1.284015E-03	5.065630E-05
6.149254E+03	1.284522E-03	5.047232E-05
6.159204E+03	1.284877E-03	5.028772E-05
6.169154E+03	1.285449E-03	5.011701E-05
6.179104E+03	1.286069E-03	4.995370E-05
6.189055E+03	1.286743E-03	4.979810E-05
6.199005E+03	1.287292E-03	4.964339E-05
6.208955E+03	1.288067E-03	4.950311E-05
6.218905E+03	1.288880E-03	4.936994E-05
6.228856E+03	1.289539E-03	4.923650E-05
6.238806E+03	1.290391E-03	4.911594E-05
6.248756E+03	1.291243E-03	4.900083E-05
6.258706E+03	1.291905E-03	4.888391E-05
6.268657E+03	1.292723E-03	4.877825E-05
6.278607E+03	1.293330E-03	4.866988E-05
6.288557E+03	1.294076E-03	4.857193E-05
6.298507E+03	1.294593E-03	4.847053E-05
6.308458E+03	1.295232E-03	4.837882E-05
6.318408E+03	1.295630E-03	4.828308E-05
6.328358E+03	1.296139E-03	4.819646E-05
6.338308E+03	1.296397E-03	4.810534E-05
6.348259E+03	1.296579E-03	4.801620E-05
6.358209E+03	1.296861E-03	4.793551E-05
6.368159E+03	1.296881E-03	4.784982E-05
6.378109E+03	1.296998E-03	4.777225E-05
6.388060E+03	1.296851E-03	4.768947E-05
6.398010E+03	1.296620E-03	4.760801E-05
6.407960E+03	1.296304E-03	4.752780E-05
6.417910E+03	1.296084E-03	4.745528E-05
6.427861E+03	1.295600E-03	4.737718E-05
6.437811E+03	1.295034E-03	4.729994E-05
6.447761E+03	1.294385E-03	4.722346E-05
6.457711E+03	1.293835E-03	4.715415E-05
6.467662E+03	1.293026E-03	4.707886E-05
6.477612E+03	1.292141E-03	4.700409E-05
6.487562E+03	1.291182E-03	4.692975E-05
6.497512E+03	1.290152E-03	4.685577E-05
6.507463E+03	1.289053E-03	4.678215E-05
6.517413E+03	1.287888E-03	4.670881E-05
6.527363E+03	1.286840E-03	4.664219E-05
6.537313E+03	1.285555E-03	4.656932E-05
6.547264E+03	1.284213E-03	4.649664E-05
6.557214E+03	1.282818E-03	4.642411E-05
6.567164E+03	1.281374E-03	4.635171E-05
6.577114E+03	1.279883E-03	4.627941E-05
6.587065E+03	1.278349E-03	4.620719E-05
6.597015E+03	1.276774E-03	4.613500E-05
6.606965E+03	1.275162E-03	4.606281E-05
6.616915E+03	1.273516E-03	4.599063E-05
6.626866E+03	1.271661E-03	4.591203E-05
6.636816E+03	1.269955E-03	4.583976E-05
6.646766E+03	1.268221E-03	4.576738E-05
6.656716E+03	1.266465E-03	4.569490E-05
6.666667E+03	1.264688E-03	4.562227E-05
6.676617E+03	1.262892E-03	4.554949E-05
6.686567E+03	1.261079E-03	4.547651E-05
6.696517E+03	1.259078E-03	4.539702E-05
6.706468E+03	1.257241E-03	4.532361E-05
6.716418E+03	1.255395E-03	4.524996E-05
6.726368E+03	1.253542E-03	4.517606E-05
6.736318E+03	1.251683E-03	4.510187E-05
6.746269E+03	1.249648E-03	4.502111E-05
6.756219E+03	1.247787E-03	4.494633E-05
6.766169E+03	1.245926E-03	4.487121E-05
6.776119E+03	1.243895E-03	4.478955E-05
6.786070E+03	1.242043E-03	4.471378E-05
6.796020E+03	1.240198E-03	4.463769E-05
6.805970E+03	1.238189E-03	4.455504E-05
6.815920E+03	1.236363E-03	4.447827E-05
6.825871E+03	1.234550E-03	4.440114E-05
6.835821E+03	1.232578E-03	4.431750E-05
6.845771E+03	1.230795E-03	4.423973E-05
6.855721E+03	1.228857E-03	4.415545E-05
6.865672E+03	1.227111E-03	4.407704E-05
6.875622E+03	1.225214E-03	4.399218E-05
6.885572E+03	1.223511E-03	4.391321E-05
6.895522E+03	1.221661E-03	4.382782E-05
6.905473E+03	1.220007E-03	4.374832E-05
6.915423E+03	1.218211E-03	4.366251E-05
6.925373E+03	1.216614E-03	4.358260E-05
6.935323E+03	1.214878E-03	4.349643E-05
6.945274E+03	1.213343E-03	4.341621E-05
6.955224E+03	1.211673E-03	4.332982E-05
6.965174E+03	1.210207E-03	4.324942E-05
6.975124E+03	1.208609E-03	4.316293E-05
6.985075E+03	1.207049E-03	4.307647E-05
6.995025E+03	1.205699E-03	4.299609E-05
7.004975E+03	1.204221E-03	4.290977E-05
7.014925E+03	1.202786E-03	4.282361E-05
7.024876E+03	1.201565E-03	4.274364E-05
7.034826E+03	1.200221E-03	4.265792E-05
7.044776E+03	1.198925E-03	4.257249E-05
7.054726E+03	1.197847E-03	4.249337E-05
7.064677E+03	1.196651E-03	4.240870E-05
7.074627E+03	1.195508E-03	4.232450E-05
7.084577E+03	1.194419E-03	4.224083E-05
7.094527E+03	1.193554E-03	4.216368E-05
7.104478E+03	1.192577E-03	4.208125E-05
7.114428E+03	1.191660E-03	4.199955E-05
7.124378E+03	1.190803E-03	4.191864E-05
7.134328E+03	1.190009E-03	4.183861E-05
7.144279E+03	1.189278E-03	4.175952E-05
7.154229E+03	1.188779E-03	4.168730E-05
7.164179E+03	1.188180E-03	4.161029E-05
7.174129E+03	1.187650E-03	4.153447E-05
7.184080E+03	1.187191E-03	4.145990E-05
7.194030E+03	1.186803E-03	4.138666E-05
7.203980E+03	1.186489E-03	4.131486E-05
7.213930E+03	1.186250E-03	4.124456E-05
7.223881E+03	1.186089E-03	4.117587E-05
7.233831E+03	1.186007E-03	4.110886E-05
7.243781E+03	1.186005E-03	4.104363E-05
7.253731E+03	1.186087E-03	4.098032E-05
7.263682E+03	1.186253E-03	4.091896E-05
7.273632E+03	1.186505E-03	4.085972E-05
7.283582E+03	1.186846E-03	4.080266E-05
7.293532E+03	1.187279E-03	4.074791E-05
7.303483E+03	1.187803E-03	4.069556E-05
7.313433E+03	1.188255E-03	4.064001E-05
7.323383E+03	1.188970E-03	4.059282E-05
7.333333E+03	1.189785E-03	4.054839E-05
7.343284E+03	1.190700E-03	4.050681E-05
7.353234E+03	1.191718E-03	4.046821E-05
7.363184E+03	1.192842E-03	4.043271E-05
7.373134E+03	1.193902E-03	4.039468E-05
7.383085E+03	1.195239E-03	4.036566E-05
7.393035E+03	1.196686E-03	4.034004E-05
7.402985E+03	1.198243E-03	4.031788E-05
7.412935E+03	1.199741E-03	4.029358E-05
7.422886E+03	1.201520E-03	4.027858E-05
7.432836E+03	1.203409E-03	4.026722E-05
7.442786E+03	1.205406E-03	4.025950E-05
7.452736E+03	1.207339E-03	4.024972E-05
7.462687E+03	1.209546E-03	4.024923E-05
7.472637E+03	1.211681E-03	4.024655E-05
7.482587E+03	1.214083E-03	4.025302E-05
7.492537E+03	1.216575E-03	4.026284E-05
7.502488E+03	1.218979E-03	4.027022E-05
7.512438E+03	1.221641E-03	4.028661E-05
7.522388E+03	1.224213E-03	4.030063E-05
7.532338E+03	1.227045E-03	4.032389E-05
7.542289E+03	1.229793E-03	4.034513E-05
7.552239E+03	1.232812E-03	4.037592E-05
7.562189E+03	1.235754E-03	4.040480E-05
7.572139E+03	1.238975E-03	4.044329E-05
7.582090E+03	1.242126E-03	4.047989E-05
7.592040E+03	1.245562E-03	4.052606E-05
7.601990E+03	1.248929E-03	4.057023E-05
7.611940E+03	1.252584E-03	4.062383E-05
7.621891E+03	1.256170E-03	4.067519E-05
7.631841E+03	1.259864E-03	4.072997E-05
7.641791E+03	1.263845E-03	4.079383E-05
7.651741E+03	1.267751E-03	4.085499E-05
7.661692E+03	1.271760E-03	4.091909E-05
7.671642E+03	1.276051E-03	4.099181E-05
7.681592E+03	1.280260E-03	4.106127E-05
7.691542E+03	1.284565E-03	4.113314E-05
7.701493E+03	1.288962E-03	4.120722E-05
7.711443E+03	1.293635E-03	4.128924E-05
7.721393E+03	1.298211E-03	4.136720E-05
