#wls	flux	fluxerr
1.592040E+03	8.015497E-05	2.831830E-06
1.631841E+03	8.124160E-05	2.864355E-06
1.671642E+03	8.233002E-05	2.896631E-06
1.711443E+03	8.341940E-05	2.928619E-06
1.751244E+03	8.450706E-05	2.960215E-06
1.791045E+03	8.559847E-05	2.991601E-06
1.830846E+03	8.665004E-05	3.021246E-06
1.870647E+03	8.767552E-05	3.049628E-06
1.910448E+03	8.862542E-05	3.075026E-06
1.950249E+03	8.951628E-05	3.098024E-06
1.990050E+03	9.033443E-05	3.118154E-06
2.029851E+03	9.113559E-05	3.137345E-06
2.069652E+03	9.198584E-05	3.157863E-06
2.109453E+03	9.305227E-05	3.185402E-06
2.149254E+03	9.449963E-05	3.225511E-06
2.189055E+03	9.637727E-05	3.279742E-06
2.228856E+03	9.863881E-05	3.346372E-06
2.268657E+03	1.011714E-04	3.421440E-06
2.308458E+03	1.038796E-04	3.501624E-06
2.348259E+03	1.066499E-04	3.583019E-06
2.388060E+03	1.094797E-04	3.665502E-06
2.427861E+03	1.123388E-04	3.748007E-06
2.467662E+03	1.152299E-04	3.830594E-06
2.507463E+03	1.181630E-04	3.913554E-06
2.547264E+03	1.211507E-04	3.997252E-06
2.587065E+03	1.242273E-04	4.082770E-06
2.626866E+03	1.273844E-04	4.169768E-06
2.666667E+03	1.306334E-04	4.258557E-06
2.706468E+03	1.339852E-04	4.349412E-06
2.746269E+03	1.374494E-04	4.442576E-06
2.786070E+03	1.410356E-04	4.538270E-06
2.825871E+03	1.447777E-04	4.637493E-06
2.865672E+03	1.486607E-04	4.739660E-06
2.905473E+03	1.526670E-04	4.844107E-06
2.945274E+03	1.568568E-04	4.952645E-06
2.985075E+03	1.612409E-04	5.065475E-06
2.995025E+03	1.623502E-04	5.093803E-06
3.004975E+03	1.634704E-04	5.122354E-06
3.014925E+03	1.646019E-04	5.151130E-06
3.024876E+03	1.657733E-04	5.181032E-06
3.034826E+03	1.669295E-04	5.210333E-06
3.044776E+03	1.681291E-04	5.240855E-06
3.054726E+03	1.693143E-04	5.270799E-06
3.064677E+03	1.705136E-04	5.301047E-06
3.074627E+03	1.717560E-04	5.332502E-06
3.084577E+03	1.729828E-04	5.363335E-06
3.094527E+03	1.742232E-04	5.394449E-06
3.104478E+03	1.755068E-04	5.426762E-06
3.114428E+03	1.767739E-04	5.458422E-06
3.124378E+03	1.780846E-04	5.491281E-06
3.134328E+03	1.793782E-04	5.523467E-06
3.144279E+03	1.806849E-04	5.555908E-06
3.154229E+03	1.820356E-04	5.589552E-06
3.164179E+03	1.833686E-04	5.622499E-06
3.174129E+03	1.847461E-04	5.656657E-06
3.184080E+03	1.861055E-04	5.690101E-06
3.194030E+03	1.875098E-04	5.724763E-06
3.203980E+03	1.888958E-04	5.758701E-06
3.213930E+03	1.903273E-04	5.793867E-06
3.223881E+03	1.917400E-04	5.828294E-06
3.233831E+03	1.931990E-04	5.863962E-06
3.243781E+03	1.946389E-04	5.898882E-06
3.253731E+03	1.961257E-04	5.935053E-06
3.263682E+03	1.975933E-04	5.970468E-06
3.273632E+03	1.991085E-04	6.007146E-06
3.283582E+03	2.006042E-04	6.043057E-06
3.293532E+03	2.021483E-04	6.080249E-06
3.303483E+03	2.036727E-04	6.116665E-06
3.313433E+03	2.052463E-04	6.154374E-06
3.323383E+03	2.067999E-04	6.191299E-06
3.333333E+03	2.084037E-04	6.229535E-06
3.343284E+03	2.100228E-04	6.268039E-06
3.353234E+03	2.116218E-04	6.305747E-06
3.363184E+03	2.132721E-04	6.344789E-06
3.373134E+03	2.149020E-04	6.383027E-06
3.383085E+03	2.165842E-04	6.422615E-06
3.393035E+03	2.182458E-04	6.461393E-06
3.402985E+03	2.199605E-04	6.501536E-06
3.412935E+03	2.216919E-04	6.541964E-06
3.422886E+03	2.234026E-04	6.581569E-06
3.432836E+03	2.251677E-04	6.622565E-06
3.442786E+03	2.269502E-04	6.663853E-06
3.452736E+03	2.287116E-04	6.704306E-06
3.462687E+03	2.305289E-04	6.746177E-06
3.472637E+03	2.323250E-04	6.787203E-06
3.482587E+03	2.341779E-04	6.829666E-06
3.492537E+03	2.360492E-04	6.872430E-06
3.502488E+03	2.378989E-04	6.914337E-06
3.512438E+03	2.398070E-04	6.957705E-06
3.522388E+03	2.417339E-04	7.001383E-06
3.532338E+03	2.436391E-04	7.044189E-06
3.542289E+03	2.456040E-04	7.088482E-06
3.552239E+03	2.475470E-04	7.131894E-06
3.562189E+03	2.495508E-04	7.176812E-06
3.572139E+03	2.515744E-04	7.222046E-06
3.582090E+03	2.535756E-04	7.266385E-06
3.592040E+03	2.556393E-04	7.312254E-06
3.601990E+03	2.577233E-04	7.358446E-06
3.611940E+03	2.597847E-04	7.403725E-06
3.621891E+03	2.619099E-04	7.450562E-06
3.631841E+03	2.640562E-04	7.497725E-06
3.641791E+03	2.661793E-04	7.543958E-06
3.651741E+03	2.683680E-04	7.591772E-06
3.661692E+03	2.705782E-04	7.639917E-06
3.671642E+03	2.727648E-04	7.687114E-06
3.681592E+03	2.750185E-04	7.735919E-06
3.691542E+03	2.772944E-04	7.785059E-06
3.701493E+03	2.795462E-04	7.833229E-06
3.711443E+03	2.818667E-04	7.883033E-06
3.721393E+03	2.842100E-04	7.933173E-06
3.731343E+03	2.865762E-04	7.983653E-06
3.741294E+03	2.889176E-04	8.033136E-06
3.751244E+03	2.913299E-04	8.084285E-06
3.761194E+03	2.937658E-04	8.135776E-06
3.771144E+03	2.961762E-04	8.186247E-06
3.781095E+03	2.986593E-04	8.238411E-06
3.791045E+03	3.011664E-04	8.290917E-06
3.800995E+03	3.036474E-04	8.342381E-06
3.810945E+03	3.062028E-04	8.395563E-06
3.820896E+03	3.087828E-04	8.449089E-06
3.830846E+03	3.113361E-04	8.501549E-06
3.840796E+03	3.139655E-04	8.555751E-06
3.850746E+03	3.166200E-04	8.610298E-06
3.860697E+03	3.192471E-04	8.663756E-06
3.870647E+03	3.219521E-04	8.718981E-06
3.880597E+03	3.246828E-04	8.774550E-06
3.890547E+03	3.273853E-04	8.829006E-06
3.900498E+03	3.301675E-04	8.885255E-06
3.910448E+03	3.329759E-04	8.941848E-06
3.920398E+03	3.357554E-04	8.997303E-06
3.930348E+03	3.386164E-04	9.054576E-06
3.940299E+03	3.414480E-04	9.110693E-06
3.950249E+03	3.443623E-04	9.168645E-06
3.960199E+03	3.473038E-04	9.226943E-06
3.970149E+03	3.502150E-04	9.284058E-06
3.980100E+03	3.532109E-04	9.343036E-06
3.990050E+03	3.562344E-04	9.402357E-06
4.000000E+03	3.592268E-04	9.460470E-06
4.009950E+03	3.623059E-04	9.520474E-06
4.019900E+03	3.654133E-04	9.580821E-06
4.029851E+03	3.684886E-04	9.639934E-06
4.039801E+03	3.716526E-04	9.700964E-06
4.049751E+03	3.747839E-04	9.760739E-06
4.059701E+03	3.780053E-04	9.822452E-06
4.069652E+03	3.812559E-04	9.884512E-06
4.079602E+03	3.844730E-04	9.945290E-06
4.089552E+03	3.877822E-04	1.000803E-05
4.099502E+03	3.910573E-04	1.006948E-05
4.109453E+03	3.944259E-04	1.013291E-05
4.119403E+03	3.977597E-04	1.019503E-05
4.129353E+03	4.011885E-04	1.025915E-05
4.139303E+03	4.045819E-04	1.032194E-05
4.149254E+03	4.080718E-04	1.038676E-05
4.159204E+03	4.115927E-04	1.045193E-05
4.169154E+03	4.150774E-04	1.051574E-05
4.179104E+03	4.186607E-04	1.058161E-05
4.189055E+03	4.222071E-04	1.064610E-05
4.199005E+03	4.258537E-04	1.071268E-05
4.208955E+03	4.294626E-04	1.077786E-05
4.218905E+03	4.331734E-04	1.084514E-05
4.228856E+03	4.368459E-04	1.091102E-05
4.238806E+03	4.406218E-04	1.097902E-05
4.248756E+03	4.443587E-04	1.104560E-05
4.258706E+03	4.482006E-04	1.111433E-05
4.268657E+03	4.520029E-04	1.118162E-05
4.278607E+03	4.558379E-04	1.124926E-05
4.288557E+03	4.597803E-04	1.131908E-05
4.298507E+03	4.636821E-04	1.138744E-05
4.308458E+03	4.676933E-04	1.145802E-05
4.318408E+03	4.716625E-04	1.152710E-05
4.328358E+03	4.757432E-04	1.159844E-05
4.338308E+03	4.797811E-04	1.166826E-05
4.348259E+03	4.838532E-04	1.173845E-05
4.358209E+03	4.880392E-04	1.181092E-05
4.368159E+03	4.921813E-04	1.188186E-05
4.378109E+03	4.963586E-04	1.195317E-05
4.388060E+03	5.006518E-04	1.202681E-05
4.398010E+03	5.048999E-04	1.209887E-05
4.407960E+03	5.091835E-04	1.217132E-05
4.417910E+03	5.135858E-04	1.224613E-05
4.427861E+03	5.179415E-04	1.231935E-05
4.437811E+03	5.223327E-04	1.239294E-05
4.447761E+03	5.268448E-04	1.246892E-05
4.457711E+03	5.313089E-04	1.254329E-05
4.467662E+03	5.358084E-04	1.261802E-05
4.477612E+03	5.403444E-04	1.269314E-05
4.487562E+03	5.450035E-04	1.277067E-05
4.497512E+03	5.496112E-04	1.284652E-05
4.507463E+03	5.542549E-04	1.292275E-05
4.517413E+03	5.589335E-04	1.299933E-05
4.527363E+03	5.637379E-04	1.307836E-05
4.537313E+03	5.684869E-04	1.315563E-05
4.547264E+03	5.732703E-04	1.323324E-05
4.557214E+03	5.780872E-04	1.331117E-05
4.567164E+03	5.829367E-04	1.338939E-05
4.577114E+03	5.878188E-04	1.346790E-05
4.587065E+03	5.928271E-04	1.354886E-05
4.597015E+03	5.977711E-04	1.362789E-05
4.606965E+03	6.027440E-04	1.370714E-05
4.616915E+03	6.077444E-04	1.378658E-05
4.626866E+03	6.127709E-04	1.386617E-05
4.636816E+03	6.178208E-04	1.394587E-05
4.646766E+03	6.228926E-04	1.402565E-05
4.656716E+03	6.279837E-04	1.410544E-05
4.666667E+03	6.330908E-04	1.418519E-05
4.676617E+03	6.382107E-04	1.426482E-05
4.686567E+03	6.433401E-04	1.434427E-05
4.696517E+03	6.484737E-04	1.442343E-05
4.706468E+03	6.536077E-04	1.450223E-05
4.716418E+03	6.587353E-04	1.458052E-05
4.726368E+03	6.638510E-04	1.465819E-05
4.736318E+03	6.689461E-04	1.473507E-05
4.746269E+03	6.740133E-04	1.481100E-05
4.756219E+03	6.790417E-04	1.488577E-05
4.766169E+03	6.840215E-04	1.495918E-05
4.776119E+03	6.889397E-04	1.503095E-05
4.786070E+03	6.937829E-04	1.510083E-05
4.796020E+03	6.984353E-04	1.516631E-05
4.805970E+03	7.031190E-04	1.523226E-05
4.815920E+03	7.077259E-04	1.529634E-05
4.825871E+03	7.122566E-04	1.535858E-05
4.835821E+03	7.167099E-04	1.541899E-05
4.845771E+03	7.209720E-04	1.547515E-05
4.855721E+03	7.252713E-04	1.553198E-05
4.865672E+03	7.294976E-04	1.558714E-05
4.875622E+03	7.336548E-04	1.564073E-05
4.885572E+03	7.376280E-04	1.569034E-05
4.895522E+03	7.416555E-04	1.574104E-05
4.905473E+03	7.456233E-04	1.579043E-05
4.915423E+03	7.495346E-04	1.583859E-05
4.925373E+03	7.532742E-04	1.588309E-05
4.935323E+03	7.570829E-04	1.592906E-05
4.945274E+03	7.608453E-04	1.597404E-05
4.955224E+03	7.644430E-04	1.601558E-05
4.965174E+03	7.681218E-04	1.605883E-05
4.975124E+03	7.716409E-04	1.609875E-05
4.985075E+03	7.752479E-04	1.614053E-05
4.995025E+03	7.788238E-04	1.618168E-05
5.004975E+03	7.822469E-04	1.621967E-05
5.014925E+03	7.857670E-04	1.625969E-05
5.024876E+03	7.891388E-04	1.629668E-05
5.034826E+03	7.926141E-04	1.633582E-05
5.044776E+03	7.959444E-04	1.637200E-05
5.054726E+03	7.993836E-04	1.641045E-05
5.064677E+03	8.026809E-04	1.644601E-05
5.074627E+03	8.060918E-04	1.648392E-05
5.084577E+03	8.093640E-04	1.651902E-05
5.094527E+03	8.126257E-04	1.655393E-05
5.104478E+03	8.160079E-04	1.659132E-05
5.114428E+03	8.192546E-04	1.662598E-05
5.124378E+03	8.226254E-04	1.666318E-05
5.134328E+03	8.258626E-04	1.669769E-05
5.144279E+03	8.290962E-04	1.673216E-05
5.154229E+03	8.324598E-04	1.676926E-05
5.164179E+03	8.356908E-04	1.680371E-05
5.174129E+03	8.389223E-04	1.683819E-05
5.184080E+03	8.422872E-04	1.687535E-05
5.194030E+03	8.455216E-04	1.690991E-05
5.203980E+03	8.487585E-04	1.694454E-05
5.213930E+03	8.519983E-04	1.697923E-05
5.223881E+03	8.553769E-04	1.701670E-05
5.233831E+03	8.586251E-04	1.705158E-05
5.243781E+03	8.618782E-04	1.708656E-05
5.253731E+03	8.651360E-04	1.712163E-05
5.263682E+03	8.683995E-04	1.715683E-05
5.273632E+03	8.718063E-04	1.719485E-05
5.283582E+03	8.750822E-04	1.723029E-05
5.293532E+03	8.783642E-04	1.726584E-05
5.303483E+03	8.816528E-04	1.730153E-05
5.313433E+03	8.849482E-04	1.733734E-05
5.323383E+03	8.882498E-04	1.737327E-05
5.333333E+03	8.915581E-04	1.740933E-05
5.343284E+03	8.948727E-04	1.744550E-05
5.353234E+03	8.981940E-04	1.748180E-05
5.363184E+03	9.015222E-04	1.751822E-05
5.373134E+03	9.048566E-04	1.755475E-05
5.383085E+03	9.081970E-04	1.759139E-05
5.393035E+03	9.115438E-04	1.762815E-05
5.402985E+03	9.148961E-04	1.766500E-05
5.412935E+03	9.182538E-04	1.770195E-05
5.422886E+03	9.216172E-04	1.773900E-05
5.432836E+03	9.249856E-04	1.777613E-05
5.442786E+03	9.283587E-04	1.781335E-05
5.452736E+03	9.317361E-04	1.785065E-05
5.462687E+03	9.351173E-04	1.788801E-05
5.472637E+03	9.383546E-04	1.792261E-05
5.482587E+03	9.417426E-04	1.796010E-05
5.492537E+03	9.451326E-04	1.799763E-05
5.502488E+03	9.485256E-04	1.803521E-05
5.512438E+03	9.519199E-04	1.807282E-05
5.522388E+03	9.553159E-04	1.811046E-05
5.532338E+03	9.585622E-04	1.814528E-05
5.542289E+03	9.619584E-04	1.818295E-05
5.552239E+03	9.653546E-04	1.822063E-05
5.562189E+03	9.687504E-04	1.825833E-05
5.572139E+03	9.719916E-04	1.829313E-05
5.582090E+03	9.753833E-04	1.833079E-05
5.592040E+03	9.787723E-04	1.836844E-05
5.601990E+03	9.820041E-04	1.840316E-05
5.611940E+03	9.853857E-04	1.844074E-05
5.621891E+03	9.887628E-04	1.847828E-05
5.631841E+03	9.919792E-04	1.851286E-05
5.641791E+03	9.953445E-04	1.855028E-05
5.651741E+03	9.985468E-04	1.858473E-05
5.661692E+03	1.001898E-03	1.862201E-05
5.671642E+03	1.005241E-03	1.865923E-05
5.681592E+03	1.008418E-03	1.869342E-05
5.691542E+03	1.011742E-03	1.873045E-05
5.701493E+03	1.014897E-03	1.876445E-05
5.711443E+03	1.018200E-03	1.880126E-05
5.721393E+03	1.021330E-03	1.883503E-05
5.731343E+03	1.024608E-03	1.887162E-05
5.741294E+03	1.027710E-03	1.890512E-05
5.751244E+03	1.030959E-03	1.894145E-05
5.761194E+03	1.034029E-03	1.897466E-05
5.771144E+03	1.037246E-03	1.901070E-05
5.781095E+03	1.040282E-03	1.904360E-05
5.791045E+03	1.043297E-03	1.907631E-05
5.800995E+03	1.046457E-03	1.911185E-05
5.810945E+03	1.049432E-03	1.914421E-05
5.820896E+03	1.052548E-03	1.917936E-05
5.830846E+03	1.055476E-03	1.921132E-05
5.840796E+03	1.058379E-03	1.924304E-05
5.850746E+03	1.061421E-03	1.927756E-05
5.860697E+03	1.064269E-03	1.930882E-05
5.870647E+03	1.067088E-03	1.933982E-05
5.880597E+03	1.070043E-03	1.937357E-05
5.890547E+03	1.072799E-03	1.940401E-05
5.900498E+03	1.075519E-03	1.943415E-05
5.910448E+03	1.078203E-03	1.946396E-05
5.920398E+03	1.081018E-03	1.949647E-05
5.930348E+03	1.083622E-03	1.952555E-05
5.940299E+03	1.086183E-03	1.955424E-05
5.950249E+03	1.088699E-03	1.958249E-05
5.960199E+03	1.091165E-03	1.961028E-05
5.970149E+03	1.093752E-03	1.964064E-05
5.980100E+03	1.096112E-03	1.966738E-05
5.990050E+03	1.098413E-03	1.969354E-05
6.000000E+03	1.100652E-03	1.971905E-05
6.009950E+03	1.102824E-03	1.974386E-05
6.019900E+03	1.104925E-03	1.976791E-05
6.029851E+03	1.106949E-03	1.979112E-05
6.039801E+03	1.109066E-03	1.981652E-05
6.049751E+03	1.110921E-03	1.983782E-05
6.059701E+03	1.112682E-03	1.985803E-05
6.069652E+03	1.114342E-03	1.987704E-05
6.079602E+03	1.115894E-03	1.989474E-05
6.089552E+03	1.117329E-03	1.991101E-05
6.099502E+03	1.118640E-03	1.992571E-05
6.109453E+03	1.119817E-03	1.993870E-05
6.119403E+03	1.120850E-03	1.994983E-05
6.129353E+03	1.121729E-03	1.995894E-05
6.139303E+03	1.122444E-03	1.996587E-05
6.149254E+03	1.122984E-03	1.997042E-05
6.159204E+03	1.123337E-03	1.997241E-05
6.169154E+03	1.123491E-03	1.997165E-05
6.179104E+03	1.123434E-03	1.996794E-05
6.189055E+03	1.123154E-03	1.996110E-05
6.199005E+03	1.122656E-03	1.995120E-05
6.208955E+03	1.121958E-03	1.993859E-05
6.218905E+03	1.120903E-03	1.992048E-05
6.228856E+03	1.119861E-03	1.990343E-05
6.238806E+03	1.118674E-03	1.988464E-05
6.248756E+03	1.117360E-03	1.986444E-05
6.258706E+03	1.115936E-03	1.984311E-05
6.268657E+03	1.114418E-03	1.982096E-05
6.278607E+03	1.112822E-03	1.979826E-05
6.288557E+03	1.110990E-03	1.977219E-05
6.298507E+03	1.109285E-03	1.974921E-05
6.308458E+03	1.107547E-03	1.972647E-05
6.318408E+03	1.105791E-03	1.970423E-05
6.328358E+03	1.104028E-03	1.968271E-05
6.338308E+03	1.102100E-03	1.965906E-05
6.348259E+03	1.100364E-03	1.963967E-05
6.358209E+03	1.098660E-03	1.962165E-05
6.368159E+03	1.096999E-03	1.960523E-05
6.378109E+03	1.095221E-03	1.958753E-05
6.388060E+03	1.093680E-03	1.957490E-05
6.398010E+03	1.092215E-03	1.956444E-05
6.407960E+03	1.090837E-03	1.955636E-05
6.417910E+03	1.089381E-03	1.954772E-05
6.427861E+03	1.088187E-03	1.954458E-05
6.437811E+03	1.087083E-03	1.954385E-05
6.447761E+03	1.085895E-03	1.954239E-05
6.457711E+03	1.084962E-03	1.954630E-05
6.467662E+03	1.084110E-03	1.955243E-05
6.477612E+03	1.083169E-03	1.955769E-05
6.487562E+03	1.082475E-03	1.956815E-05
6.497512E+03	1.081856E-03	1.958069E-05
6.507463E+03	1.081141E-03	1.959219E-05
6.517413E+03	1.080667E-03	1.960874E-05
6.527363E+03	1.080092E-03	1.962416E-05
6.537313E+03	1.079754E-03	1.964454E-05
6.547264E+03	1.079481E-03	1.966677E-05
6.557214E+03	1.079101E-03	1.968772E-05
6.567164E+03	1.078953E-03	1.971350E-05
6.577114E+03	1.078694E-03	1.973791E-05
6.587065E+03	1.078663E-03	1.976710E-05
6.597015E+03	1.078520E-03	1.979483E-05
6.606965E+03	1.078601E-03	1.982726E-05
6.616915E+03	1.078565E-03	1.985816E-05
6.626866E+03	1.078752E-03	1.989370E-05
6.636816E+03	1.078820E-03	1.992762E-05
6.646766E+03	1.079107E-03	1.996615E-05
6.656716E+03	1.079273E-03	2.000299E-05
6.666667E+03	1.079656E-03	2.004439E-05
6.676617E+03	1.079916E-03	2.008402E-05
6.686567E+03	1.080390E-03	2.012818E-05
6.696517E+03	1.080741E-03	2.017053E-05
6.706468E+03	1.081304E-03	2.021735E-05
6.716418E+03	1.081741E-03	2.026231E-05
6.726368E+03	1.082220E-03	2.030854E-05
6.736318E+03	1.082910E-03	2.035921E-05
6.746269E+03	1.083472E-03	2.040793E-05
6.756219E+03	1.084243E-03	2.046108E-05
6.766169E+03	1.084885E-03	2.051223E-05
6.776119E+03	1.085565E-03	2.056457E-05
6.786070E+03	1.086456E-03	2.062132E-05
6.796020E+03	1.087214E-03	2.067601E-05
6.805970E+03	1.088010E-03	2.073183E-05
6.815920E+03	1.089015E-03	2.079207E-05
6.825871E+03	1.089885E-03	2.085016E-05
6.835821E+03	1.090794E-03	2.090938E-05
6.845771E+03	1.091910E-03	2.097300E-05
6.855721E+03	1.092891E-03	2.103443E-05
6.865672E+03	1.093909E-03	2.109696E-05
6.875622E+03	1.095134E-03	2.116389E-05
6.885572E+03	1.096224E-03	2.122858E-05
6.895522E+03	1.097349E-03	2.129435E-05
6.905473E+03	1.098510E-03	2.136118E-05
6.915423E+03	1.099879E-03	2.143243E-05
6.925373E+03	1.101111E-03	2.150139E-05
6.935323E+03	1.102377E-03	2.157140E-05
6.945274E+03	1.103679E-03	2.164246E-05
6.955224E+03	1.105190E-03	2.171797E-05
6.965174E+03	1.106562E-03	2.179114E-05
6.975124E+03	1.107969E-03	2.186532E-05
6.985075E+03	1.109411E-03	2.194056E-05
6.995025E+03	1.111062E-03	2.202030E-05
7.004975E+03	1.112573E-03	2.209761E-05
7.014925E+03	1.114119E-03	2.217595E-05
7.024876E+03	1.115700E-03	2.225534E-05
7.034826E+03	1.117315E-03	2.233576E-05
7.044776E+03	1.118965E-03	2.241721E-05
7.054726E+03	1.120649E-03	2.249969E-05
7.064677E+03	1.122545E-03	2.258677E-05
7.074627E+03	1.124298E-03	2.267133E-05
7.084577E+03	1.126087E-03	2.275693E-05
7.094527E+03	1.127910E-03	2.284358E-05
7.104478E+03	1.129767E-03	2.293126E-05
7.114428E+03	1.131660E-03	2.301999E-05
7.124378E+03	1.133587E-03	2.310977E-05
7.134328E+03	1.135550E-03	2.320062E-05
7.144279E+03	1.137547E-03	2.329250E-05
7.154229E+03	1.139579E-03	2.338546E-05
7.164179E+03	1.141827E-03	2.348319E-05
7.174129E+03	1.143931E-03	2.357832E-05
7.184080E+03	1.146071E-03	2.367452E-05
7.194030E+03	1.148246E-03	2.377183E-05
7.203980E+03	1.150458E-03	2.387023E-05
7.213930E+03	1.152707E-03	2.396975E-05
7.223881E+03	1.154992E-03	2.407041E-05
7.233831E+03	1.157315E-03	2.417220E-05
7.243781E+03	1.159677E-03	2.427516E-05
7.253731E+03	1.162076E-03	2.437928E-05
7.263682E+03	1.164516E-03	2.448461E-05
7.273632E+03	1.166995E-03	2.459116E-05
7.283582E+03	1.169516E-03	2.469894E-05
7.293532E+03	1.172077E-03	2.480799E-05
7.303483E+03	1.174496E-03	2.491438E-05
7.313433E+03	1.177143E-03	2.502601E-05
7.323383E+03	1.179835E-03	2.513899E-05
7.333333E+03	1.182573E-03	2.525334E-05
7.343284E+03	1.185357E-03	2.536909E-05
7.353234E+03	1.188189E-03	2.548629E-05
7.363184E+03	1.191070E-03	2.560495E-05
7.373134E+03	1.194001E-03	2.572512E-05
7.383085E+03	1.196982E-03	2.584679E-05
7.393035E+03	1.200013E-03	2.597001E-05
7.402985E+03	1.202905E-03	2.609063E-05
7.412935E+03	1.206037E-03	2.621690E-05
7.422886E+03	1.209217E-03	2.634470E-05
7.432836E+03	1.212443E-03	2.647396E-05
7.442786E+03	1.215711E-03	2.660461E-05
7.452736E+03	1.219016E-03	2.673656E-05
7.462687E+03	1.222156E-03	2.686537E-05
7.472637E+03	1.225508E-03	2.699933E-05
7.482587E+03	1.228867E-03	2.713394E-05
7.492537E+03	1.232215E-03	2.726884E-05
7.502488E+03	1.235535E-03	2.740358E-05
7.512438E+03	1.238607E-03	2.753334E-05
7.522388E+03	1.241823E-03	2.766681E-05
7.532338E+03	1.245009E-03	2.780010E-05
7.542289E+03	1.248182E-03	2.793360E-05
7.552239E+03	1.251157E-03	2.806317E-05
7.562189E+03	1.254342E-03	2.819795E-05
7.572139E+03	1.257549E-03	2.833371E-05
7.582090E+03	1.260783E-03	2.847058E-05
7.592040E+03	1.263849E-03	2.860413E-05
7.601990E+03	1.267150E-03	2.874349E-05
7.611940E+03	1.270488E-03	2.888416E-05
7.621891E+03	1.273661E-03	2.902157E-05
7.631841E+03	1.277073E-03	2.916489E-05
7.641791E+03	1.280521E-03	2.930953E-05
7.651741E+03	1.283800E-03	2.945077E-05
7.661692E+03	1.287316E-03	2.959790E-05
7.671642E+03	1.290864E-03	2.974625E-05
7.681592E+03	1.294235E-03	2.989098E-05
7.691542E+03	1.297839E-03	3.004154E-05
7.701493E+03	1.301467E-03	3.019316E-05
7.711443E+03	1.304910E-03	3.034092E-05
7.721393E+03	1.308582E-03	3.049445E-05
