#wls	flux	fluxerr
1.592040E+03	7.885964E-05	2.759961E-06
1.631841E+03	7.996985E-05	2.795683E-06
1.671642E+03	8.109762E-05	2.831851E-06
1.711443E+03	8.221323E-05	2.867422E-06
1.751244E+03	8.334323E-05	2.903317E-06
1.791045E+03	8.444849E-05	2.938168E-06
1.830846E+03	8.554563E-05	2.972550E-06
1.870647E+03	8.660312E-05	3.005365E-06
1.910448E+03	8.760250E-05	3.035974E-06
1.950249E+03	8.852909E-05	3.063872E-06
1.990050E+03	8.938461E-05	3.089124E-06
2.029851E+03	9.022406E-05	3.113633E-06
2.069652E+03	9.111274E-05	3.139648E-06
2.109453E+03	9.223274E-05	3.173421E-06
2.149254E+03	9.371520E-05	3.219416E-06
2.189055E+03	9.562578E-05	3.279818E-06
2.228856E+03	9.791909E-05	3.352995E-06
2.268657E+03	1.004834E-04	3.435051E-06
2.308458E+03	1.032062E-04	3.522093E-06
2.348259E+03	1.060291E-04	3.612087E-06
2.388060E+03	1.088761E-04	3.702419E-06
2.427861E+03	1.117729E-04	3.793944E-06
2.467662E+03	1.147036E-04	3.886101E-06
2.507463E+03	1.176781E-04	3.979201E-06
2.547264E+03	1.207086E-04	4.073639E-06
2.587065E+03	1.238078E-04	4.169817E-06
2.626866E+03	1.270102E-04	4.268860E-06
2.666667E+03	1.302831E-04	4.369640E-06
2.706468E+03	1.336820E-04	4.473983E-06
2.746269E+03	1.371947E-04	4.581435E-06
2.786070E+03	1.408304E-04	4.692266E-06
2.825871E+03	1.445980E-04	4.806724E-06
2.865672E+03	1.485063E-04	4.925052E-06
2.905473E+03	1.525636E-04	5.047478E-06
2.945274E+03	1.568056E-04	5.175121E-06
2.985075E+03	1.611869E-04	5.306428E-06
2.995025E+03	1.623161E-04	5.340220E-06
3.004975E+03	1.634565E-04	5.374315E-06
3.014925E+03	1.646081E-04	5.408716E-06
3.024876E+03	1.657714E-04	5.443440E-06
3.034826E+03	1.669480E-04	5.478532E-06
3.044776E+03	1.681391E-04	5.514038E-06
3.054726E+03	1.693447E-04	5.549951E-06
3.064677E+03	1.705644E-04	5.586259E-06
3.074627E+03	1.717981E-04	5.622955E-06
3.084577E+03	1.730455E-04	5.660032E-06
3.094527E+03	1.743065E-04	5.697482E-06
3.104478E+03	1.755508E-04	5.734315E-06
3.114428E+03	1.768384E-04	5.772494E-06
3.124378E+03	1.781394E-04	5.811034E-06
3.134328E+03	1.794536E-04	5.849932E-06
3.144279E+03	1.807809E-04	5.889184E-06
3.154229E+03	1.821215E-04	5.928790E-06
3.164179E+03	1.834752E-04	5.968748E-06
3.174129E+03	1.848422E-04	6.009058E-06
3.184080E+03	1.862224E-04	6.049720E-06
3.194030E+03	1.876158E-04	6.090732E-06
3.203980E+03	1.890226E-04	6.132096E-06
3.213930E+03	1.904754E-04	6.174873E-06
3.223881E+03	1.919092E-04	6.216951E-06
3.233831E+03	1.933566E-04	6.259384E-06
3.243781E+03	1.948177E-04	6.302176E-06
3.253731E+03	1.962926E-04	6.345329E-06
3.263682E+03	1.977813E-04	6.388843E-06
3.273632E+03	1.992841E-04	6.432722E-06
3.283582E+03	2.008010E-04	6.476970E-06
3.293532E+03	2.023322E-04	6.521591E-06
3.303483E+03	2.038778E-04	6.566584E-06
3.313433E+03	2.054381E-04	6.611957E-06
3.323383E+03	2.070130E-04	6.657710E-06
3.333333E+03	2.086029E-04	6.703851E-06
3.343284E+03	2.102078E-04	6.750379E-06
3.353234E+03	2.118280E-04	6.797302E-06
3.363184E+03	2.135000E-04	6.845790E-06
3.373134E+03	2.151514E-04	6.893521E-06
3.383085E+03	2.168186E-04	6.941656E-06
3.393035E+03	2.185017E-04	6.990202E-06
3.402985E+03	2.202010E-04	7.039163E-06
3.412935E+03	2.219166E-04	7.088542E-06
3.422886E+03	2.236487E-04	7.138345E-06
3.432836E+03	2.253975E-04	7.188577E-06
3.442786E+03	2.272018E-04	7.240474E-06
3.452736E+03	2.289848E-04	7.291583E-06
3.462687E+03	2.307851E-04	7.343133E-06
3.472637E+03	2.326030E-04	7.395132E-06
3.482587E+03	2.344384E-04	7.447580E-06
3.492537E+03	2.362917E-04	7.500484E-06
3.502488E+03	2.381631E-04	7.553848E-06
3.512438E+03	2.400527E-04	7.607677E-06
3.522388E+03	2.420019E-04	7.663277E-06
3.532338E+03	2.439290E-04	7.718057E-06
3.542289E+03	2.458749E-04	7.773316E-06
3.552239E+03	2.478399E-04	7.829058E-06
3.562189E+03	2.498241E-04	7.885287E-06
3.572139E+03	2.518278E-04	7.942009E-06
3.582090E+03	2.538942E-04	8.000583E-06
3.592040E+03	2.559376E-04	8.058310E-06
3.601990E+03	2.580012E-04	8.116543E-06
3.611940E+03	2.600850E-04	8.175286E-06
3.621891E+03	2.621893E-04	8.234543E-06
3.631841E+03	2.643142E-04	8.294318E-06
3.641791E+03	2.665049E-04	8.356027E-06
3.651741E+03	2.686720E-04	8.416861E-06
3.661692E+03	2.708604E-04	8.478226E-06
3.671642E+03	2.730702E-04	8.540127E-06
3.681592E+03	2.753016E-04	8.602566E-06
3.691542E+03	2.775548E-04	8.665550E-06
3.701493E+03	2.798772E-04	8.730553E-06
3.711443E+03	2.821750E-04	8.794646E-06
3.721393E+03	2.844952E-04	8.859295E-06
3.731343E+03	2.868380E-04	8.924502E-06
3.741294E+03	2.892036E-04	8.990274E-06
3.751244E+03	2.915921E-04	9.056614E-06
3.761194E+03	2.940533E-04	9.125060E-06
3.771144E+03	2.964888E-04	9.192557E-06
3.781095E+03	2.989478E-04	9.260634E-06
3.791045E+03	3.014305E-04	9.329294E-06
3.800995E+03	3.039372E-04	9.398540E-06
3.810945E+03	3.064680E-04	9.468377E-06
3.820896E+03	3.090750E-04	9.540411E-06
3.830846E+03	3.116550E-04	9.611452E-06
3.840796E+03	3.142597E-04	9.683095E-06
3.850746E+03	3.168892E-04	9.755345E-06
3.860697E+03	3.195438E-04	9.828203E-06
3.870647E+03	3.222237E-04	9.901674E-06
3.880597E+03	3.249834E-04	9.977434E-06
3.890547E+03	3.277148E-04	1.005216E-05
3.900498E+03	3.304720E-04	1.012750E-05
3.910448E+03	3.332552E-04	1.020347E-05
3.920398E+03	3.360645E-04	1.028008E-05
3.930348E+03	3.389003E-04	1.035732E-05
3.940299E+03	3.417626E-04	1.043519E-05
3.950249E+03	3.447092E-04	1.051547E-05
3.960199E+03	3.476257E-04	1.059465E-05
3.970149E+03	3.505693E-04	1.067448E-05
3.980100E+03	3.535402E-04	1.075496E-05
3.990050E+03	3.565386E-04	1.083610E-05
4.000000E+03	3.595647E-04	1.091790E-05
4.009950E+03	3.626187E-04	1.100036E-05
4.019900E+03	3.657008E-04	1.108349E-05
4.029851E+03	3.688726E-04	1.116916E-05
4.039801E+03	3.720119E-04	1.125365E-05
4.049751E+03	3.751799E-04	1.133883E-05
4.059701E+03	3.783766E-04	1.142468E-05
4.069652E+03	3.816025E-04	1.151122E-05
4.079602E+03	3.848575E-04	1.159846E-05
4.089552E+03	3.881420E-04	1.168638E-05
4.099502E+03	3.914561E-04	1.177501E-05
4.109453E+03	3.947999E-04	1.186434E-05
4.119403E+03	3.981738E-04	1.195437E-05
4.129353E+03	4.016446E-04	1.204712E-05
4.139303E+03	4.050795E-04	1.213859E-05
4.149254E+03	4.085451E-04	1.223078E-05
4.159204E+03	4.120414E-04	1.232369E-05
4.169154E+03	4.155686E-04	1.241732E-05
4.179104E+03	4.191269E-04	1.251168E-05
4.189055E+03	4.227167E-04	1.260679E-05
4.199005E+03	4.263379E-04	1.270262E-05
4.208955E+03	4.299907E-04	1.279919E-05
4.218905E+03	4.336751E-04	1.289650E-05
4.228856E+03	4.373921E-04	1.299457E-05
4.238806E+03	4.411408E-04	1.309337E-05
4.248756E+03	4.449220E-04	1.319294E-05
4.258706E+03	4.487357E-04	1.329326E-05
4.268657E+03	4.525824E-04	1.339435E-05
4.278607E+03	4.564616E-04	1.349619E-05
4.288557E+03	4.603737E-04	1.359880E-05
4.298507E+03	4.643189E-04	1.370217E-05
4.308458E+03	4.682974E-04	1.380632E-05
4.318408E+03	4.723093E-04	1.391124E-05
4.328358E+03	4.763546E-04	1.401694E-05
4.338308E+03	4.804332E-04	1.412340E-05
4.348259E+03	4.845457E-04	1.423065E-05
4.358209E+03	4.886110E-04	1.433631E-05
4.368159E+03	4.927903E-04	1.444509E-05
4.378109E+03	4.970029E-04	1.455465E-05
4.388060E+03	5.012489E-04	1.466497E-05
4.398010E+03	5.055288E-04	1.477607E-05
4.407960E+03	5.098424E-04	1.488795E-05
4.417910E+03	5.141895E-04	1.500059E-05
4.427861E+03	5.185699E-04	1.511399E-05
4.437811E+03	5.229837E-04	1.522816E-05
4.447761E+03	5.273437E-04	1.534056E-05
4.457711E+03	5.318226E-04	1.545620E-05
4.467662E+03	5.363339E-04	1.557259E-05
4.477612E+03	5.408774E-04	1.568969E-05
4.487562E+03	5.454529E-04	1.580752E-05
4.497512E+03	5.500601E-04	1.592607E-05
4.507463E+03	5.546070E-04	1.604266E-05
4.517413E+03	5.592745E-04	1.616255E-05
4.527363E+03	5.639719E-04	1.628309E-05
4.537313E+03	5.686988E-04	1.640429E-05
4.547264E+03	5.733599E-04	1.652339E-05
4.557214E+03	5.781415E-04	1.664578E-05
4.567164E+03	5.829501E-04	1.676874E-05
4.577114E+03	5.877844E-04	1.689225E-05
4.587065E+03	5.925462E-04	1.701350E-05
4.597015E+03	5.974279E-04	1.713799E-05
4.606965E+03	6.023313E-04	1.726293E-05
4.616915E+03	6.072557E-04	1.738828E-05
4.626866E+03	6.120995E-04	1.751114E-05
4.636816E+03	6.170601E-04	1.763718E-05
4.646766E+03	6.220374E-04	1.776351E-05
4.656716E+03	6.269259E-04	1.788714E-05
4.666667E+03	6.319291E-04	1.801388E-05
4.676617E+03	6.369433E-04	1.814078E-05
4.686567E+03	6.418615E-04	1.826477E-05
4.696517E+03	6.468904E-04	1.839177E-05
4.706468E+03	6.518186E-04	1.851575E-05
4.716418E+03	6.568563E-04	1.864270E-05
4.726368E+03	6.618955E-04	1.876956E-05
4.736318E+03	6.668274E-04	1.889323E-05
4.746269E+03	6.718675E-04	1.901984E-05
4.756219E+03	6.767964E-04	1.914317E-05
4.766169E+03	6.818334E-04	1.926945E-05
4.776119E+03	6.867561E-04	1.939238E-05
4.786070E+03	6.917853E-04	1.951821E-05
4.796020E+03	6.966932E-04	1.964051E-05
4.805970E+03	7.017008E-04	1.976553E-05
4.815920E+03	7.065742E-04	1.988667E-05
4.825871E+03	7.115374E-04	2.001026E-05
4.835821E+03	7.163527E-04	2.012962E-05
4.845771E+03	7.212484E-04	2.025116E-05
4.855721E+03	7.259866E-04	2.036821E-05
4.865672E+03	7.307992E-04	2.048731E-05
4.875622E+03	7.354474E-04	2.060174E-05
4.885572E+03	7.400483E-04	2.071481E-05
4.895522E+03	7.447215E-04	2.082987E-05
4.905473E+03	7.492265E-04	2.094020E-05
4.915423E+03	7.538058E-04	2.105258E-05
4.925373E+03	7.582160E-04	2.116022E-05
4.935323E+03	7.625803E-04	2.126657E-05
4.945274E+03	7.670235E-04	2.137511E-05
4.955224E+03	7.712995E-04	2.147898E-05
4.965174E+03	7.755330E-04	2.158168E-05
4.975124E+03	7.798525E-04	2.168677E-05
4.985075E+03	7.840077E-04	2.178729E-05
4.995025E+03	7.881258E-04	2.188679E-05
5.004975E+03	7.923372E-04	2.198889E-05
5.014925E+03	7.963875E-04	2.208653E-05
5.024876E+03	8.004062E-04	2.218332E-05
5.034826E+03	8.043955E-04	2.227930E-05
5.044776E+03	8.083569E-04	2.237453E-05
5.054726E+03	8.124240E-04	2.247271E-05
5.064677E+03	8.163359E-04	2.256661E-05
5.074627E+03	8.202254E-04	2.265992E-05
5.084577E+03	8.240944E-04	2.275269E-05
5.094527E+03	8.279440E-04	2.284495E-05
5.104478E+03	8.319109E-04	2.294048E-05
5.114428E+03	8.357274E-04	2.303189E-05
5.124378E+03	8.395297E-04	2.312293E-05
5.134328E+03	8.433187E-04	2.321365E-05
5.144279E+03	8.470959E-04	2.330407E-05
5.154229E+03	8.508624E-04	2.339423E-05
5.164179E+03	8.546197E-04	2.348418E-05
5.174129E+03	8.583688E-04	2.357394E-05
5.184080E+03	8.621105E-04	2.366353E-05
5.194030E+03	8.658460E-04	2.375299E-05
5.203980E+03	8.695767E-04	2.384236E-05
5.213930E+03	8.733026E-04	2.393164E-05
5.223881E+03	8.770253E-04	2.402087E-05
5.233831E+03	8.807448E-04	2.411006E-05
5.243781E+03	8.844626E-04	2.419924E-05
5.253731E+03	8.881788E-04	2.428843E-05
5.263682E+03	8.918941E-04	2.437763E-05
5.273632E+03	8.956093E-04	2.446688E-05
5.283582E+03	8.993247E-04	2.455618E-05
5.293532E+03	9.030409E-04	2.464555E-05
5.303483E+03	9.067578E-04	2.473499E-05
5.313433E+03	9.104762E-04	2.482452E-05
5.323383E+03	9.141963E-04	2.491414E-05
5.333333E+03	9.179184E-04	2.500387E-05
5.343284E+03	9.216425E-04	2.509370E-05
5.353234E+03	9.252196E-04	2.517959E-05
5.363184E+03	9.289478E-04	2.526965E-05
5.373134E+03	9.326784E-04	2.535982E-05
5.383085E+03	9.364115E-04	2.545012E-05
5.393035E+03	9.401475E-04	2.554056E-05
5.402985E+03	9.438856E-04	2.563111E-05
5.412935E+03	9.474736E-04	2.571765E-05
5.422886E+03	9.512158E-04	2.580843E-05
5.432836E+03	9.549605E-04	2.589935E-05
5.442786E+03	9.587068E-04	2.599037E-05
5.452736E+03	9.623005E-04	2.607732E-05
5.462687E+03	9.660497E-04	2.616856E-05
5.472637E+03	9.698006E-04	2.625991E-05
5.482587E+03	9.735523E-04	2.635135E-05
5.492537E+03	9.771479E-04	2.643863E-05
5.502488E+03	9.808999E-04	2.653022E-05
5.512438E+03	9.846524E-04	2.662190E-05
5.522388E+03	9.882457E-04	2.670936E-05
5.532338E+03	9.919964E-04	2.680115E-05
5.542289E+03	9.955858E-04	2.688866E-05
5.552239E+03	9.993327E-04	2.698050E-05
5.562189E+03	1.003078E-03	2.707239E-05
5.572139E+03	1.006658E-03	2.715992E-05
5.582090E+03	1.010397E-03	2.725179E-05
5.592040E+03	1.013968E-03	2.733926E-05
5.601990E+03	1.017697E-03	2.743108E-05
5.611940E+03	1.021422E-03	2.752286E-05
5.621891E+03	1.024975E-03	2.761013E-05
5.631841E+03	1.028687E-03	2.770176E-05
5.641791E+03	1.032225E-03	2.778884E-05
5.651741E+03	1.035921E-03	2.788026E-05
5.661692E+03	1.039441E-03	2.796705E-05
5.671642E+03	1.043118E-03	2.805819E-05
5.681592E+03	1.046616E-03	2.814463E-05
5.691542E+03	1.050271E-03	2.823539E-05
5.701493E+03	1.053744E-03	2.832140E-05
5.711443E+03	1.057203E-03	2.840716E-05
5.721393E+03	1.060817E-03	2.849720E-05
5.731343E+03	1.064245E-03	2.858238E-05
5.741294E+03	1.067827E-03	2.867183E-05
5.751244E+03	1.071220E-03	2.875634E-05
5.761194E+03	1.074593E-03	2.884046E-05
5.771144E+03	1.078118E-03	2.892880E-05
5.781095E+03	1.081449E-03	2.901207E-05
5.791045E+03	1.084930E-03	2.909953E-05
5.800995E+03	1.088212E-03	2.918180E-05
5.810945E+03	1.091468E-03	2.926354E-05
5.820896E+03	1.094871E-03	2.934939E-05
5.830846E+03	1.098070E-03	2.942993E-05
5.840796E+03	1.101237E-03	2.950977E-05
5.850746E+03	1.104370E-03	2.958891E-05
5.860697E+03	1.107646E-03	2.967203E-05
5.870647E+03	1.110707E-03	2.974959E-05
5.880597E+03	1.113728E-03	2.982628E-05
5.890547E+03	1.116707E-03	2.990203E-05
5.900498E+03	1.119821E-03	2.998158E-05
5.910448E+03	1.122710E-03	3.005530E-05
5.920398E+03	1.125547E-03	3.012787E-05
5.930348E+03	1.128332E-03	3.019924E-05
5.940299E+03	1.131242E-03	3.027417E-05
5.950249E+03	1.133912E-03	3.034288E-05
5.960199E+03	1.136519E-03	3.041015E-05
5.970149E+03	1.139058E-03	3.047584E-05
5.980100E+03	1.141527E-03	3.053987E-05
5.990050E+03	1.143920E-03	3.060214E-05
6.000000E+03	1.146418E-03	3.066742E-05
6.009950E+03	1.148647E-03	3.072579E-05
6.019900E+03	1.150787E-03	3.078202E-05
6.029851E+03	1.152832E-03	3.083597E-05
6.039801E+03	1.154778E-03	3.088751E-05
6.049751E+03	1.156616E-03	3.093648E-05
6.059701E+03	1.158343E-03	3.098271E-05
6.069652E+03	1.159951E-03	3.102605E-05
6.079602E+03	1.161434E-03	3.106634E-05
6.089552E+03	1.162786E-03	3.110341E-05
6.099502E+03	1.164000E-03	3.113708E-05
6.109453E+03	1.165070E-03	3.116717E-05
6.119403E+03	1.165989E-03	3.119353E-05
6.129353E+03	1.166751E-03	3.121602E-05
6.139303E+03	1.167352E-03	3.123448E-05
6.149254E+03	1.167786E-03	3.124879E-05
6.159204E+03	1.168050E-03	3.125887E-05
6.169154E+03	1.168143E-03	3.126469E-05
6.179104E+03	1.168064E-03	3.126623E-05
6.189055E+03	1.167816E-03	3.126355E-05
6.199005E+03	1.167400E-03	3.125673E-05
6.208955E+03	1.166825E-03	3.124594E-05
6.218905E+03	1.166095E-03	3.123137E-05
6.228856E+03	1.165222E-03	3.121326E-05
6.238806E+03	1.164213E-03	3.119189E-05
6.248756E+03	1.163083E-03	3.116757E-05
6.258706E+03	1.161842E-03	3.114061E-05
6.268657E+03	1.160504E-03	3.111139E-05
6.278607E+03	1.159081E-03	3.108024E-05
6.288557E+03	1.157402E-03	3.104255E-05
6.298507E+03	1.155850E-03	3.100862E-05
6.308458E+03	1.154254E-03	3.097382E-05
6.318408E+03	1.152626E-03	3.093852E-05
6.328358E+03	1.150978E-03	3.090303E-05
6.338308E+03	1.149323E-03	3.086770E-05
6.348259E+03	1.147673E-03	3.083282E-05
6.358209E+03	1.145854E-03	3.079379E-05
6.368159E+03	1.144246E-03	3.076074E-05
6.378109E+03	1.142673E-03	3.072900E-05
6.388060E+03	1.141144E-03	3.069880E-05
6.398010E+03	1.139485E-03	3.066547E-05
6.407960E+03	1.138068E-03	3.063898E-05
6.417910E+03	1.136714E-03	3.061458E-05
6.427861E+03	1.135429E-03	3.059238E-05
6.437811E+03	1.134215E-03	3.057246E-05
6.447761E+03	1.132893E-03	3.054997E-05
6.457711E+03	1.131826E-03	3.053471E-05
6.467662E+03	1.130834E-03	3.052182E-05
6.477612E+03	1.129736E-03	3.050639E-05
6.487562E+03	1.128894E-03	3.049818E-05
6.497512E+03	1.128125E-03	3.049229E-05
6.507463E+03	1.127428E-03	3.048868E-05
6.517413E+03	1.126623E-03	3.048243E-05
6.527363E+03	1.126068E-03	3.048329E-05
6.537313E+03	1.125582E-03	3.048633E-05
6.547264E+03	1.124984E-03	3.048661E-05
6.557214E+03	1.124633E-03	3.049389E-05
6.567164E+03	1.124347E-03	3.050322E-05
6.577114E+03	1.123943E-03	3.050967E-05
6.587065E+03	1.123783E-03	3.052301E-05
6.597015E+03	1.123504E-03	3.053340E-05
6.606965E+03	1.123465E-03	3.055059E-05
6.616915E+03	1.123484E-03	3.056964E-05
6.626866E+03	1.123381E-03	3.058564E-05
6.636816E+03	1.123514E-03	3.060833E-05
6.646766E+03	1.123521E-03	3.062787E-05
6.656716E+03	1.123763E-03	3.065407E-05
6.666667E+03	1.124059E-03	3.068199E-05
6.676617E+03	1.124226E-03	3.070665E-05
6.686567E+03	1.124624E-03	3.073789E-05
6.696517E+03	1.124891E-03	3.076580E-05
6.706468E+03	1.125390E-03	3.080027E-05
6.716418E+03	1.125755E-03	3.083135E-05
6.726368E+03	1.126349E-03	3.086891E-05
6.736318E+03	1.126809E-03	3.090306E-05
6.746269E+03	1.127497E-03	3.094368E-05
6.756219E+03	1.128049E-03	3.098080E-05
6.766169E+03	1.128827E-03	3.102436E-05
6.776119E+03	1.129469E-03	3.106440E-05
6.786070E+03	1.130335E-03	3.111084E-05
6.796020E+03	1.131063E-03	3.115371E-05
6.805970E+03	1.132017E-03	3.120299E-05
6.815920E+03	1.132831E-03	3.124864E-05
6.825871E+03	1.133869E-03	3.130068E-05
6.835821E+03	1.134766E-03	3.134907E-05
6.845771E+03	1.135888E-03	3.140383E-05
6.855721E+03	1.136868E-03	3.145490E-05
6.865672E+03	1.138071E-03	3.151236E-05
6.875622E+03	1.139132E-03	3.156606E-05
6.885572E+03	1.140233E-03	3.162108E-05
6.895522E+03	1.141558E-03	3.168249E-05
6.905473E+03	1.142739E-03	3.174010E-05
6.915423E+03	1.144144E-03	3.180412E-05
6.925373E+03	1.145404E-03	3.186432E-05
6.935323E+03	1.146703E-03	3.192578E-05
6.945274E+03	1.148226E-03	3.199367E-05
6.955224E+03	1.149604E-03	3.205769E-05
6.965174E+03	1.151021E-03	3.212298E-05
6.975124E+03	1.152662E-03	3.219470E-05
6.985075E+03	1.154156E-03	3.226252E-05
6.995025E+03	1.155689E-03	3.233158E-05
7.004975E+03	1.157448E-03	3.240713E-05
7.014925E+03	1.159059E-03	3.247873E-05
7.024876E+03	1.160710E-03	3.255158E-05
7.034826E+03	1.162586E-03	3.263094E-05
7.044776E+03	1.164314E-03	3.270632E-05
7.054726E+03	1.166081E-03	3.278296E-05
7.064677E+03	1.168075E-03	3.286614E-05
7.074627E+03	1.169921E-03	3.294531E-05
7.084577E+03	1.171805E-03	3.302573E-05
7.094527E+03	1.173729E-03	3.310742E-05
7.104478E+03	1.175882E-03	3.319573E-05
7.114428E+03	1.177885E-03	3.327998E-05
7.124378E+03	1.179928E-03	3.336550E-05
7.134328E+03	1.182010E-03	3.345228E-05
7.144279E+03	1.184324E-03	3.354578E-05
7.154229E+03	1.186487E-03	3.363516E-05
7.164179E+03	1.188690E-03	3.372583E-05
7.174129E+03	1.190933E-03	3.381780E-05
7.184080E+03	1.193410E-03	3.391653E-05
7.194030E+03	1.195735E-03	3.401112E-05
7.203980E+03	1.198101E-03	3.410700E-05
7.213930E+03	1.200508E-03	3.420420E-05
7.223881E+03	1.202955E-03	3.430271E-05
7.233831E+03	1.205639E-03	3.440810E-05
7.243781E+03	1.208169E-03	3.450926E-05
7.253731E+03	1.210740E-03	3.461173E-05
7.263682E+03	1.213353E-03	3.471551E-05
7.273632E+03	1.216005E-03	3.482059E-05
7.283582E+03	1.218698E-03	3.492696E-05
7.293532E+03	1.221430E-03	3.503461E-05
7.303483E+03	1.224399E-03	3.514920E-05
7.313433E+03	1.227209E-03	3.525936E-05
7.323383E+03	1.230056E-03	3.537071E-05
7.333333E+03	1.232938E-03	3.548323E-05
7.343284E+03	1.235854E-03	3.559685E-05
7.353234E+03	1.238801E-03	3.571150E-05
7.363184E+03	1.241777E-03	3.582714E-05
7.373134E+03	1.244779E-03	3.594364E-05
7.383085E+03	1.247802E-03	3.606091E-05
7.393035E+03	1.250844E-03	3.617882E-05
7.402985E+03	1.254101E-03	3.630311E-05
7.412935E+03	1.257162E-03	3.642188E-05
7.422886E+03	1.260223E-03	3.654076E-05
7.432836E+03	1.263278E-03	3.665959E-05
7.442786E+03	1.266319E-03	3.677811E-05
7.452736E+03	1.269336E-03	3.689610E-05
7.462687E+03	1.272323E-03	3.701329E-05
7.472637E+03	1.275269E-03	3.712944E-05
7.482587E+03	1.278169E-03	3.724434E-05
7.492537E+03	1.281015E-03	3.735777E-05
7.502488E+03	1.283802E-03	3.746957E-05
7.512438E+03	1.286527E-03	3.757967E-05
7.522388E+03	1.289188E-03	3.768800E-05
7.532338E+03	1.291788E-03	3.779462E-05
7.542289E+03	1.294329E-03	3.789961E-05
7.552239E+03	1.296817E-03	3.800311E-05
7.562189E+03	1.299257E-03	3.810528E-05
7.572139E+03	1.301657E-03	3.820633E-05
7.582090E+03	1.304022E-03	3.830645E-05
7.592040E+03	1.306149E-03	3.839960E-05
7.601990E+03	1.308466E-03	3.849843E-05
7.611940E+03	1.310770E-03	3.859689E-05
7.621891E+03	1.313063E-03	3.869513E-05
7.631841E+03	1.315352E-03	3.879327E-05
7.641791E+03	1.317641E-03	3.889147E-05
7.651741E+03	1.319932E-03	3.898980E-05
7.661692E+03	1.322229E-03	3.908834E-05
7.671642E+03	1.324534E-03	3.918716E-05
7.681592E+03	1.326847E-03	3.928630E-05
7.691542E+03	1.329172E-03	3.938582E-05
7.701493E+03	1.331292E-03	3.947929E-05
7.711443E+03	1.333641E-03	3.957960E-05
7.721393E+03	1.336001E-03	3.968031E-05
