#wls	flux	fluxerr
1.588055E+03	-2.224250E-16	-0.000000E+00
1.627756E+03	-2.246793E-16	-0.000000E+00
1.667457E+03	-2.265217E-16	-0.000000E+00
1.707159E+03	-2.279306E-16	-0.000000E+00
1.746860E+03	-2.288721E-16	-0.000000E+00
1.786561E+03	-2.292453E-16	-0.000000E+00
1.826263E+03	-2.289155E-16	-0.000000E+00
1.865964E+03	-2.277264E-16	-0.000000E+00
1.905666E+03	-2.255199E-16	-0.000000E+00
1.945367E+03	-2.221911E-16	-0.000000E+00
1.985068E+03	-2.177983E-16	-0.000000E+00
2.024770E+03	-2.127257E-16	-0.000000E+00
2.064471E+03	-2.078155E-16	-0.000000E+00
2.104172E+03	-2.042796E-16	-0.000000E+00
2.143874E+03	-2.032581E-16	-0.000000E+00
2.183575E+03	-2.052463E-16	-0.000000E+00
2.223277E+03	-2.098783E-16	-0.000000E+00
2.262978E+03	-2.162327E-16	-0.000000E+00
2.302679E+03	-2.233248E-16	-0.000000E+00
2.342381E+03	-2.304181E-16	-0.000000E+00
2.382082E+03	-2.370879E-16	-0.000000E+00
2.421783E+03	-2.431507E-16	-0.000000E+00
2.461485E+03	-2.485692E-16	-0.000000E+00
2.501186E+03	-2.533796E-16	-0.000000E+00
2.540887E+03	-2.576476E-16	-0.000000E+00
2.580589E+03	-2.614460E-16	-0.000000E+00
2.620290E+03	-2.648432E-16	-0.000000E+00
2.659992E+03	-2.679004E-16	-0.000000E+00
2.699693E+03	-2.706698E-16	-0.000000E+00
2.739394E+03	-2.731965E-16	-0.000000E+00
2.779096E+03	-2.755188E-16	-0.000000E+00
2.818797E+03	-2.776699E-16	-0.000000E+00
2.858498E+03	-2.796786E-16	-0.000000E+00
2.898200E+03	-2.815713E-16	-0.000000E+00
2.937901E+03	-2.833713E-16	-0.000000E+00
2.977602E+03	-2.851008E-16	-0.000000E+00
2.987528E+03	-2.855247E-16	-0.000000E+00
2.997453E+03	-2.859457E-16	-0.000000E+00
3.007378E+03	-2.863642E-16	-0.000000E+00
3.017304E+03	-2.867823E-16	-0.000000E+00
3.027229E+03	-2.872056E-16	-0.000000E+00
3.037155E+03	-2.876412E-16	-0.000000E+00
3.047080E+03	-2.880881E-16	-0.000000E+00
3.057005E+03	-2.885505E-16	-0.000000E+00
3.066931E+03	-2.890261E-16	-0.000000E+00
3.076856E+03	-2.895127E-16	-0.000000E+00
3.086781E+03	-2.900085E-16	-0.000000E+00
3.096707E+03	-2.905118E-16	-0.000000E+00
3.106632E+03	-2.910209E-16	-0.000000E+00
3.116557E+03	-2.915348E-16	-0.000000E+00
3.126483E+03	-2.920522E-16	-0.000000E+00
3.136408E+03	-2.925723E-16	-0.000000E+00
3.146333E+03	-2.930940E-16	-0.000000E+00
3.156259E+03	-2.936169E-16	-0.000000E+00
3.166184E+03	-2.941404E-16	-0.000000E+00
3.176109E+03	-2.946639E-16	-0.000000E+00
3.186035E+03	-2.951872E-16	-0.000000E+00
3.195960E+03	-2.957102E-16	-0.000000E+00
3.205885E+03	-2.962326E-16	-0.000000E+00
3.215811E+03	-2.967545E-16	-0.000000E+00
3.225736E+03	-2.972756E-16	-0.000000E+00
3.235661E+03	-2.977963E-16	-0.000000E+00
3.245587E+03	-2.983166E-16	-0.000000E+00
3.255512E+03	-2.988367E-16	-0.000000E+00
3.265437E+03	-2.993570E-16	-0.000000E+00
3.275363E+03	-2.998777E-16	-0.000000E+00
3.285288E+03	-3.003991E-16	-0.000000E+00
3.295213E+03	-3.009216E-16	-0.000000E+00
3.305139E+03	-3.014457E-16	-0.000000E+00
3.315064E+03	-3.019717E-16	-0.000000E+00
3.324989E+03	-3.025002E-16	-0.000000E+00
3.334915E+03	-3.030315E-16	-0.000000E+00
3.344840E+03	-3.035664E-16	-0.000000E+00
3.354765E+03	-3.041052E-16	-0.000000E+00
3.364691E+03	-3.046485E-16	-0.000000E+00
3.374616E+03	-3.051969E-16	-0.000000E+00
3.384541E+03	-3.057508E-16	-0.000000E+00
3.394467E+03	-3.063109E-16	-0.000000E+00
3.404392E+03	-3.068777E-16	-0.000000E+00
3.414318E+03	-3.074518E-16	-0.000000E+00
3.424243E+03	-3.080339E-16	-0.000000E+00
3.434168E+03	-3.086244E-16	-0.000000E+00
3.444094E+03	-3.092239E-16	-0.000000E+00
3.454019E+03	-3.098330E-16	-0.000000E+00
3.463944E+03	-3.104522E-16	-0.000000E+00
3.473870E+03	-3.110823E-16	-0.000000E+00
3.483795E+03	-3.117235E-16	-0.000000E+00
3.493720E+03	-3.123767E-16	-0.000000E+00
3.503646E+03	-3.130422E-16	-0.000000E+00
3.513571E+03	-3.137205E-16	-0.000000E+00
3.523496E+03	-3.144124E-16	-0.000000E+00
3.533422E+03	-3.151182E-16	-0.000000E+00
3.543347E+03	-3.158385E-16	-0.000000E+00
3.553272E+03	-3.165738E-16	-0.000000E+00
3.563198E+03	-3.173245E-16	-0.000000E+00
3.573123E+03	-3.180911E-16	-0.000000E+00
3.583048E+03	-3.188741E-16	-0.000000E+00
3.592974E+03	-3.196740E-16	-0.000000E+00
3.602899E+03	-3.204911E-16	-0.000000E+00
3.612824E+03	-3.213260E-16	-0.000000E+00
3.622750E+03	-3.221789E-16	-0.000000E+00
3.632675E+03	-3.230504E-16	-0.000000E+00
3.642600E+03	-3.239407E-16	-0.000000E+00
3.652526E+03	-3.248502E-16	-0.000000E+00
3.662451E+03	-3.257794E-16	-0.000000E+00
3.672376E+03	-3.267285E-16	-0.000000E+00
3.682302E+03	-3.276979E-16	-0.000000E+00
3.692227E+03	-3.286878E-16	-0.000000E+00
3.702152E+03	-3.296986E-16	-0.000000E+00
3.712078E+03	-3.307305E-16	-0.000000E+00
3.722003E+03	-3.317838E-16	-0.000000E+00
3.731928E+03	-3.328587E-16	-0.000000E+00
3.741854E+03	-3.339556E-16	-0.000000E+00
3.751779E+03	-3.350743E-16	-0.000000E+00
3.761704E+03	-3.362154E-16	-0.000000E+00
3.771630E+03	-3.373789E-16	-0.000000E+00
3.781555E+03	-3.385650E-16	-0.000000E+00
3.791480E+03	-3.397738E-16	-0.000000E+00
3.801406E+03	-3.410052E-16	-0.000000E+00
3.811331E+03	-3.422597E-16	-0.000000E+00
3.821257E+03	-3.435372E-16	-0.000000E+00
3.831182E+03	-3.448376E-16	-0.000000E+00
3.841107E+03	-3.461611E-16	-0.000000E+00
3.851033E+03	-3.475075E-16	-0.000000E+00
3.860958E+03	-3.488772E-16	-0.000000E+00
3.870883E+03	-3.502699E-16	-0.000000E+00
3.880809E+03	-3.516855E-16	-0.000000E+00
3.890734E+03	-3.531240E-16	-0.000000E+00
3.900659E+03	-3.545854E-16	-0.000000E+00
3.910585E+03	-3.560694E-16	-0.000000E+00
3.920510E+03	-3.575759E-16	-0.000000E+00
3.930435E+03	-3.591049E-16	-0.000000E+00
3.940361E+03	-3.606561E-16	-0.000000E+00
3.950286E+03	-3.622292E-16	-0.000000E+00
3.960211E+03	-3.638240E-16	-0.000000E+00
3.970137E+03	-3.654404E-16	-0.000000E+00
3.980062E+03	-3.670780E-16	-0.000000E+00
3.989987E+03	-3.687364E-16	-0.000000E+00
3.999913E+03	-3.704154E-16	-0.000000E+00
4.009838E+03	-3.721145E-16	-0.000000E+00
4.019763E+03	-3.738334E-16	-0.000000E+00
4.029689E+03	-3.755717E-16	-0.000000E+00
4.039614E+03	-3.773290E-16	-0.000000E+00
4.049539E+03	-3.791047E-16	-0.000000E+00
4.059465E+03	-3.808983E-16	-0.000000E+00
4.069390E+03	-3.827093E-16	-0.000000E+00
4.079315E+03	-3.845372E-16	-0.000000E+00
4.089241E+03	-3.863814E-16	-0.000000E+00
4.099166E+03	-3.882412E-16	-0.000000E+00
4.109091E+03	-3.901162E-16	-0.000000E+00
4.119017E+03	-3.920054E-16	-0.000000E+00
4.128942E+03	-3.939085E-16	-0.000000E+00
4.138867E+03	-3.958245E-16	-0.000000E+00
4.148793E+03	-3.977526E-16	-0.000000E+00
4.158718E+03	-3.996923E-16	-0.000000E+00
4.168643E+03	-4.016426E-16	-0.000000E+00
4.178569E+03	-4.036029E-16	-0.000000E+00
4.188494E+03	-4.055720E-16	-0.000000E+00
4.198419E+03	-4.075492E-16	-0.000000E+00
4.208345E+03	-4.095337E-16	-0.000000E+00
4.218270E+03	-4.115245E-16	-0.000000E+00
4.228196E+03	-4.135206E-16	-0.000000E+00
4.238121E+03	-4.155209E-16	-0.000000E+00
4.248046E+03	-4.175248E-16	-0.000000E+00
4.257972E+03	-4.195310E-16	-0.000000E+00
4.267897E+03	-4.215384E-16	-0.000000E+00
4.277822E+03	-4.235461E-16	-0.000000E+00
4.287748E+03	-4.255529E-16	-0.000000E+00
4.297673E+03	-4.275580E-16	-0.000000E+00
4.307598E+03	-4.295599E-16	-0.000000E+00
4.317524E+03	-4.315576E-16	-0.000000E+00
4.327449E+03	-4.335501E-16	-0.000000E+00
4.337374E+03	-4.355360E-16	-0.000000E+00
4.347300E+03	-4.375144E-16	-0.000000E+00
4.357225E+03	-4.394840E-16	-0.000000E+00
4.367150E+03	-4.414435E-16	-0.000000E+00
4.377076E+03	-4.433920E-16	-0.000000E+00
4.387001E+03	-4.453279E-16	-0.000000E+00
4.396926E+03	-4.472504E-16	-0.000000E+00
4.406852E+03	-4.491580E-16	-0.000000E+00
4.416777E+03	-4.510496E-16	-0.000000E+00
4.426702E+03	-4.529241E-16	-0.000000E+00
4.436628E+03	-4.547802E-16	-0.000000E+00
4.446553E+03	-4.566166E-16	-0.000000E+00
4.456478E+03	-4.584323E-16	-0.000000E+00
4.466404E+03	-4.602260E-16	-0.000000E+00
4.476329E+03	-4.619965E-16	-0.000000E+00
4.486254E+03	-4.637428E-16	-0.000000E+00
4.496180E+03	-4.654634E-16	-0.000000E+00
4.506105E+03	-4.671577E-16	-0.000000E+00
4.516030E+03	-4.688241E-16	-0.000000E+00
4.525956E+03	-4.704617E-16	-0.000000E+00
4.535881E+03	-4.720696E-16	-0.000000E+00
4.545806E+03	-4.736463E-16	-0.000000E+00
4.555732E+03	-4.751912E-16	-0.000000E+00
4.565657E+03	-4.767030E-16	-0.000000E+00
4.575582E+03	-4.781809E-16	-0.000000E+00
4.585508E+03	-4.796239E-16	-0.000000E+00
4.595433E+03	-4.810309E-16	-0.000000E+00
4.605358E+03	-4.824013E-16	-0.000000E+00
4.615284E+03	-4.837340E-16	-0.000000E+00
4.625209E+03	-4.850283E-16	-0.000000E+00
4.635135E+03	-4.862834E-16	-0.000000E+00
4.645060E+03	-4.874986E-16	-0.000000E+00
4.654985E+03	-4.886729E-16	-0.000000E+00
4.664911E+03	-4.898058E-16	-0.000000E+00
4.674836E+03	-4.908965E-16	-0.000000E+00
4.684761E+03	-4.919448E-16	-0.000000E+00
4.694687E+03	-4.929496E-16	-0.000000E+00
4.704612E+03	-4.939107E-16	-0.000000E+00
4.714537E+03	-4.948273E-16	-0.000000E+00
4.724463E+03	-4.956993E-16	-0.000000E+00
4.734388E+03	-4.965258E-16	-0.000000E+00
4.744313E+03	-4.973069E-16	-0.000000E+00
4.754239E+03	-4.980420E-16	-0.000000E+00
4.764164E+03	-4.987307E-16	-0.000000E+00
4.774089E+03	-4.993729E-16	-0.000000E+00
4.784015E+03	-4.999684E-16	-0.000000E+00
4.793940E+03	-5.005168E-16	-0.000000E+00
4.803865E+03	-5.010179E-16	-0.000000E+00
4.813791E+03	-5.014719E-16	-0.000000E+00
4.823716E+03	-5.018783E-16	-0.000000E+00
4.833641E+03	-5.022374E-16	-0.000000E+00
4.843567E+03	-5.025488E-16	-0.000000E+00
4.853492E+03	-5.028128E-16	-0.000000E+00
4.863417E+03	-5.030293E-16	-0.000000E+00
4.873343E+03	-5.031984E-16	-0.000000E+00
4.883268E+03	-5.033202E-16	-0.000000E+00
4.893193E+03	-5.033947E-16	-0.000000E+00
4.903119E+03	-5.034223E-16	-0.000000E+00
4.913044E+03	-5.034029E-16	-0.000000E+00
4.922969E+03	-5.033368E-16	-0.000000E+00
4.932895E+03	-5.032243E-16	-0.000000E+00
4.942820E+03	-5.030656E-16	-0.000000E+00
4.952745E+03	-5.028610E-16	-0.000000E+00
4.962671E+03	-5.026108E-16	-0.000000E+00
4.972596E+03	-5.023153E-16	-0.000000E+00
4.982521E+03	-5.019748E-16	-0.000000E+00
4.992447E+03	-5.015897E-16	-0.000000E+00
5.002372E+03	-5.011603E-16	-0.000000E+00
5.012297E+03	-5.006870E-16	-0.000000E+00
5.022223E+03	-5.001703E-16	-0.000000E+00
5.032148E+03	-4.996105E-16	-0.000000E+00
5.042074E+03	-4.990082E-16	-0.000000E+00
5.051999E+03	-4.983637E-16	-0.000000E+00
5.061924E+03	-4.976775E-16	-0.000000E+00
5.071850E+03	-4.969502E-16	-0.000000E+00
5.081775E+03	-4.961821E-16	-0.000000E+00
5.091700E+03	-4.953737E-16	-0.000000E+00
5.101626E+03	-4.945257E-16	-0.000000E+00
5.111551E+03	-4.936385E-16	-0.000000E+00
5.121476E+03	-4.927125E-16	-0.000000E+00
5.131402E+03	-4.917484E-16	-0.000000E+00
5.141327E+03	-4.907467E-16	-0.000000E+00
5.151252E+03	-4.897080E-16	-0.000000E+00
5.161178E+03	-4.886329E-16	-0.000000E+00
5.171103E+03	-4.875219E-16	-0.000000E+00
5.181028E+03	-4.863755E-16	-0.000000E+00
5.190954E+03	-4.851943E-16	-0.000000E+00
5.200879E+03	-4.839790E-16	-0.000000E+00
5.210804E+03	-4.827302E-16	-0.000000E+00
5.220730E+03	-4.814484E-16	-0.000000E+00
5.230655E+03	-4.801342E-16	-0.000000E+00
5.240580E+03	-4.787884E-16	-0.000000E+00
5.250506E+03	-4.774114E-16	-0.000000E+00
5.260431E+03	-4.760039E-16	-0.000000E+00
5.270356E+03	-4.745665E-16	-0.000000E+00
5.280282E+03	-4.730999E-16	-0.000000E+00
5.290207E+03	-4.716047E-16	-0.000000E+00
5.300132E+03	-4.700817E-16	-0.000000E+00
5.310058E+03	-4.685313E-16	-0.000000E+00
5.319983E+03	-4.669542E-16	-0.000000E+00
5.329908E+03	-4.653512E-16	-0.000000E+00
5.339834E+03	-4.637228E-16	-0.000000E+00
5.349759E+03	-4.620699E-16	-0.000000E+00
5.359684E+03	-4.603928E-16	-0.000000E+00
5.369610E+03	-4.586926E-16	-0.000000E+00
5.379535E+03	-4.569696E-16	-0.000000E+00
5.389460E+03	-4.552247E-16	-0.000000E+00
5.399386E+03	-4.534586E-16	-0.000000E+00
5.409311E+03	-4.516718E-16	-0.000000E+00
5.419237E+03	-4.498651E-16	-0.000000E+00
5.429162E+03	-4.480392E-16	-0.000000E+00
5.439087E+03	-4.461949E-16	-0.000000E+00
5.449013E+03	-4.443328E-16	-0.000000E+00
5.458938E+03	-4.424534E-16	-0.000000E+00
5.468863E+03	-4.405578E-16	-0.000000E+00
5.478789E+03	-4.386465E-16	-0.000000E+00
5.488714E+03	-4.367202E-16	-0.000000E+00
5.498639E+03	-4.347795E-16	-0.000000E+00
5.508565E+03	-4.328252E-16	-0.000000E+00
5.518490E+03	-4.308581E-16	-0.000000E+00
5.528415E+03	-4.288789E-16	-0.000000E+00
5.538341E+03	-4.268883E-16	-0.000000E+00
5.548266E+03	-4.248868E-16	-0.000000E+00
5.558191E+03	-4.228754E-16	-0.000000E+00
5.568117E+03	-4.208545E-16	-0.000000E+00
5.578042E+03	-4.188251E-16	-0.000000E+00
5.587967E+03	-4.167879E-16	-0.000000E+00
5.597893E+03	-4.147434E-16	-0.000000E+00
5.607818E+03	-4.126923E-16	-0.000000E+00
5.617743E+03	-4.106356E-16	-0.000000E+00
5.627669E+03	-4.085737E-16	-0.000000E+00
5.637594E+03	-4.065075E-16	-0.000000E+00
5.647519E+03	-4.044375E-16	-0.000000E+00
5.657445E+03	-4.023644E-16	-0.000000E+00
5.667370E+03	-4.002889E-16	-0.000000E+00
5.677295E+03	-3.982120E-16	-0.000000E+00
5.687221E+03	-3.961339E-16	-0.000000E+00
5.697146E+03	-3.940556E-16	-0.000000E+00
5.707071E+03	-3.919776E-16	-0.000000E+00
5.716997E+03	-3.899008E-16	-0.000000E+00
5.726922E+03	-3.878254E-16	-0.000000E+00
5.736847E+03	-3.857525E-16	-0.000000E+00
5.746773E+03	-3.836824E-16	-0.000000E+00
5.756698E+03	-3.816160E-16	-0.000000E+00
5.766623E+03	-3.795537E-16	-0.000000E+00
5.776549E+03	-3.774962E-16	-0.000000E+00
5.786474E+03	-3.754442E-16	-0.000000E+00
5.796399E+03	-3.733983E-16	-0.000000E+00
5.806325E+03	-3.713590E-16	-0.000000E+00
5.816250E+03	-3.693268E-16	-0.000000E+00
5.826176E+03	-3.673026E-16	-0.000000E+00
5.836101E+03	-3.652865E-16	-0.000000E+00
5.846026E+03	-3.632796E-16	-0.000000E+00
5.855952E+03	-3.612819E-16	-0.000000E+00
5.865877E+03	-3.592944E-16	-0.000000E+00
5.875802E+03	-3.573174E-16	-0.000000E+00
5.885728E+03	-3.553513E-16	-0.000000E+00
5.895653E+03	-3.533968E-16	-0.000000E+00
5.905578E+03	-3.514543E-16	-0.000000E+00
5.915504E+03	-3.495243E-16	-0.000000E+00
5.925429E+03	-3.476075E-16	-0.000000E+00
5.935354E+03	-3.457039E-16	-0.000000E+00
5.945280E+03	-3.438143E-16	-0.000000E+00
5.955205E+03	-3.419391E-16	-0.000000E+00
5.965130E+03	-3.400786E-16	-0.000000E+00
5.975056E+03	-3.382331E-16	-0.000000E+00
5.984981E+03	-3.364034E-16	-0.000000E+00
5.994906E+03	-3.345897E-16	-0.000000E+00
6.004832E+03	-3.327922E-16	-0.000000E+00
6.014757E+03	-3.310115E-16	-0.000000E+00
6.024682E+03	-3.292479E-16	-0.000000E+00
6.034608E+03	-3.275017E-16	-0.000000E+00
6.044533E+03	-3.257732E-16	-0.000000E+00
6.054458E+03	-3.240628E-16	-0.000000E+00
6.064384E+03	-3.223709E-16	-0.000000E+00
6.074309E+03	-3.206976E-16	-0.000000E+00
6.084234E+03	-3.190433E-16	-0.000000E+00
6.094160E+03	-3.174081E-16	-0.000000E+00
6.104085E+03	-3.157925E-16	-0.000000E+00
6.114010E+03	-3.141965E-16	-0.000000E+00
6.123936E+03	-3.126207E-16	-0.000000E+00
6.133861E+03	-3.110650E-16	-0.000000E+00
6.143786E+03	-3.095297E-16	-0.000000E+00
6.153712E+03	-3.080152E-16	-0.000000E+00
6.163637E+03	-3.065215E-16	-0.000000E+00
6.173562E+03	-3.050486E-16	-0.000000E+00
6.183488E+03	-3.035972E-16	-0.000000E+00
6.193413E+03	-3.021670E-16	-0.000000E+00
6.203338E+03	-3.007583E-16	-0.000000E+00
6.213264E+03	-2.993713E-16	-0.000000E+00
6.223189E+03	-2.980060E-16	-0.000000E+00
6.233115E+03	-2.966628E-16	-0.000000E+00
6.243040E+03	-2.953416E-16	-0.000000E+00
6.252965E+03	-2.940424E-16	-0.000000E+00
6.262891E+03	-2.927657E-16	-0.000000E+00
6.272816E+03	-2.915111E-16	-0.000000E+00
6.282741E+03	-2.902791E-16	-0.000000E+00
6.292667E+03	-2.890694E-16	-0.000000E+00
6.302592E+03	-2.878823E-16	-0.000000E+00
6.312517E+03	-2.867180E-16	-0.000000E+00
6.322443E+03	-2.855762E-16	-0.000000E+00
6.332368E+03	-2.844571E-16	-0.000000E+00
6.342293E+03	-2.833608E-16	-0.000000E+00
6.352219E+03	-2.822873E-16	-0.000000E+00
6.362144E+03	-2.812365E-16	-0.000000E+00
6.372069E+03	-2.802085E-16	-0.000000E+00
6.381995E+03	-2.792033E-16	-0.000000E+00
6.391920E+03	-2.782210E-16	-0.000000E+00
6.401845E+03	-2.772614E-16	-0.000000E+00
6.411771E+03	-2.763247E-16	-0.000000E+00
6.421696E+03	-2.754106E-16	-0.000000E+00
6.431621E+03	-2.745195E-16	-0.000000E+00
6.441547E+03	-2.736510E-16	-0.000000E+00
6.451472E+03	-2.728052E-16	-0.000000E+00
6.461397E+03	-2.719820E-16	-0.000000E+00
6.471323E+03	-2.711816E-16	-0.000000E+00
6.481248E+03	-2.704036E-16	-0.000000E+00
6.491173E+03	-2.696482E-16	-0.000000E+00
6.501099E+03	-2.689152E-16	-0.000000E+00
6.511024E+03	-2.682047E-16	-0.000000E+00
6.520949E+03	-2.675165E-16	-0.000000E+00
6.530875E+03	-2.668507E-16	-0.000000E+00
6.540800E+03	-2.662069E-16	-0.000000E+00
6.550725E+03	-2.655854E-16	-0.000000E+00
6.560651E+03	-2.649859E-16	-0.000000E+00
6.570576E+03	-2.644083E-16	-0.000000E+00
6.580501E+03	-2.638526E-16	-0.000000E+00
6.590427E+03	-2.633186E-16	-0.000000E+00
6.600352E+03	-2.628063E-16	-0.000000E+00
6.610277E+03	-2.623157E-16	-0.000000E+00
6.620203E+03	-2.618465E-16	-0.000000E+00
6.630128E+03	-2.613987E-16	-0.000000E+00
6.640054E+03	-2.609721E-16	-0.000000E+00
6.649979E+03	-2.605668E-16	-0.000000E+00
6.659904E+03	-2.601826E-16	-0.000000E+00
6.669830E+03	-2.598192E-16	-0.000000E+00
6.679755E+03	-2.594767E-16	-0.000000E+00
6.689680E+03	-2.591547E-16	-0.000000E+00
6.699606E+03	-2.588535E-16	-0.000000E+00
6.709531E+03	-2.585726E-16	-0.000000E+00
6.719456E+03	-2.583121E-16	-0.000000E+00
6.729382E+03	-2.580717E-16	-0.000000E+00
6.739307E+03	-2.578513E-16	-0.000000E+00
6.749232E+03	-2.576509E-16	-0.000000E+00
6.759158E+03	-2.574701E-16	-0.000000E+00
6.769083E+03	-2.573090E-16	-0.000000E+00
6.779008E+03	-2.571673E-16	-0.000000E+00
6.788934E+03	-2.570450E-16	-0.000000E+00
6.798859E+03	-2.569418E-16	-0.000000E+00
6.808784E+03	-2.568574E-16	-0.000000E+00
6.818710E+03	-2.567921E-16	-0.000000E+00
6.828635E+03	-2.567454E-16	-0.000000E+00
6.838560E+03	-2.567171E-16	-0.000000E+00
6.848486E+03	-2.567072E-16	-0.000000E+00
6.858411E+03	-2.567155E-16	-0.000000E+00
6.868336E+03	-2.567417E-16	-0.000000E+00
6.878262E+03	-2.567858E-16	-0.000000E+00
6.888187E+03	-2.568476E-16	-0.000000E+00
6.898112E+03	-2.569269E-16	-0.000000E+00
6.908038E+03	-2.570234E-16	-0.000000E+00
6.917963E+03	-2.571370E-16	-0.000000E+00
6.927888E+03	-2.572677E-16	-0.000000E+00
6.937814E+03	-2.574150E-16	-0.000000E+00
6.947739E+03	-2.575788E-16	-0.000000E+00
6.957664E+03	-2.577591E-16	-0.000000E+00
6.967590E+03	-2.579555E-16	-0.000000E+00
6.977515E+03	-2.581680E-16	-0.000000E+00
6.987440E+03	-2.583963E-16	-0.000000E+00
6.997366E+03	-2.586401E-16	-0.000000E+00
7.007291E+03	-2.588995E-16	-0.000000E+00
7.017216E+03	-2.591740E-16	-0.000000E+00
7.027142E+03	-2.594635E-16	-0.000000E+00
7.037067E+03	-2.597679E-16	-0.000000E+00
7.046993E+03	-2.600870E-16	-0.000000E+00
7.056918E+03	-2.604204E-16	-0.000000E+00
7.066843E+03	-2.607683E-16	-0.000000E+00
7.076769E+03	-2.611300E-16	-0.000000E+00
7.086694E+03	-2.615056E-16	-0.000000E+00
7.096619E+03	-2.618949E-16	-0.000000E+00
7.106545E+03	-2.622976E-16	-0.000000E+00
7.116470E+03	-2.627137E-16	-0.000000E+00
7.126395E+03	-2.631429E-16	-0.000000E+00
7.136321E+03	-2.635847E-16	-0.000000E+00
7.146246E+03	-2.640393E-16	-0.000000E+00
7.156171E+03	-2.645065E-16	-0.000000E+00
7.166097E+03	-2.649860E-16	-0.000000E+00
7.176022E+03	-2.654774E-16	-0.000000E+00
7.185947E+03	-2.659807E-16	-0.000000E+00
7.195873E+03	-2.664959E-16	-0.000000E+00
7.205798E+03	-2.670226E-16	-0.000000E+00
7.215723E+03	-2.675604E-16	-0.000000E+00
7.225649E+03	-2.681096E-16	-0.000000E+00
7.235574E+03	-2.686696E-16	-0.000000E+00
7.245499E+03	-2.692403E-16	-0.000000E+00
7.255425E+03	-2.698218E-16	-0.000000E+00
7.265350E+03	-2.704134E-16	-0.000000E+00
7.275275E+03	-2.710155E-16	-0.000000E+00
7.285201E+03	-2.716275E-16	-0.000000E+00
7.295126E+03	-2.722494E-16	-0.000000E+00
7.305051E+03	-2.728810E-16	-0.000000E+00
7.314977E+03	-2.735219E-16	-0.000000E+00
7.324902E+03	-2.741724E-16	-0.000000E+00
7.334827E+03	-2.748319E-16	-0.000000E+00
7.344753E+03	-2.755004E-16	-0.000000E+00
7.354678E+03	-2.761776E-16	-0.000000E+00
7.364603E+03	-2.768636E-16	-0.000000E+00
7.374529E+03	-2.775579E-16	-0.000000E+00
7.384454E+03	-2.782606E-16	-0.000000E+00
7.394379E+03	-2.789714E-16	-0.000000E+00
7.404305E+03	-2.796903E-16	-0.000000E+00
7.414230E+03	-2.804168E-16	-0.000000E+00
7.424156E+03	-2.811511E-16	-0.000000E+00
7.434081E+03	-2.818929E-16	-0.000000E+00
7.444006E+03	-2.826419E-16	-0.000000E+00
7.453932E+03	-2.833981E-16	-0.000000E+00
