#wls	flux	fluxerr
1.588055E+03	-7.073665E-16	-0.000000E+00
1.627756E+03	-7.144019E-16	-0.000000E+00
1.667457E+03	-7.200994E-16	-0.000000E+00
1.707159E+03	-7.243873E-16	-0.000000E+00
1.746860E+03	-7.271569E-16	-0.000000E+00
1.786561E+03	-7.280844E-16	-0.000000E+00
1.826263E+03	-7.267432E-16	-0.000000E+00
1.865964E+03	-7.226351E-16	-0.000000E+00
1.905666E+03	-7.152604E-16	-0.000000E+00
1.945367E+03	-7.042893E-16	-0.000000E+00
1.985068E+03	-6.899117E-16	-0.000000E+00
2.024770E+03	-6.733483E-16	-0.000000E+00
2.064471E+03	-6.572674E-16	-0.000000E+00
2.104172E+03	-6.454977E-16	-0.000000E+00
2.143874E+03	-6.416244E-16	-0.000000E+00
2.183575E+03	-6.471808E-16	-0.000000E+00
2.223277E+03	-6.609765E-16	-0.000000E+00
2.262978E+03	-6.800722E-16	-0.000000E+00
2.302679E+03	-7.013396E-16	-0.000000E+00
2.342381E+03	-7.224444E-16	-0.000000E+00
2.382082E+03	-7.420403E-16	-0.000000E+00
2.421783E+03	-7.595449E-16	-0.000000E+00
2.461485E+03	-7.748351E-16	-0.000000E+00
2.501186E+03	-7.880190E-16	-0.000000E+00
2.540887E+03	-7.992968E-16	-0.000000E+00
2.580589E+03	-8.088887E-16	-0.000000E+00
2.620290E+03	-8.170015E-16	-0.000000E+00
2.659992E+03	-8.238177E-16	-0.000000E+00
2.699693E+03	-8.294922E-16	-0.000000E+00
2.739394E+03	-8.341567E-16	-0.000000E+00
2.779096E+03	-8.379211E-16	-0.000000E+00
2.818797E+03	-8.408807E-16	-0.000000E+00
2.858498E+03	-8.431180E-16	-0.000000E+00
2.898200E+03	-8.447070E-16	-0.000000E+00
2.937901E+03	-8.457164E-16	-0.000000E+00
2.977602E+03	-8.462098E-16	-0.000000E+00
2.987528E+03	-8.462601E-16	-0.000000E+00
2.997453E+03	-8.462830E-16	-0.000000E+00
3.007378E+03	-8.462794E-16	-0.000000E+00
3.017304E+03	-8.462557E-16	-0.000000E+00
3.027229E+03	-8.462282E-16	-0.000000E+00
3.037155E+03	-8.462184E-16	-0.000000E+00
3.047080E+03	-8.462223E-16	-0.000000E+00
3.057005E+03	-8.462533E-16	-0.000000E+00
3.066931E+03	-8.463035E-16	-0.000000E+00
3.076856E+03	-8.463673E-16	-0.000000E+00
3.086781E+03	-8.464388E-16	-0.000000E+00
3.096707E+03	-8.465133E-16	-0.000000E+00
3.106632E+03	-8.465862E-16	-0.000000E+00
3.116557E+03	-8.466543E-16	-0.000000E+00
3.126483E+03	-8.467140E-16	-0.000000E+00
3.136408E+03	-8.467629E-16	-0.000000E+00
3.146333E+03	-8.467990E-16	-0.000000E+00
3.156259E+03	-8.468208E-16	-0.000000E+00
3.166184E+03	-8.468267E-16	-0.000000E+00
3.176109E+03	-8.468163E-16	-0.000000E+00
3.186035E+03	-8.467883E-16	-0.000000E+00
3.195960E+03	-8.467428E-16	-0.000000E+00
3.205885E+03	-8.466795E-16	-0.000000E+00
3.215811E+03	-8.465995E-16	-0.000000E+00
3.225736E+03	-8.465025E-16	-0.000000E+00
3.235661E+03	-8.463898E-16	-0.000000E+00
3.245587E+03	-8.462618E-16	-0.000000E+00
3.255512E+03	-8.461200E-16	-0.000000E+00
3.265437E+03	-8.459658E-16	-0.000000E+00
3.275363E+03	-8.458007E-16	-0.000000E+00
3.285288E+03	-8.456260E-16	-0.000000E+00
3.295213E+03	-8.454432E-16	-0.000000E+00
3.305139E+03	-8.452547E-16	-0.000000E+00
3.315064E+03	-8.450623E-16	-0.000000E+00
3.324989E+03	-8.448676E-16	-0.000000E+00
3.334915E+03	-8.446728E-16	-0.000000E+00
3.344840E+03	-8.444802E-16	-0.000000E+00
3.354765E+03	-8.442922E-16	-0.000000E+00
3.364691E+03	-8.441108E-16	-0.000000E+00
3.374616E+03	-8.439384E-16	-0.000000E+00
3.384541E+03	-8.437774E-16	-0.000000E+00
3.394467E+03	-8.436300E-16	-0.000000E+00
3.404392E+03	-8.434988E-16	-0.000000E+00
3.414318E+03	-8.433861E-16	-0.000000E+00
3.424243E+03	-8.432945E-16	-0.000000E+00
3.434168E+03	-8.432261E-16	-0.000000E+00
3.444094E+03	-8.431836E-16	-0.000000E+00
3.454019E+03	-8.431696E-16	-0.000000E+00
3.463944E+03	-8.431862E-16	-0.000000E+00
3.473870E+03	-8.432361E-16	-0.000000E+00
3.483795E+03	-8.433213E-16	-0.000000E+00
3.493720E+03	-8.434450E-16	-0.000000E+00
3.503646E+03	-8.436091E-16	-0.000000E+00
3.513571E+03	-8.438162E-16	-0.000000E+00
3.523496E+03	-8.440684E-16	-0.000000E+00
3.533422E+03	-8.443687E-16	-0.000000E+00
3.543347E+03	-8.447185E-16	-0.000000E+00
3.553272E+03	-8.451204E-16	-0.000000E+00
3.563198E+03	-8.455772E-16	-0.000000E+00
3.573123E+03	-8.460905E-16	-0.000000E+00
3.583048E+03	-8.466626E-16	-0.000000E+00
3.592974E+03	-8.472964E-16	-0.000000E+00
3.602899E+03	-8.479929E-16	-0.000000E+00
3.612824E+03	-8.487552E-16	-0.000000E+00
3.622750E+03	-8.495845E-16	-0.000000E+00
3.632675E+03	-8.504833E-16	-0.000000E+00
3.642600E+03	-8.514536E-16	-0.000000E+00
3.652526E+03	-8.524976E-16	-0.000000E+00
3.662451E+03	-8.536162E-16	-0.000000E+00
3.672376E+03	-8.548126E-16	-0.000000E+00
3.682302E+03	-8.560875E-16	-0.000000E+00
3.692227E+03	-8.574429E-16	-0.000000E+00
3.702152E+03	-8.588807E-16	-0.000000E+00
3.712078E+03	-8.604024E-16	-0.000000E+00
3.722003E+03	-8.620100E-16	-0.000000E+00
3.731928E+03	-8.637044E-16	-0.000000E+00
3.741854E+03	-8.654877E-16	-0.000000E+00
3.751779E+03	-8.673607E-16	-0.000000E+00
3.761704E+03	-8.693255E-16	-0.000000E+00
3.771630E+03	-8.713829E-16	-0.000000E+00
3.781555E+03	-8.735340E-16	-0.000000E+00
3.791480E+03	-8.757805E-16	-0.000000E+00
3.801406E+03	-8.781236E-16	-0.000000E+00
3.811331E+03	-8.805640E-16	-0.000000E+00
3.821257E+03	-8.831033E-16	-0.000000E+00
3.831182E+03	-8.857417E-16	-0.000000E+00
3.841107E+03	-8.884805E-16	-0.000000E+00
3.851033E+03	-8.913203E-16	-0.000000E+00
3.860958E+03	-8.942623E-16	-0.000000E+00
3.870883E+03	-8.973066E-16	-0.000000E+00
3.880809E+03	-9.004545E-16	-0.000000E+00
3.890734E+03	-9.037062E-16	-0.000000E+00
3.900659E+03	-9.070623E-16	-0.000000E+00
3.910585E+03	-9.105231E-16	-0.000000E+00
3.920510E+03	-9.140888E-16	-0.000000E+00
3.930435E+03	-9.177599E-16	-0.000000E+00
3.940361E+03	-9.215364E-16	-0.000000E+00
3.950286E+03	-9.254189E-16	-0.000000E+00
3.960211E+03	-9.294066E-16	-0.000000E+00
3.970137E+03	-9.335002E-16	-0.000000E+00
3.980062E+03	-9.376990E-16	-0.000000E+00
3.989987E+03	-9.420027E-16	-0.000000E+00
3.999913E+03	-9.464112E-16	-0.000000E+00
4.009838E+03	-9.509240E-16	-0.000000E+00
4.019763E+03	-9.555406E-16	-0.000000E+00
4.029689E+03	-9.602605E-16	-0.000000E+00
4.039614E+03	-9.650828E-16	-0.000000E+00
4.049539E+03	-9.700061E-16	-0.000000E+00
4.059465E+03	-9.750302E-16	-0.000000E+00
4.069390E+03	-9.801539E-16	-0.000000E+00
4.079315E+03	-9.853756E-16	-0.000000E+00
4.089241E+03	-9.906940E-16	-0.000000E+00
4.099166E+03	-9.961076E-16	-0.000000E+00
4.109091E+03	-1.001615E-15	-0.000000E+00
4.119017E+03	-1.007215E-15	-0.000000E+00
4.128942E+03	-1.012904E-15	-0.000000E+00
4.138867E+03	-1.018682E-15	-0.000000E+00
4.148793E+03	-1.024545E-15	-0.000000E+00
4.158718E+03	-1.030492E-15	-0.000000E+00
4.168643E+03	-1.036520E-15	-0.000000E+00
4.178569E+03	-1.042627E-15	-0.000000E+00
4.188494E+03	-1.048809E-15	-0.000000E+00
4.198419E+03	-1.055063E-15	-0.000000E+00
4.208345E+03	-1.061386E-15	-0.000000E+00
4.218270E+03	-1.067776E-15	-0.000000E+00
4.228196E+03	-1.074228E-15	-0.000000E+00
4.238121E+03	-1.080738E-15	-0.000000E+00
4.248046E+03	-1.087304E-15	-0.000000E+00
4.257972E+03	-1.093920E-15	-0.000000E+00
4.267897E+03	-1.100583E-15	-0.000000E+00
4.277822E+03	-1.107288E-15	-0.000000E+00
4.287748E+03	-1.114031E-15	-0.000000E+00
4.297673E+03	-1.120807E-15	-0.000000E+00
4.307598E+03	-1.127610E-15	-0.000000E+00
4.317524E+03	-1.134436E-15	-0.000000E+00
4.327449E+03	-1.141280E-15	-0.000000E+00
4.337374E+03	-1.148136E-15	-0.000000E+00
4.347300E+03	-1.154999E-15	-0.000000E+00
4.357225E+03	-1.161863E-15	-0.000000E+00
4.367150E+03	-1.168722E-15	-0.000000E+00
4.377076E+03	-1.175571E-15	-0.000000E+00
4.387001E+03	-1.182403E-15	-0.000000E+00
4.396926E+03	-1.189212E-15	-0.000000E+00
4.406852E+03	-1.195992E-15	-0.000000E+00
4.416777E+03	-1.202737E-15	-0.000000E+00
4.426702E+03	-1.209441E-15	-0.000000E+00
4.436628E+03	-1.216097E-15	-0.000000E+00
4.446553E+03	-1.222700E-15	-0.000000E+00
4.456478E+03	-1.229242E-15	-0.000000E+00
4.466404E+03	-1.235718E-15	-0.000000E+00
4.476329E+03	-1.242121E-15	-0.000000E+00
4.486254E+03	-1.248445E-15	-0.000000E+00
4.496180E+03	-1.254684E-15	-0.000000E+00
4.506105E+03	-1.260833E-15	-0.000000E+00
4.516030E+03	-1.266885E-15	-0.000000E+00
4.525956E+03	-1.272835E-15	-0.000000E+00
4.535881E+03	-1.278677E-15	-0.000000E+00
4.545806E+03	-1.284406E-15	-0.000000E+00
4.555732E+03	-1.290017E-15	-0.000000E+00
4.565657E+03	-1.295505E-15	-0.000000E+00
4.575582E+03	-1.300865E-15	-0.000000E+00
4.585508E+03	-1.306094E-15	-0.000000E+00
4.595433E+03	-1.311186E-15	-0.000000E+00
4.605358E+03	-1.316138E-15	-0.000000E+00
4.615284E+03	-1.320947E-15	-0.000000E+00
4.625209E+03	-1.325609E-15	-0.000000E+00
4.635135E+03	-1.330122E-15	-0.000000E+00
4.645060E+03	-1.334482E-15	-0.000000E+00
4.654985E+03	-1.338689E-15	-0.000000E+00
4.664911E+03	-1.342739E-15	-0.000000E+00
4.674836E+03	-1.346631E-15	-0.000000E+00
4.684761E+03	-1.350364E-15	-0.000000E+00
4.694687E+03	-1.353937E-15	-0.000000E+00
4.704612E+03	-1.357349E-15	-0.000000E+00
4.714537E+03	-1.360600E-15	-0.000000E+00
4.724463E+03	-1.363690E-15	-0.000000E+00
4.734388E+03	-1.366619E-15	-0.000000E+00
4.744313E+03	-1.369389E-15	-0.000000E+00
4.754239E+03	-1.371999E-15	-0.000000E+00
4.764164E+03	-1.374451E-15	-0.000000E+00
4.774089E+03	-1.376746E-15	-0.000000E+00
4.784015E+03	-1.378885E-15	-0.000000E+00
4.793940E+03	-1.380872E-15	-0.000000E+00
4.803865E+03	-1.382706E-15	-0.000000E+00
4.813791E+03	-1.384392E-15	-0.000000E+00
4.823716E+03	-1.385930E-15	-0.000000E+00
4.833641E+03	-1.387323E-15	-0.000000E+00
4.843567E+03	-1.388574E-15	-0.000000E+00
4.853492E+03	-1.389686E-15	-0.000000E+00
4.863417E+03	-1.390660E-15	-0.000000E+00
4.873343E+03	-1.391500E-15	-0.000000E+00
4.883268E+03	-1.392210E-15	-0.000000E+00
4.893193E+03	-1.392790E-15	-0.000000E+00
4.903119E+03	-1.393244E-15	-0.000000E+00
4.913044E+03	-1.393575E-15	-0.000000E+00
4.922969E+03	-1.393787E-15	-0.000000E+00
4.932895E+03	-1.393880E-15	-0.000000E+00
4.942820E+03	-1.393859E-15	-0.000000E+00
4.952745E+03	-1.393725E-15	-0.000000E+00
4.962671E+03	-1.393482E-15	-0.000000E+00
4.972596E+03	-1.393131E-15	-0.000000E+00
4.982521E+03	-1.392676E-15	-0.000000E+00
4.992447E+03	-1.392118E-15	-0.000000E+00
5.002372E+03	-1.391459E-15	-0.000000E+00
5.012297E+03	-1.390702E-15	-0.000000E+00
5.022223E+03	-1.389849E-15	-0.000000E+00
5.032148E+03	-1.388901E-15	-0.000000E+00
5.042074E+03	-1.387861E-15	-0.000000E+00
5.051999E+03	-1.386729E-15	-0.000000E+00
5.061924E+03	-1.385508E-15	-0.000000E+00
5.071850E+03	-1.384199E-15	-0.000000E+00
5.081775E+03	-1.382803E-15	-0.000000E+00
5.091700E+03	-1.381322E-15	-0.000000E+00
5.101626E+03	-1.379757E-15	-0.000000E+00
5.111551E+03	-1.378108E-15	-0.000000E+00
5.121476E+03	-1.376378E-15	-0.000000E+00
5.131402E+03	-1.374566E-15	-0.000000E+00
5.141327E+03	-1.372674E-15	-0.000000E+00
5.151252E+03	-1.370702E-15	-0.000000E+00
5.161178E+03	-1.368652E-15	-0.000000E+00
5.171103E+03	-1.366523E-15	-0.000000E+00
5.181028E+03	-1.364317E-15	-0.000000E+00
5.190954E+03	-1.362034E-15	-0.000000E+00
5.200879E+03	-1.359675E-15	-0.000000E+00
5.210804E+03	-1.357240E-15	-0.000000E+00
5.220730E+03	-1.354730E-15	-0.000000E+00
5.230655E+03	-1.352145E-15	-0.000000E+00
5.240580E+03	-1.349486E-15	-0.000000E+00
5.250506E+03	-1.346753E-15	-0.000000E+00
5.260431E+03	-1.343947E-15	-0.000000E+00
5.270356E+03	-1.341069E-15	-0.000000E+00
5.280282E+03	-1.338117E-15	-0.000000E+00
5.290207E+03	-1.335095E-15	-0.000000E+00
5.300132E+03	-1.332001E-15	-0.000000E+00
5.310058E+03	-1.328837E-15	-0.000000E+00
5.319983E+03	-1.325603E-15	-0.000000E+00
5.329908E+03	-1.322299E-15	-0.000000E+00
5.339834E+03	-1.318927E-15	-0.000000E+00
5.349759E+03	-1.315487E-15	-0.000000E+00
5.359684E+03	-1.311979E-15	-0.000000E+00
5.369610E+03	-1.308404E-15	-0.000000E+00
5.379535E+03	-1.304765E-15	-0.000000E+00
5.389460E+03	-1.301059E-15	-0.000000E+00
5.399386E+03	-1.297291E-15	-0.000000E+00
5.409311E+03	-1.293459E-15	-0.000000E+00
5.419237E+03	-1.289564E-15	-0.000000E+00
5.429162E+03	-1.285608E-15	-0.000000E+00
5.439087E+03	-1.281593E-15	-0.000000E+00
5.449013E+03	-1.277518E-15	-0.000000E+00
5.458938E+03	-1.273385E-15	-0.000000E+00
5.468863E+03	-1.269195E-15	-0.000000E+00
5.478789E+03	-1.264950E-15	-0.000000E+00
5.488714E+03	-1.260650E-15	-0.000000E+00
5.498639E+03	-1.256297E-15	-0.000000E+00
5.508565E+03	-1.251892E-15	-0.000000E+00
5.518490E+03	-1.247437E-15	-0.000000E+00
5.528415E+03	-1.242932E-15	-0.000000E+00
5.538341E+03	-1.238380E-15	-0.000000E+00
5.548266E+03	-1.233782E-15	-0.000000E+00
5.558191E+03	-1.229140E-15	-0.000000E+00
5.568117E+03	-1.224455E-15	-0.000000E+00
5.578042E+03	-1.219728E-15	-0.000000E+00
5.587967E+03	-1.214961E-15	-0.000000E+00
5.597893E+03	-1.210156E-15	-0.000000E+00
5.607818E+03	-1.205316E-15	-0.000000E+00
5.617743E+03	-1.200440E-15	-0.000000E+00
5.627669E+03	-1.195532E-15	-0.000000E+00
5.637594E+03	-1.190592E-15	-0.000000E+00
5.647519E+03	-1.185624E-15	-0.000000E+00
5.657445E+03	-1.180628E-15	-0.000000E+00
5.667370E+03	-1.175607E-15	-0.000000E+00
5.677295E+03	-1.170562E-15	-0.000000E+00
5.687221E+03	-1.165496E-15	-0.000000E+00
5.697146E+03	-1.160411E-15	-0.000000E+00
5.707071E+03	-1.155308E-15	-0.000000E+00
5.716997E+03	-1.150190E-15	-0.000000E+00
5.726922E+03	-1.145059E-15	-0.000000E+00
5.736847E+03	-1.139916E-15	-0.000000E+00
5.746773E+03	-1.134764E-15	-0.000000E+00
5.756698E+03	-1.129606E-15	-0.000000E+00
5.766623E+03	-1.124443E-15	-0.000000E+00
5.776549E+03	-1.119277E-15	-0.000000E+00
5.786474E+03	-1.114110E-15	-0.000000E+00
5.796399E+03	-1.108945E-15	-0.000000E+00
5.806325E+03	-1.103784E-15	-0.000000E+00
5.816250E+03	-1.098630E-15	-0.000000E+00
5.826176E+03	-1.093483E-15	-0.000000E+00
5.836101E+03	-1.088347E-15	-0.000000E+00
5.846026E+03	-1.083223E-15	-0.000000E+00
5.855952E+03	-1.078114E-15	-0.000000E+00
5.865877E+03	-1.073022E-15	-0.000000E+00
5.875802E+03	-1.067949E-15	-0.000000E+00
5.885728E+03	-1.062897E-15	-0.000000E+00
5.895653E+03	-1.057868E-15	-0.000000E+00
5.905578E+03	-1.052865E-15	-0.000000E+00
5.915504E+03	-1.047889E-15	-0.000000E+00
5.925429E+03	-1.042943E-15	-0.000000E+00
5.935354E+03	-1.038028E-15	-0.000000E+00
5.945280E+03	-1.033146E-15	-0.000000E+00
5.955205E+03	-1.028300E-15	-0.000000E+00
5.965130E+03	-1.023491E-15	-0.000000E+00
5.975056E+03	-1.018721E-15	-0.000000E+00
5.984981E+03	-1.013992E-15	-0.000000E+00
5.994906E+03	-1.009306E-15	-0.000000E+00
6.004832E+03	-1.004665E-15	-0.000000E+00
6.014757E+03	-1.000070E-15	-0.000000E+00
6.024682E+03	-9.955228E-16	-0.000000E+00
6.034608E+03	-9.910256E-16	-0.000000E+00
6.044533E+03	-9.865800E-16	-0.000000E+00
6.054458E+03	-9.821868E-16	-0.000000E+00
6.064384E+03	-9.778478E-16	-0.000000E+00
6.074309E+03	-9.735650E-16	-0.000000E+00
6.084234E+03	-9.693390E-16	-0.000000E+00
6.094160E+03	-9.651714E-16	-0.000000E+00
6.104085E+03	-9.610638E-16	-0.000000E+00
6.114010E+03	-9.570174E-16	-0.000000E+00
6.123936E+03	-9.530336E-16	-0.000000E+00
6.133861E+03	-9.491126E-16	-0.000000E+00
6.143786E+03	-9.452560E-16	-0.000000E+00
6.153712E+03	-9.414654E-16	-0.000000E+00
6.163637E+03	-9.377409E-16	-0.000000E+00
6.173562E+03	-9.340835E-16	-0.000000E+00
6.183488E+03	-9.304950E-16	-0.000000E+00
6.193413E+03	-9.269748E-16	-0.000000E+00
6.203338E+03	-9.235252E-16	-0.000000E+00
6.213264E+03	-9.201456E-16	-0.000000E+00
6.223189E+03	-9.168372E-16	-0.000000E+00
6.233115E+03	-9.136006E-16	-0.000000E+00
6.243040E+03	-9.104364E-16	-0.000000E+00
6.252965E+03	-9.073447E-16	-0.000000E+00
6.262891E+03	-9.043265E-16	-0.000000E+00
6.272816E+03	-9.013821E-16	-0.000000E+00
6.282741E+03	-8.985114E-16	-0.000000E+00
6.292667E+03	-8.957151E-16	-0.000000E+00
6.302592E+03	-8.929933E-16	-0.000000E+00
6.312517E+03	-8.903466E-16	-0.000000E+00
6.322443E+03	-8.877746E-16	-0.000000E+00
6.332368E+03	-8.852783E-16	-0.000000E+00
6.342293E+03	-8.828569E-16	-0.000000E+00
6.352219E+03	-8.805115E-16	-0.000000E+00
6.362144E+03	-8.782411E-16	-0.000000E+00
6.372069E+03	-8.760468E-16	-0.000000E+00
6.381995E+03	-8.739278E-16	-0.000000E+00
6.391920E+03	-8.718847E-16	-0.000000E+00
6.401845E+03	-8.699174E-16	-0.000000E+00
6.411771E+03	-8.680257E-16	-0.000000E+00
6.421696E+03	-8.662096E-16	-0.000000E+00
6.431621E+03	-8.644692E-16	-0.000000E+00
6.441547E+03	-8.628040E-16	-0.000000E+00
6.451472E+03	-8.612148E-16	-0.000000E+00
6.461397E+03	-8.597010E-16	-0.000000E+00
6.471323E+03	-8.582627E-16	-0.000000E+00
6.481248E+03	-8.568996E-16	-0.000000E+00
6.491173E+03	-8.556117E-16	-0.000000E+00
6.501099E+03	-8.543997E-16	-0.000000E+00
6.511024E+03	-8.532625E-16	-0.000000E+00
6.520949E+03	-8.522008E-16	-0.000000E+00
6.530875E+03	-8.512141E-16	-0.000000E+00
6.540800E+03	-8.503026E-16	-0.000000E+00
6.550725E+03	-8.494663E-16	-0.000000E+00
6.560651E+03	-8.487048E-16	-0.000000E+00
6.570576E+03	-8.480183E-16	-0.000000E+00
6.580501E+03	-8.474072E-16	-0.000000E+00
6.590427E+03	-8.468706E-16	-0.000000E+00
6.600352E+03	-8.464092E-16	-0.000000E+00
6.610277E+03	-8.460226E-16	-0.000000E+00
6.620203E+03	-8.457107E-16	-0.000000E+00
6.630128E+03	-8.454737E-16	-0.000000E+00
6.640054E+03	-8.453117E-16	-0.000000E+00
6.649979E+03	-8.452242E-16	-0.000000E+00
6.659904E+03	-8.452113E-16	-0.000000E+00
6.669830E+03	-8.452731E-16	-0.000000E+00
6.679755E+03	-8.454092E-16	-0.000000E+00
6.689680E+03	-8.456192E-16	-0.000000E+00
6.699606E+03	-8.459041E-16	-0.000000E+00
6.709531E+03	-8.462625E-16	-0.000000E+00
6.719456E+03	-8.466945E-16	-0.000000E+00
6.729382E+03	-8.472006E-16	-0.000000E+00
6.739307E+03	-8.477799E-16	-0.000000E+00
6.749232E+03	-8.484321E-16	-0.000000E+00
6.759158E+03	-8.491571E-16	-0.000000E+00
6.769083E+03	-8.499545E-16	-0.000000E+00
6.779008E+03	-8.508234E-16	-0.000000E+00
6.788934E+03	-8.517644E-16	-0.000000E+00
6.798859E+03	-8.527766E-16	-0.000000E+00
6.808784E+03	-8.538594E-16	-0.000000E+00
6.818710E+03	-8.550119E-16	-0.000000E+00
6.828635E+03	-8.562343E-16	-0.000000E+00
6.838560E+03	-8.575256E-16	-0.000000E+00
6.848486E+03	-8.588847E-16	-0.000000E+00
6.858411E+03	-8.603114E-16	-0.000000E+00
6.868336E+03	-8.618050E-16	-0.000000E+00
6.878262E+03	-8.633642E-16	-0.000000E+00
6.888187E+03	-8.649886E-16	-0.000000E+00
6.898112E+03	-8.666770E-16	-0.000000E+00
6.908038E+03	-8.684287E-16	-0.000000E+00
6.917963E+03	-8.702426E-16	-0.000000E+00
6.927888E+03	-8.721173E-16	-0.000000E+00
6.937814E+03	-8.740528E-16	-0.000000E+00
6.947739E+03	-8.760471E-16	-0.000000E+00
6.957664E+03	-8.780993E-16	-0.000000E+00
6.967590E+03	-8.802084E-16	-0.000000E+00
6.977515E+03	-8.823728E-16	-0.000000E+00
6.987440E+03	-8.845917E-16	-0.000000E+00
6.997366E+03	-8.868641E-16	-0.000000E+00
7.007291E+03	-8.891884E-16	-0.000000E+00
7.017216E+03	-8.915632E-16	-0.000000E+00
7.027142E+03	-8.939869E-16	-0.000000E+00
7.037067E+03	-8.964592E-16	-0.000000E+00
7.046993E+03	-8.989779E-16	-0.000000E+00
7.056918E+03	-9.015422E-16	-0.000000E+00
7.066843E+03	-9.041504E-16	-0.000000E+00
7.076769E+03	-9.068017E-16	-0.000000E+00
7.086694E+03	-9.094939E-16	-0.000000E+00
7.096619E+03	-9.122266E-16	-0.000000E+00
7.106545E+03	-9.149984E-16	-0.000000E+00
7.116470E+03	-9.178076E-16	-0.000000E+00
7.126395E+03	-9.206528E-16	-0.000000E+00
7.136321E+03	-9.235334E-16	-0.000000E+00
7.146246E+03	-9.264475E-16	-0.000000E+00
7.156171E+03	-9.293946E-16	-0.000000E+00
7.166097E+03	-9.323731E-16	-0.000000E+00
7.176022E+03	-9.353820E-16	-0.000000E+00
7.185947E+03	-9.384198E-16	-0.000000E+00
7.195873E+03	-9.414854E-16	-0.000000E+00
7.205798E+03	-9.445785E-16	-0.000000E+00
7.215723E+03	-9.476979E-16	-0.000000E+00
7.225649E+03	-9.508416E-16	-0.000000E+00
7.235574E+03	-9.540097E-16	-0.000000E+00
7.245499E+03	-9.572011E-16	-0.000000E+00
7.255425E+03	-9.604147E-16	-0.000000E+00
7.265350E+03	-9.636502E-16	-0.000000E+00
7.275275E+03	-9.669059E-16	-0.000000E+00
7.285201E+03	-9.701818E-16	-0.000000E+00
7.295126E+03	-9.734769E-16	-0.000000E+00
7.305051E+03	-9.767903E-16	-0.000000E+00
7.314977E+03	-9.801219E-16	-0.000000E+00
7.324902E+03	-9.834711E-16	-0.000000E+00
7.334827E+03	-9.868365E-16	-0.000000E+00
7.344753E+03	-9.902186E-16	-0.000000E+00
7.354678E+03	-9.936163E-16	-0.000000E+00
7.364603E+03	-9.970291E-16	-0.000000E+00
7.374529E+03	-1.000457E-15	-0.000000E+00
7.384454E+03	-1.003899E-15	-0.000000E+00
7.394379E+03	-1.007356E-15	-0.000000E+00
7.404305E+03	-1.010825E-15	-0.000000E+00
7.414230E+03	-1.014309E-15	-0.000000E+00
7.424156E+03	-1.017805E-15	-0.000000E+00
7.434081E+03	-1.021314E-15	-0.000000E+00
7.444006E+03	-1.024835E-15	-0.000000E+00
7.453932E+03	-1.028368E-15	-0.000000E+00
