#wls	flux	fluxerr
1.588055E+03	-2.851209E-16	-0.000000E+00
1.627756E+03	-2.879233E-16	-0.000000E+00
1.667457E+03	-2.901798E-16	-0.000000E+00
1.707159E+03	-2.918614E-16	-0.000000E+00
1.746860E+03	-2.929233E-16	-0.000000E+00
1.786561E+03	-2.932347E-16	-0.000000E+00
1.826263E+03	-2.926233E-16	-0.000000E+00
1.865964E+03	-2.908883E-16	-0.000000E+00
1.905666E+03	-2.878287E-16	-0.000000E+00
1.945367E+03	-2.833122E-16	-0.000000E+00
1.985068E+03	-2.774158E-16	-0.000000E+00
2.024770E+03	-2.706315E-16	-0.000000E+00
2.064471E+03	-2.640319E-16	-0.000000E+00
2.104172E+03	-2.591533E-16	-0.000000E+00
2.143874E+03	-2.574303E-16	-0.000000E+00
2.183575E+03	-2.594698E-16	-0.000000E+00
2.223277E+03	-2.647838E-16	-0.000000E+00
2.262978E+03	-2.721842E-16	-0.000000E+00
2.302679E+03	-2.804088E-16	-0.000000E+00
2.342381E+03	-2.885170E-16	-0.000000E+00
2.382082E+03	-2.959654E-16	-0.000000E+00
2.421783E+03	-3.025167E-16	-0.000000E+00
2.461485E+03	-3.081180E-16	-0.000000E+00
2.501186E+03	-3.128082E-16	-0.000000E+00
2.540887E+03	-3.166622E-16	-0.000000E+00
2.580589E+03	-3.197623E-16	-0.000000E+00
2.620290E+03	-3.221845E-16	-0.000000E+00
2.659992E+03	-3.239943E-16	-0.000000E+00
2.699693E+03	-3.252454E-16	-0.000000E+00
2.739394E+03	-3.259813E-16	-0.000000E+00
2.779096E+03	-3.262360E-16	-0.000000E+00
2.818797E+03	-3.260369E-16	-0.000000E+00
2.858498E+03	-3.254049E-16	-0.000000E+00
2.898200E+03	-3.243573E-16	-0.000000E+00
2.937901E+03	-3.229074E-16	-0.000000E+00
2.977602E+03	-3.210669E-16	-0.000000E+00
2.987528E+03	-3.205468E-16	-0.000000E+00
2.997453E+03	-3.200033E-16	-0.000000E+00
3.007378E+03	-3.194361E-16	-0.000000E+00
3.017304E+03	-3.188474E-16	-0.000000E+00
3.027229E+03	-3.182434E-16	-0.000000E+00
3.037155E+03	-3.176314E-16	-0.000000E+00
3.047080E+03	-3.170103E-16	-0.000000E+00
3.057005E+03	-3.163840E-16	-0.000000E+00
3.066931E+03	-3.157498E-16	-0.000000E+00
3.076856E+03	-3.151050E-16	-0.000000E+00
3.086781E+03	-3.144471E-16	-0.000000E+00
3.096707E+03	-3.137740E-16	-0.000000E+00
3.106632E+03	-3.130841E-16	-0.000000E+00
3.116557E+03	-3.123754E-16	-0.000000E+00
3.126483E+03	-3.116467E-16	-0.000000E+00
3.136408E+03	-3.108966E-16	-0.000000E+00
3.146333E+03	-3.101243E-16	-0.000000E+00
3.156259E+03	-3.093289E-16	-0.000000E+00
3.166184E+03	-3.085099E-16	-0.000000E+00
3.176109E+03	-3.076664E-16	-0.000000E+00
3.186035E+03	-3.067982E-16	-0.000000E+00
3.195960E+03	-3.059052E-16	-0.000000E+00
3.205885E+03	-3.049869E-16	-0.000000E+00
3.215811E+03	-3.040437E-16	-0.000000E+00
3.225736E+03	-3.030751E-16	-0.000000E+00
3.235661E+03	-3.020818E-16	-0.000000E+00
3.245587E+03	-3.010639E-16	-0.000000E+00
3.255512E+03	-3.000215E-16	-0.000000E+00
3.265437E+03	-2.989553E-16	-0.000000E+00
3.275363E+03	-2.978656E-16	-0.000000E+00
3.285288E+03	-2.967532E-16	-0.000000E+00
3.295213E+03	-2.956184E-16	-0.000000E+00
3.305139E+03	-2.944622E-16	-0.000000E+00
3.315064E+03	-2.932850E-16	-0.000000E+00
3.324989E+03	-2.920879E-16	-0.000000E+00
3.334915E+03	-2.908714E-16	-0.000000E+00
3.344840E+03	-2.896368E-16	-0.000000E+00
3.354765E+03	-2.883848E-16	-0.000000E+00
3.364691E+03	-2.871164E-16	-0.000000E+00
3.374616E+03	-2.858327E-16	-0.000000E+00
3.384541E+03	-2.845346E-16	-0.000000E+00
3.394467E+03	-2.832236E-16	-0.000000E+00
3.404392E+03	-2.819005E-16	-0.000000E+00
3.414318E+03	-2.805668E-16	-0.000000E+00
3.424243E+03	-2.792238E-16	-0.000000E+00
3.434168E+03	-2.778726E-16	-0.000000E+00
3.444094E+03	-2.765145E-16	-0.000000E+00
3.454019E+03	-2.751511E-16	-0.000000E+00
3.463944E+03	-2.737838E-16	-0.000000E+00
3.473870E+03	-2.724142E-16	-0.000000E+00
3.483795E+03	-2.710438E-16	-0.000000E+00
3.493720E+03	-2.696741E-16	-0.000000E+00
3.503646E+03	-2.683068E-16	-0.000000E+00
3.513571E+03	-2.669437E-16	-0.000000E+00
3.523496E+03	-2.655861E-16	-0.000000E+00
3.533422E+03	-2.642362E-16	-0.000000E+00
3.543347E+03	-2.628953E-16	-0.000000E+00
3.553272E+03	-2.615655E-16	-0.000000E+00
3.563198E+03	-2.602481E-16	-0.000000E+00
3.573123E+03	-2.589450E-16	-0.000000E+00
3.583048E+03	-2.576581E-16	-0.000000E+00
3.592974E+03	-2.563887E-16	-0.000000E+00
3.602899E+03	-2.551386E-16	-0.000000E+00
3.612824E+03	-2.539095E-16	-0.000000E+00
3.622750E+03	-2.527029E-16	-0.000000E+00
3.632675E+03	-2.515204E-16	-0.000000E+00
3.642600E+03	-2.503636E-16	-0.000000E+00
3.652526E+03	-2.492338E-16	-0.000000E+00
3.662451E+03	-2.481325E-16	-0.000000E+00
3.672376E+03	-2.470614E-16	-0.000000E+00
3.682302E+03	-2.460215E-16	-0.000000E+00
3.692227E+03	-2.450143E-16	-0.000000E+00
3.702152E+03	-2.440411E-16	-0.000000E+00
3.712078E+03	-2.431032E-16	-0.000000E+00
3.722003E+03	-2.422017E-16	-0.000000E+00
3.731928E+03	-2.413378E-16	-0.000000E+00
3.741854E+03	-2.405125E-16	-0.000000E+00
3.751779E+03	-2.397268E-16	-0.000000E+00
3.761704E+03	-2.389814E-16	-0.000000E+00
3.771630E+03	-2.382775E-16	-0.000000E+00
3.781555E+03	-2.376156E-16	-0.000000E+00
3.791480E+03	-2.369963E-16	-0.000000E+00
3.801406E+03	-2.364201E-16	-0.000000E+00
3.811331E+03	-2.358875E-16	-0.000000E+00
3.821257E+03	-2.353988E-16	-0.000000E+00
3.831182E+03	-2.349542E-16	-0.000000E+00
3.841107E+03	-2.345539E-16	-0.000000E+00
3.851033E+03	-2.341978E-16	-0.000000E+00
3.860958E+03	-2.338858E-16	-0.000000E+00
3.870883E+03	-2.336178E-16	-0.000000E+00
3.880809E+03	-2.333939E-16	-0.000000E+00
3.890734E+03	-2.332133E-16	-0.000000E+00
3.900659E+03	-2.330758E-16	-0.000000E+00
3.910585E+03	-2.329809E-16	-0.000000E+00
3.920510E+03	-2.329281E-16	-0.000000E+00
3.930435E+03	-2.329168E-16	-0.000000E+00
3.940361E+03	-2.329465E-16	-0.000000E+00
3.950286E+03	-2.330165E-16	-0.000000E+00
3.960211E+03	-2.331259E-16	-0.000000E+00
3.970137E+03	-2.332745E-16	-0.000000E+00
3.980062E+03	-2.334613E-16	-0.000000E+00
3.989987E+03	-2.336858E-16	-0.000000E+00
3.999913E+03	-2.339476E-16	-0.000000E+00
4.009838E+03	-2.342461E-16	-0.000000E+00
4.019763E+03	-2.345812E-16	-0.000000E+00
4.029689E+03	-2.349523E-16	-0.000000E+00
4.039614E+03	-2.353596E-16	-0.000000E+00
4.049539E+03	-2.358030E-16	-0.000000E+00
4.059465E+03	-2.362824E-16	-0.000000E+00
4.069390E+03	-2.367981E-16	-0.000000E+00
4.079315E+03	-2.373504E-16	-0.000000E+00
4.089241E+03	-2.379395E-16	-0.000000E+00
4.099166E+03	-2.385664E-16	-0.000000E+00
4.109091E+03	-2.392316E-16	-0.000000E+00
4.119017E+03	-2.399359E-16	-0.000000E+00
4.128942E+03	-2.406802E-16	-0.000000E+00
4.138867E+03	-2.414659E-16	-0.000000E+00
4.148793E+03	-2.422939E-16	-0.000000E+00
4.158718E+03	-2.431656E-16	-0.000000E+00
4.168643E+03	-2.440822E-16	-0.000000E+00
4.178569E+03	-2.450452E-16	-0.000000E+00
4.188494E+03	-2.460555E-16	-0.000000E+00
4.198419E+03	-2.471147E-16	-0.000000E+00
4.208345E+03	-2.482235E-16	-0.000000E+00
4.218270E+03	-2.493832E-16	-0.000000E+00
4.228196E+03	-2.505947E-16	-0.000000E+00
4.238121E+03	-2.518582E-16	-0.000000E+00
4.248046E+03	-2.531747E-16	-0.000000E+00
4.257972E+03	-2.545437E-16	-0.000000E+00
4.267897E+03	-2.559657E-16	-0.000000E+00
4.277822E+03	-2.574401E-16	-0.000000E+00
4.287748E+03	-2.589661E-16	-0.000000E+00
4.297673E+03	-2.605429E-16	-0.000000E+00
4.307598E+03	-2.621691E-16	-0.000000E+00
4.317524E+03	-2.638433E-16	-0.000000E+00
4.327449E+03	-2.655638E-16	-0.000000E+00
4.337374E+03	-2.673282E-16	-0.000000E+00
4.347300E+03	-2.691345E-16	-0.000000E+00
4.357225E+03	-2.709801E-16	-0.000000E+00
4.367150E+03	-2.728625E-16	-0.000000E+00
4.377076E+03	-2.747785E-16	-0.000000E+00
4.387001E+03	-2.767252E-16	-0.000000E+00
4.396926E+03	-2.786994E-16	-0.000000E+00
4.406852E+03	-2.806975E-16	-0.000000E+00
4.416777E+03	-2.827161E-16	-0.000000E+00
4.426702E+03	-2.847512E-16	-0.000000E+00
4.436628E+03	-2.867985E-16	-0.000000E+00
4.446553E+03	-2.888536E-16	-0.000000E+00
4.456478E+03	-2.909120E-16	-0.000000E+00
4.466404E+03	-2.929687E-16	-0.000000E+00
4.476329E+03	-2.950182E-16	-0.000000E+00
4.486254E+03	-2.970549E-16	-0.000000E+00
4.496180E+03	-2.990731E-16	-0.000000E+00
4.506105E+03	-3.010664E-16	-0.000000E+00
4.516030E+03	-3.030282E-16	-0.000000E+00
4.525956E+03	-3.049516E-16	-0.000000E+00
4.535881E+03	-3.068293E-16	-0.000000E+00
4.545806E+03	-3.086540E-16	-0.000000E+00
4.555732E+03	-3.104179E-16	-0.000000E+00
4.565657E+03	-3.121130E-16	-0.000000E+00
4.575582E+03	-3.137314E-16	-0.000000E+00
4.585508E+03	-3.152654E-16	-0.000000E+00
4.595433E+03	-3.167071E-16	-0.000000E+00
4.605358E+03	-3.180492E-16	-0.000000E+00
4.615284E+03	-3.192851E-16	-0.000000E+00
4.625209E+03	-3.204088E-16	-0.000000E+00
4.635135E+03	-3.214155E-16	-0.000000E+00
4.645060E+03	-3.223011E-16	-0.000000E+00
4.654985E+03	-3.230635E-16	-0.000000E+00
4.664911E+03	-3.237020E-16	-0.000000E+00
4.674836E+03	-3.242177E-16	-0.000000E+00
4.684761E+03	-3.246129E-16	-0.000000E+00
4.694687E+03	-3.248923E-16	-0.000000E+00
4.704612E+03	-3.250622E-16	-0.000000E+00
4.714537E+03	-3.251304E-16	-0.000000E+00
4.724463E+03	-3.251062E-16	-0.000000E+00
4.734388E+03	-3.249998E-16	-0.000000E+00
4.744313E+03	-3.248229E-16	-0.000000E+00
4.754239E+03	-3.245869E-16	-0.000000E+00
4.764164E+03	-3.243039E-16	-0.000000E+00
4.774089E+03	-3.239856E-16	-0.000000E+00
4.784015E+03	-3.236433E-16	-0.000000E+00
4.793940E+03	-3.232876E-16	-0.000000E+00
4.803865E+03	-3.229283E-16	-0.000000E+00
4.813791E+03	-3.225741E-16	-0.000000E+00
4.823716E+03	-3.222325E-16	-0.000000E+00
4.833641E+03	-3.219103E-16	-0.000000E+00
4.843567E+03	-3.216133E-16	-0.000000E+00
4.853492E+03	-3.213467E-16	-0.000000E+00
4.863417E+03	-3.211143E-16	-0.000000E+00
4.873343E+03	-3.209200E-16	-0.000000E+00
4.883268E+03	-3.207669E-16	-0.000000E+00
4.893193E+03	-3.206576E-16	-0.000000E+00
4.903119E+03	-3.205940E-16	-0.000000E+00
4.913044E+03	-3.205780E-16	-0.000000E+00
4.922969E+03	-3.206108E-16	-0.000000E+00
4.932895E+03	-3.206933E-16	-0.000000E+00
4.942820E+03	-3.208261E-16	-0.000000E+00
4.952745E+03	-3.210086E-16	-0.000000E+00
4.962671E+03	-3.212406E-16	-0.000000E+00
4.972596E+03	-3.215209E-16	-0.000000E+00
4.982521E+03	-3.218481E-16	-0.000000E+00
4.992447E+03	-3.222198E-16	-0.000000E+00
5.002372E+03	-3.226338E-16	-0.000000E+00
5.012297E+03	-3.230870E-16	-0.000000E+00
5.022223E+03	-3.235759E-16	-0.000000E+00
5.032148E+03	-3.240972E-16	-0.000000E+00
5.042074E+03	-3.246467E-16	-0.000000E+00
5.051999E+03	-3.252205E-16	-0.000000E+00
5.061924E+03	-3.258144E-16	-0.000000E+00
5.071850E+03	-3.264241E-16	-0.000000E+00
5.081775E+03	-3.270453E-16	-0.000000E+00
5.091700E+03	-3.276742E-16	-0.000000E+00
5.101626E+03	-3.283065E-16	-0.000000E+00
5.111551E+03	-3.289387E-16	-0.000000E+00
5.121476E+03	-3.295670E-16	-0.000000E+00
5.131402E+03	-3.301884E-16	-0.000000E+00
5.141327E+03	-3.307998E-16	-0.000000E+00
5.151252E+03	-3.313987E-16	-0.000000E+00
5.161178E+03	-3.319828E-16	-0.000000E+00
5.171103E+03	-3.325500E-16	-0.000000E+00
5.181028E+03	-3.330990E-16	-0.000000E+00
5.190954E+03	-3.336282E-16	-0.000000E+00
5.200879E+03	-3.341366E-16	-0.000000E+00
5.210804E+03	-3.346235E-16	-0.000000E+00
5.220730E+03	-3.350883E-16	-0.000000E+00
5.230655E+03	-3.355312E-16	-0.000000E+00
5.240580E+03	-3.359518E-16	-0.000000E+00
5.250506E+03	-3.363506E-16	-0.000000E+00
5.260431E+03	-3.367278E-16	-0.000000E+00
5.270356E+03	-3.370840E-16	-0.000000E+00
5.280282E+03	-3.374202E-16	-0.000000E+00
5.290207E+03	-3.377376E-16	-0.000000E+00
5.300132E+03	-3.380369E-16	-0.000000E+00
5.310058E+03	-3.383202E-16	-0.000000E+00
5.319983E+03	-3.385885E-16	-0.000000E+00
5.329908E+03	-3.388438E-16	-0.000000E+00
5.339834E+03	-3.390882E-16	-0.000000E+00
5.349759E+03	-3.393237E-16	-0.000000E+00
5.359684E+03	-3.395527E-16	-0.000000E+00
5.369610E+03	-3.397773E-16	-0.000000E+00
5.379535E+03	-3.400002E-16	-0.000000E+00
5.389460E+03	-3.402239E-16	-0.000000E+00
5.399386E+03	-3.404510E-16	-0.000000E+00
5.409311E+03	-3.406838E-16	-0.000000E+00
5.419237E+03	-3.409249E-16	-0.000000E+00
5.429162E+03	-3.411769E-16	-0.000000E+00
5.439087E+03	-3.414422E-16	-0.000000E+00
5.449013E+03	-3.417226E-16	-0.000000E+00
5.458938E+03	-3.420203E-16	-0.000000E+00
5.468863E+03	-3.423372E-16	-0.000000E+00
5.478789E+03	-3.426746E-16	-0.000000E+00
5.488714E+03	-3.430337E-16	-0.000000E+00
5.498639E+03	-3.434158E-16	-0.000000E+00
5.508565E+03	-3.438213E-16	-0.000000E+00
5.518490E+03	-3.442506E-16	-0.000000E+00
5.528415E+03	-3.447039E-16	-0.000000E+00
5.538341E+03	-3.451806E-16	-0.000000E+00
5.548266E+03	-3.456803E-16	-0.000000E+00
5.558191E+03	-3.462020E-16	-0.000000E+00
5.568117E+03	-3.467445E-16	-0.000000E+00
5.578042E+03	-3.473065E-16	-0.000000E+00
5.587967E+03	-3.478862E-16	-0.000000E+00
5.597893E+03	-3.484814E-16	-0.000000E+00
5.607818E+03	-3.490903E-16	-0.000000E+00
5.617743E+03	-3.497105E-16	-0.000000E+00
5.627669E+03	-3.503393E-16	-0.000000E+00
5.637594E+03	-3.509744E-16	-0.000000E+00
5.647519E+03	-3.516130E-16	-0.000000E+00
5.657445E+03	-3.522524E-16	-0.000000E+00
5.667370E+03	-3.528898E-16	-0.000000E+00
5.677295E+03	-3.535223E-16	-0.000000E+00
5.687221E+03	-3.541474E-16	-0.000000E+00
5.697146E+03	-3.547619E-16	-0.000000E+00
5.707071E+03	-3.553635E-16	-0.000000E+00
5.716997E+03	-3.559496E-16	-0.000000E+00
5.726922E+03	-3.565175E-16	-0.000000E+00
5.736847E+03	-3.570646E-16	-0.000000E+00
5.746773E+03	-3.575892E-16	-0.000000E+00
5.756698E+03	-3.580890E-16	-0.000000E+00
5.766623E+03	-3.585620E-16	-0.000000E+00
5.776549E+03	-3.590070E-16	-0.000000E+00
5.786474E+03	-3.594223E-16	-0.000000E+00
5.796399E+03	-3.598072E-16	-0.000000E+00
5.806325E+03	-3.601608E-16	-0.000000E+00
5.816250E+03	-3.604830E-16	-0.000000E+00
5.826176E+03	-3.607733E-16	-0.000000E+00
5.836101E+03	-3.610327E-16	-0.000000E+00
5.846026E+03	-3.612616E-16	-0.000000E+00
5.855952E+03	-3.614608E-16	-0.000000E+00
5.865877E+03	-3.616319E-16	-0.000000E+00
5.875802E+03	-3.617760E-16	-0.000000E+00
5.885728E+03	-3.618950E-16	-0.000000E+00
5.895653E+03	-3.619902E-16	-0.000000E+00
5.905578E+03	-3.620636E-16	-0.000000E+00
5.915504E+03	-3.621168E-16	-0.000000E+00
5.925429E+03	-3.621511E-16	-0.000000E+00
5.935354E+03	-3.621686E-16	-0.000000E+00
5.945280E+03	-3.621704E-16	-0.000000E+00
5.955205E+03	-3.621586E-16	-0.000000E+00
5.965130E+03	-3.621342E-16	-0.000000E+00
5.975056E+03	-3.620991E-16	-0.000000E+00
5.984981E+03	-3.620548E-16	-0.000000E+00
5.994906E+03	-3.620033E-16	-0.000000E+00
6.004832E+03	-3.619464E-16	-0.000000E+00
6.014757E+03	-3.618857E-16	-0.000000E+00
6.024682E+03	-3.618235E-16	-0.000000E+00
6.034608E+03	-3.617620E-16	-0.000000E+00
6.044533E+03	-3.617031E-16	-0.000000E+00
6.054458E+03	-3.616496E-16	-0.000000E+00
6.064384E+03	-3.616035E-16	-0.000000E+00
6.074309E+03	-3.615674E-16	-0.000000E+00
6.084234E+03	-3.615439E-16	-0.000000E+00
6.094160E+03	-3.615357E-16	-0.000000E+00
6.104085E+03	-3.615455E-16	-0.000000E+00
6.114010E+03	-3.615762E-16	-0.000000E+00
6.123936E+03	-3.616307E-16	-0.000000E+00
6.133861E+03	-3.617123E-16	-0.000000E+00
6.143786E+03	-3.618241E-16	-0.000000E+00
6.153712E+03	-3.619695E-16	-0.000000E+00
6.163637E+03	-3.621520E-16	-0.000000E+00
6.173562E+03	-3.623754E-16	-0.000000E+00
6.183488E+03	-3.626432E-16	-0.000000E+00
6.193413E+03	-3.629585E-16	-0.000000E+00
6.203338E+03	-3.633257E-16	-0.000000E+00
6.213264E+03	-3.637474E-16	-0.000000E+00
6.223189E+03	-3.642273E-16	-0.000000E+00
6.233115E+03	-3.647683E-16	-0.000000E+00
6.243040E+03	-3.653730E-16	-0.000000E+00
6.252965E+03	-3.660431E-16	-0.000000E+00
6.262891E+03	-3.667807E-16	-0.000000E+00
6.272816E+03	-3.675863E-16	-0.000000E+00
6.282741E+03	-3.684599E-16	-0.000000E+00
6.292667E+03	-3.694013E-16	-0.000000E+00
6.302592E+03	-3.704084E-16	-0.000000E+00
6.312517E+03	-3.714788E-16	-0.000000E+00
6.322443E+03	-3.726094E-16	-0.000000E+00
6.332368E+03	-3.737955E-16	-0.000000E+00
6.342293E+03	-3.750324E-16	-0.000000E+00
6.352219E+03	-3.763142E-16	-0.000000E+00
6.362144E+03	-3.776346E-16	-0.000000E+00
6.372069E+03	-3.789870E-16	-0.000000E+00
6.381995E+03	-3.803646E-16	-0.000000E+00
6.391920E+03	-3.817606E-16	-0.000000E+00
6.401845E+03	-3.831678E-16	-0.000000E+00
6.411771E+03	-3.845801E-16	-0.000000E+00
6.421696E+03	-3.859912E-16	-0.000000E+00
6.431621E+03	-3.873956E-16	-0.000000E+00
6.441547E+03	-3.887883E-16	-0.000000E+00
6.451472E+03	-3.901646E-16	-0.000000E+00
6.461397E+03	-3.915209E-16	-0.000000E+00
6.471323E+03	-3.928537E-16	-0.000000E+00
6.481248E+03	-3.941600E-16	-0.000000E+00
6.491173E+03	-3.954373E-16	-0.000000E+00
6.501099E+03	-3.966838E-16	-0.000000E+00
6.511024E+03	-3.978973E-16	-0.000000E+00
6.520949E+03	-3.990762E-16	-0.000000E+00
6.530875E+03	-4.002195E-16	-0.000000E+00
6.540800E+03	-4.013262E-16	-0.000000E+00
6.550725E+03	-4.023958E-16	-0.000000E+00
6.560651E+03	-4.034281E-16	-0.000000E+00
6.570576E+03	-4.044236E-16	-0.000000E+00
6.580501E+03	-4.053828E-16	-0.000000E+00
6.590427E+03	-4.063073E-16	-0.000000E+00
6.600352E+03	-4.071990E-16	-0.000000E+00
6.610277E+03	-4.080605E-16	-0.000000E+00
6.620203E+03	-4.088945E-16	-0.000000E+00
6.630128E+03	-4.097048E-16	-0.000000E+00
6.640054E+03	-4.104950E-16	-0.000000E+00
6.649979E+03	-4.112699E-16	-0.000000E+00
6.659904E+03	-4.120339E-16	-0.000000E+00
6.669830E+03	-4.127919E-16	-0.000000E+00
6.679755E+03	-4.135491E-16	-0.000000E+00
6.689680E+03	-4.143106E-16	-0.000000E+00
6.699606E+03	-4.150823E-16	-0.000000E+00
6.709531E+03	-4.158688E-16	-0.000000E+00
6.719456E+03	-4.166762E-16	-0.000000E+00
6.729382E+03	-4.175092E-16	-0.000000E+00
6.739307E+03	-4.183734E-16	-0.000000E+00
6.749232E+03	-4.192735E-16	-0.000000E+00
6.759158E+03	-4.202146E-16	-0.000000E+00
6.769083E+03	-4.212009E-16	-0.000000E+00
6.779008E+03	-4.222369E-16	-0.000000E+00
6.788934E+03	-4.233267E-16	-0.000000E+00
6.798859E+03	-4.244736E-16	-0.000000E+00
6.808784E+03	-4.256813E-16	-0.000000E+00
6.818710E+03	-4.269527E-16	-0.000000E+00
6.828635E+03	-4.282904E-16	-0.000000E+00
6.838560E+03	-4.296963E-16	-0.000000E+00
6.848486E+03	-4.311722E-16	-0.000000E+00
6.858411E+03	-4.327190E-16	-0.000000E+00
6.868336E+03	-4.343377E-16	-0.000000E+00
6.878262E+03	-4.360280E-16	-0.000000E+00
6.888187E+03	-4.377894E-16	-0.000000E+00
6.898112E+03	-4.396213E-16	-0.000000E+00
6.908038E+03	-4.415218E-16	-0.000000E+00
6.917963E+03	-4.434890E-16	-0.000000E+00
6.927888E+03	-4.455207E-16	-0.000000E+00
6.937814E+03	-4.476137E-16	-0.000000E+00
6.947739E+03	-4.497649E-16	-0.000000E+00
6.957664E+03	-4.519704E-16	-0.000000E+00
6.967590E+03	-4.542265E-16	-0.000000E+00
6.977515E+03	-4.565287E-16	-0.000000E+00
6.987440E+03	-4.588727E-16	-0.000000E+00
6.997366E+03	-4.612532E-16	-0.000000E+00
7.007291E+03	-4.636655E-16	-0.000000E+00
7.017216E+03	-4.661042E-16	-0.000000E+00
7.027142E+03	-4.685645E-16	-0.000000E+00
7.037067E+03	-4.710404E-16	-0.000000E+00
7.046993E+03	-4.735269E-16	-0.000000E+00
7.056918E+03	-4.760186E-16	-0.000000E+00
7.066843E+03	-4.785101E-16	-0.000000E+00
7.076769E+03	-4.809963E-16	-0.000000E+00
7.086694E+03	-4.834718E-16	-0.000000E+00
7.096619E+03	-4.859324E-16	-0.000000E+00
7.106545E+03	-4.883730E-16	-0.000000E+00
7.116470E+03	-4.907892E-16	-0.000000E+00
7.126395E+03	-4.931770E-16	-0.000000E+00
7.136321E+03	-4.955329E-16	-0.000000E+00
7.146246E+03	-4.978530E-16	-0.000000E+00
7.156171E+03	-5.001346E-16	-0.000000E+00
7.166097E+03	-5.023750E-16	-0.000000E+00
7.176022E+03	-5.045716E-16	-0.000000E+00
7.185947E+03	-5.067227E-16	-0.000000E+00
7.195873E+03	-5.088265E-16	-0.000000E+00
7.205798E+03	-5.108818E-16	-0.000000E+00
7.215723E+03	-5.128878E-16	-0.000000E+00
7.225649E+03	-5.148440E-16	-0.000000E+00
7.235574E+03	-5.167501E-16	-0.000000E+00
7.245499E+03	-5.186063E-16	-0.000000E+00
7.255425E+03	-5.204130E-16	-0.000000E+00
7.265350E+03	-5.221708E-16	-0.000000E+00
7.275275E+03	-5.238807E-16	-0.000000E+00
7.285201E+03	-5.255444E-16	-0.000000E+00
7.295126E+03	-5.271628E-16	-0.000000E+00
7.305051E+03	-5.287382E-16	-0.000000E+00
7.314977E+03	-5.302721E-16	-0.000000E+00
7.324902E+03	-5.317672E-16	-0.000000E+00
7.334827E+03	-5.332256E-16	-0.000000E+00
7.344753E+03	-5.346501E-16	-0.000000E+00
7.354678E+03	-5.360430E-16	-0.000000E+00
7.364603E+03	-5.374076E-16	-0.000000E+00
7.374529E+03	-5.387467E-16	-0.000000E+00
7.384454E+03	-5.400637E-16	-0.000000E+00
7.394379E+03	-5.413613E-16	-0.000000E+00
7.404305E+03	-5.426431E-16	-0.000000E+00
7.414230E+03	-5.439127E-16	-0.000000E+00
7.424156E+03	-5.451728E-16	-0.000000E+00
7.434081E+03	-5.464274E-16	-0.000000E+00
7.444006E+03	-5.476794E-16	-0.000000E+00
7.453932E+03	-5.489326E-16	-0.000000E+00
