#wls	flux	fluxerr
1.588055E+03	1.068885E-16	2.930344E-18
1.627756E+03	1.091853E-16	2.990079E-18
1.667457E+03	1.113744E-16	3.046659E-18
1.707159E+03	1.134387E-16	3.099623E-18
1.746860E+03	1.153850E-16	3.149159E-18
1.786561E+03	1.171525E-16	3.193618E-18
1.826263E+03	1.186745E-16	3.231197E-18
1.865964E+03	1.198510E-16	3.259194E-18
1.905666E+03	1.206197E-16	3.275952E-18
1.945367E+03	1.208757E-16	3.278661E-18
1.985068E+03	1.206715E-16	3.268797E-18
2.024770E+03	1.201922E-16	3.251415E-18
2.064471E+03	1.199122E-16	3.239365E-18
2.104172E+03	1.205616E-16	3.252315E-18
2.143874E+03	1.228946E-16	3.310473E-18
2.183575E+03	1.273879E-16	3.426460E-18
2.223277E+03	1.339842E-16	3.598470E-18
2.262978E+03	1.422488E-16	3.814572E-18
2.302679E+03	1.517273E-16	4.062373E-18
2.342381E+03	1.619674E-16	4.329603E-18
2.382082E+03	1.727521E-16	4.610349E-18
2.421783E+03	1.839375E-16	4.900681E-18
2.461485E+03	1.954803E-16	5.199359E-18
2.501186E+03	2.073983E-16	5.506782E-18
2.540887E+03	2.196951E-16	5.822962E-18
2.580589E+03	2.324287E-16	6.149345E-18
2.620290E+03	2.456197E-16	6.486381E-18
2.659992E+03	2.592637E-16	6.833854E-18
2.699693E+03	2.734167E-16	7.193132E-18
2.739394E+03	2.880389E-16	7.563056E-18
2.779096E+03	3.031677E-16	7.944499E-18
2.818797E+03	3.187791E-16	8.336716E-18
2.858498E+03	3.348399E-16	8.738718E-18
2.898200E+03	3.513424E-16	9.150197E-18
2.937901E+03	3.683210E-16	9.571929E-18
2.977602E+03	3.858846E-16	1.000662E-17
2.987528E+03	3.903936E-16	1.011799E-17
2.997453E+03	3.949383E-16	1.023014E-17
3.007378E+03	3.995339E-16	1.034345E-17
3.017304E+03	4.041809E-16	1.045795E-17
3.027229E+03	4.089024E-16	1.057421E-17
3.037155E+03	4.137063E-16	1.069245E-17
3.047080E+03	4.185725E-16	1.081213E-17
3.057005E+03	4.235390E-16	1.093424E-17
3.066931E+03	4.285836E-16	1.105819E-17
3.076856E+03	4.337178E-16	1.118429E-17
3.086781E+03	4.389366E-16	1.131239E-17
3.096707E+03	4.442514E-16	1.144280E-17
3.106632E+03	4.496408E-16	1.157494E-17
3.116557E+03	4.551331E-16	1.170954E-17
3.126483E+03	4.606903E-16	1.184563E-17
3.136408E+03	4.663576E-16	1.198435E-17
3.146333E+03	4.721134E-16	1.212515E-17
3.156259E+03	4.779532E-16	1.226791E-17
3.166184E+03	4.838888E-16	1.241293E-17
3.176109E+03	4.899318E-16	1.256050E-17
3.186035E+03	4.960612E-16	1.271007E-17
3.195960E+03	5.022886E-16	1.286194E-17
3.205885E+03	5.086093E-16	1.301598E-17
3.215811E+03	5.150508E-16	1.317290E-17
3.225736E+03	5.215919E-16	1.333213E-17
3.235661E+03	5.282280E-16	1.349356E-17
3.245587E+03	5.349858E-16	1.365787E-17
3.255512E+03	5.418446E-16	1.382452E-17
3.265437E+03	5.488149E-16	1.399376E-17
3.275363E+03	5.558915E-16	1.416548E-17
3.285288E+03	5.630849E-16	1.433992E-17
3.295213E+03	5.703896E-16	1.451694E-17
3.305139E+03	5.778157E-16	1.469678E-17
3.315064E+03	5.853421E-16	1.487892E-17
3.324989E+03	5.929941E-16	1.506397E-17
3.334915E+03	6.007506E-16	1.525141E-17
3.344840E+03	6.086210E-16	1.544146E-17
3.354765E+03	6.165995E-16	1.563398E-17
3.364691E+03	6.246655E-16	1.582842E-17
3.374616E+03	6.328432E-16	1.602541E-17
3.384541E+03	6.410970E-16	1.622402E-17
3.394467E+03	6.494513E-16	1.642489E-17
3.404392E+03	6.578711E-16	1.662710E-17
3.414318E+03	6.663660E-16	1.683091E-17
3.424243E+03	6.749017E-16	1.703544E-17
3.434168E+03	6.834883E-16	1.724095E-17
3.444094E+03	6.921070E-16	1.744695E-17
3.454019E+03	7.007253E-16	1.765263E-17
3.463944E+03	7.093400E-16	1.785791E-17
3.473870E+03	7.179202E-16	1.806200E-17
3.483795E+03	7.264362E-16	1.826416E-17
3.493720E+03	7.348873E-16	1.846438E-17
3.503646E+03	7.432319E-16	1.866161E-17
3.513571E+03	7.514724E-16	1.885592E-17
3.523496E+03	7.595551E-16	1.904596E-17
3.533422E+03	7.674988E-16	1.923222E-17
3.543347E+03	7.752541E-16	1.941347E-17
3.553272E+03	7.828130E-16	1.958951E-17
3.563198E+03	7.901564E-16	1.975987E-17
3.573123E+03	7.972533E-16	1.992380E-17
3.583048E+03	8.040749E-16	2.008057E-17
3.592974E+03	8.106309E-16	2.023046E-17
3.602899E+03	8.169207E-16	2.037346E-17
3.612824E+03	8.229564E-16	2.050987E-17
3.619494E+03	5.877359E-16	1.464088E-17
3.623891E+03	5.953587E-16	1.482624E-17
3.628278E+03	6.201635E-16	1.543923E-17
3.632665E+03	6.482498E-16	1.613352E-17
3.637062E+03	6.775108E-16	1.685659E-17
3.641449E+03	7.134243E-16	1.774468E-17
3.645836E+03	7.461387E-16	1.855268E-17
3.650223E+03	7.706766E-16	1.915692E-17
3.654620E+03	7.903733E-16	1.964047E-17
3.659007E+03	8.091941E-16	2.010197E-17
3.663394E+03	8.235790E-16	2.045301E-17
3.667791E+03	8.432331E-16	2.093463E-17
3.672178E+03	8.569991E-16	2.126982E-17
3.676565E+03	8.704235E-16	2.159632E-17
3.680952E+03	8.781765E-16	2.178194E-17
3.685349E+03	8.783650E-16	2.177984E-17
3.689736E+03	8.765976E-16	2.172927E-17
3.694123E+03	8.731575E-16	2.163727E-17
3.698520E+03	8.718627E-16	2.159845E-17
3.702907E+03	8.772263E-16	2.172456E-17
3.707294E+03	8.954080E-16	2.216792E-17
3.711681E+03	9.102498E-16	2.252833E-17
3.716078E+03	9.236769E-16	2.285349E-17
3.720465E+03	9.260237E-16	2.290439E-17
3.724852E+03	9.250548E-16	2.287326E-17
3.729249E+03	9.128708E-16	2.256491E-17
3.733636E+03	9.040001E-16	2.233863E-17
3.738023E+03	8.993313E-16	2.221628E-17
3.742410E+03	9.046493E-16	2.234063E-17
3.746807E+03	9.058287E-16	2.236270E-17
3.751194E+03	9.054595E-16	2.234655E-17
3.755581E+03	9.003775E-16	2.221412E-17
3.759977E+03	8.969712E-16	2.212309E-17
3.764364E+03	8.930266E-16	2.201884E-17
3.768751E+03	8.997454E-16	2.217749E-17
3.773138E+03	9.012136E-16	2.220665E-17
3.777535E+03	9.092997E-16	2.239878E-17
3.781922E+03	9.090616E-16	2.238582E-17
3.786309E+03	9.036299E-16	2.224500E-17
3.790706E+03	8.958844E-16	2.204731E-17
3.795093E+03	8.925093E-16	2.195727E-17
3.799480E+03	8.813377E-16	2.167553E-17
3.803867E+03	8.810333E-16	2.166114E-17
3.808264E+03	8.845662E-16	2.174105E-17
3.812651E+03	8.879427E-16	2.181707E-17
3.817038E+03	8.945237E-16	2.197176E-17
3.821435E+03	9.037101E-16	2.219029E-17
3.825822E+03	9.056977E-16	2.223198E-17
3.830209E+03	9.092739E-16	2.231262E-17
3.834596E+03	9.118368E-16	2.236834E-17
3.838993E+03	9.097354E-16	2.230961E-17
3.843380E+03	8.995040E-16	2.205163E-17
3.847767E+03	8.937161E-16	2.190270E-17
3.852164E+03	8.893884E-16	2.178961E-17
3.856551E+03	8.833432E-16	2.163455E-17
3.860938E+03	8.874339E-16	2.172774E-17
3.865325E+03	8.949272E-16	2.190414E-17
3.869722E+03	9.038563E-16	2.211554E-17
3.874109E+03	8.994971E-16	2.200177E-17
3.878496E+03	8.908439E-16	2.178308E-17
3.882883E+03	8.777334E-16	2.145556E-17
3.887280E+03	8.599102E-16	2.101307E-17
3.891667E+03	8.439568E-16	2.061655E-17
3.896054E+03	8.399030E-16	2.051088E-17
3.900451E+03	8.364529E-16	2.041999E-17
3.904838E+03	8.266005E-16	2.017292E-17
3.909225E+03	8.246126E-16	2.011787E-17
3.913612E+03	8.198525E-16	1.999524E-17
3.918009E+03	8.194250E-16	1.997831E-17
3.922396E+03	8.254042E-16	2.011754E-17
3.926783E+03	8.529054E-16	2.078106E-17
3.931180E+03	8.792394E-16	2.141569E-17
3.935567E+03	8.981543E-16	2.186928E-17
3.939954E+03	9.056896E-16	2.204556E-17
3.944341E+03	9.025396E-16	2.196172E-17
3.948738E+03	8.756451E-16	2.130032E-17
3.953125E+03	8.470149E-16	2.059715E-17
3.957512E+03	8.274088E-16	2.011380E-17
3.961909E+03	8.073786E-16	1.962045E-17
3.966296E+03	7.889378E-16	1.916603E-17
3.970683E+03	7.824705E-16	1.900270E-17
3.975070E+03	7.717500E-16	1.873620E-17
3.979466E+03	7.527148E-16	1.826807E-17
3.983853E+03	7.390744E-16	1.793114E-17
3.988240E+03	7.174333E-16	1.740038E-17
3.992637E+03	6.859630E-16	1.663164E-17
3.997024E+03	6.549262E-16	1.587391E-17
4.001411E+03	6.280997E-16	1.521870E-17
4.005798E+03	5.945073E-16	1.440002E-17
4.010195E+03	5.634612E-16	1.364353E-17
4.014582E+03	5.290383E-16	1.280581E-17
4.018969E+03	4.940550E-16	1.195507E-17
4.023366E+03	4.546345E-16	1.099755E-17
4.027753E+03	4.200025E-16	1.015646E-17
4.032140E+03	3.900664E-16	9.429437E-18
4.036527E+03	3.686128E-16	8.907880E-18
4.040924E+03	3.683472E-16	8.898517E-18
4.045311E+03	3.795008E-16	9.164939E-18
4.049698E+03	3.985526E-16	9.621862E-18
4.054095E+03	4.271130E-16	1.030796E-17
4.058482E+03	4.662157E-16	1.124794E-17
4.062869E+03	5.063325E-16	1.221177E-17
4.067256E+03	5.506115E-16	1.327530E-17
4.071653E+03	6.040671E-16	1.455929E-17
4.076040E+03	6.622714E-16	1.595686E-17
4.080427E+03	7.153296E-16	1.722955E-17
4.084824E+03	7.709209E-16	1.856237E-17
4.089211E+03	8.189189E-16	1.971154E-17
4.093598E+03	8.521139E-16	2.050376E-17
4.097985E+03	8.766395E-16	2.108691E-17
4.102382E+03	9.050066E-16	2.176203E-17
4.106769E+03	9.302011E-16	2.236045E-17
4.111156E+03	9.642923E-16	2.317227E-17
4.115553E+03	1.002427E-15	2.408065E-17
4.119940E+03	1.051465E-15	2.525028E-17
4.124327E+03	1.080070E-15	2.592862E-17
4.128714E+03	1.089581E-15	2.614827E-17
4.133111E+03	1.083401E-15	2.599130E-17
4.137498E+03	1.065933E-15	2.556375E-17
4.141885E+03	1.032559E-15	2.475514E-17
4.146282E+03	1.002298E-15	2.402166E-17
4.150669E+03	9.767967E-16	2.340271E-17
4.155056E+03	9.504755E-16	2.276453E-17
4.159443E+03	9.240135E-16	2.212340E-17
4.163840E+03	9.009286E-16	2.156351E-17
4.168227E+03	8.776701E-16	2.099985E-17
4.172614E+03	8.531411E-16	2.040617E-17
4.177011E+03	8.382291E-16	2.004282E-17
4.181398E+03	8.302893E-16	1.984638E-17
4.185785E+03	8.274212E-16	1.977126E-17
4.190172E+03	8.347694E-16	1.994023E-17
4.194568E+03	8.531503E-16	2.037251E-17
4.198955E+03	8.684012E-16	2.072981E-17
4.203342E+03	8.830447E-16	2.107237E-17
4.207739E+03	8.946538E-16	2.134230E-17
4.212126E+03	8.997606E-16	2.145700E-17
4.216513E+03	8.971952E-16	2.138872E-17
4.220900E+03	8.934623E-16	2.129266E-17
4.225297E+03	8.873304E-16	2.113950E-17
4.229684E+03	8.862826E-16	2.110753E-17
4.234071E+03	8.965783E-16	2.134565E-17
4.238468E+03	9.026974E-16	2.148419E-17
4.242855E+03	9.117042E-16	2.169136E-17
4.247242E+03	9.258734E-16	2.202118E-17
4.251629E+03	9.365769E-16	2.226837E-17
4.256026E+03	9.411857E-16	2.237052E-17
4.260413E+03	9.537798E-16	2.266236E-17
4.264800E+03	9.709587E-16	2.306290E-17
4.269197E+03	9.914908E-16	2.354278E-17
4.273584E+03	1.010830E-15	2.399404E-17
4.277971E+03	1.033914E-15	2.453388E-17
4.282358E+03	1.046057E-15	2.481380E-17
4.286755E+03	1.047121E-15	2.483080E-17
4.291142E+03	1.041128E-15	2.468054E-17
4.295529E+03	1.042678E-15	2.470911E-17
4.299926E+03	1.041625E-15	2.467600E-17
4.304313E+03	1.051341E-15	2.489795E-17
4.308700E+03	1.065716E-15	2.523005E-17
4.313087E+03	1.081008E-15	2.558363E-17
4.317484E+03	1.076217E-15	2.546184E-17
4.321871E+03	1.070576E-15	2.532002E-17
4.326258E+03	1.058220E-15	2.501957E-17
4.330655E+03	1.042470E-15	2.463906E-17
4.335042E+03	1.027005E-15	2.426554E-17
4.339429E+03	1.014368E-15	2.395909E-17
4.343816E+03	1.003811E-15	2.370195E-17
4.348213E+03	9.902486E-16	2.337402E-17
4.352600E+03	9.789295E-16	2.309926E-17
4.356987E+03	9.680941E-16	2.283609E-17
4.361384E+03	9.607128E-16	2.265453E-17
4.365771E+03	9.422929E-16	2.221289E-17
4.370158E+03	9.382642E-16	2.211068E-17
4.374545E+03	9.420706E-16	2.219312E-17
4.378942E+03	9.458460E-16	2.227476E-17
4.383329E+03	9.558632E-16	2.250331E-17
4.387716E+03	9.744136E-16	2.293254E-17
4.392113E+03	9.888202E-16	2.326399E-17
4.396500E+03	9.957453E-16	2.341929E-17
4.400887E+03	1.009507E-15	2.373522E-17
4.405274E+03	1.020788E-15	2.399266E-17
4.409670E+03	1.039960E-15	2.443530E-17
4.414057E+03	1.056258E-15	2.481018E-17
4.418444E+03	1.074068E-15	2.522032E-17
4.422841E+03	1.095978E-15	2.572644E-17
4.427228E+03	1.127425E-15	2.645605E-17
4.431615E+03	1.154595E-15	2.708483E-17
4.436002E+03	1.182331E-15	2.772652E-17
4.440399E+03	1.213127E-15	2.843951E-17
4.444786E+03	1.230070E-15	2.882740E-17
4.449173E+03	1.233677E-15	2.890260E-17
4.453570E+03	1.235055E-15	2.892554E-17
4.457957E+03	1.236235E-15	2.894387E-17
4.462344E+03	1.226753E-15	2.871264E-17
4.466731E+03	1.215592E-15	2.844227E-17
4.471128E+03	1.202096E-15	2.811746E-17
4.475515E+03	1.180222E-15	2.759698E-17
4.479902E+03	1.148258E-15	2.684099E-17
4.484299E+03	1.120977E-15	2.619489E-17
4.488686E+03	1.106558E-15	2.584969E-17
4.493073E+03	1.097486E-15	2.562959E-17
4.497460E+03	1.100533E-15	2.569259E-17
4.501857E+03	1.105652E-15	2.580387E-17
4.506244E+03	1.108568E-15	2.586371E-17
4.510631E+03	1.101688E-15	2.569503E-17
4.515028E+03	1.101905E-15	2.569196E-17
4.519415E+03	1.093834E-15	2.549570E-17
4.523802E+03	1.091382E-15	2.543053E-17
4.528189E+03	1.096530E-15	2.554242E-17
4.532586E+03	1.104739E-15	2.572552E-17
4.536973E+03	1.117129E-15	2.600587E-17
4.541360E+03	1.136832E-15	2.645623E-17
4.545757E+03	1.164740E-15	2.709719E-17
4.550144E+03	1.192427E-15	2.773262E-17
4.554531E+03	1.220912E-15	2.838624E-17
4.558918E+03	1.237810E-15	2.877014E-17
4.563315E+03	1.260117E-15	2.927947E-17
4.567702E+03	1.277486E-15	2.967383E-17
4.572089E+03	1.288859E-15	2.992871E-17
4.576486E+03	1.293346E-15	3.002357E-17
4.580873E+03	1.298491E-15	3.013368E-17
4.585260E+03	1.292421E-15	2.998357E-17
4.589647E+03	1.279585E-15	2.967663E-17
4.594044E+03	1.271099E-15	2.947073E-17
4.598431E+03	1.264786E-15	2.931534E-17
4.602818E+03	1.257379E-15	2.913473E-17
4.607215E+03	1.251157E-15	2.898168E-17
4.611602E+03	1.249288E-15	2.892955E-17
4.615989E+03	1.255343E-15	2.906090E-17
4.620376E+03	1.266814E-15	2.931754E-17
4.624772E+03	1.284201E-15	2.971087E-17
4.629159E+03	1.300831E-15	3.008652E-17
4.633546E+03	1.319348E-15	3.050556E-17
4.637943E+03	1.325741E-15	3.064410E-17
4.642330E+03	1.324927E-15	3.061608E-17
4.646717E+03	1.320276E-15	3.049944E-17
4.651104E+03	1.314862E-15	3.036525E-17
4.655501E+03	1.307459E-15	3.018524E-17
4.659888E+03	1.307924E-15	3.018697E-17
4.664275E+03	1.312025E-15	3.027262E-17
4.668672E+03	1.316292E-15	3.036202E-17
4.673059E+03	1.317381E-15	3.037815E-17
4.677446E+03	1.323367E-15	3.050714E-17
4.681833E+03	1.329087E-15	3.062997E-17
4.686230E+03	1.331166E-15	3.066883E-17
4.690617E+03	1.334401E-15	3.073434E-17
4.695004E+03	1.335251E-15	3.074492E-17
4.699401E+03	1.333979E-15	3.070666E-17
4.703788E+03	1.328234E-15	3.056551E-17
4.708175E+03	1.319702E-15	3.036034E-17
4.712562E+03	1.307455E-15	3.006989E-17
4.716959E+03	1.303719E-15	2.997527E-17
4.721346E+03	1.301636E-15	2.991875E-17
4.725733E+03	1.303362E-15	2.994983E-17
4.730130E+03	1.315430E-15	3.021845E-17
4.734517E+03	1.331045E-15	3.056843E-17
4.738904E+03	1.348121E-15	3.095178E-17
4.743291E+03	1.360258E-15	3.122155E-17
4.747688E+03	1.365630E-15	3.133596E-17
4.752075E+03	1.365461E-15	3.132324E-17
4.756462E+03	1.363997E-15	3.128083E-17
4.760859E+03	1.361534E-15	3.121557E-17
4.765246E+03	1.351669E-15	3.098073E-17
4.769633E+03	1.333471E-15	3.055508E-17
4.774020E+03	1.311150E-15	3.003527E-17
4.778417E+03	1.279794E-15	2.930884E-17
4.782804E+03	1.246868E-15	2.854691E-17
4.787191E+03	1.218250E-15	2.788401E-17
4.791578E+03	1.196861E-15	2.738693E-17
4.795975E+03	1.177757E-15	2.694241E-17
4.800362E+03	1.172960E-15	2.682536E-17
4.804749E+03	1.164739E-15	2.663011E-17
4.809146E+03	1.170034E-15	2.674392E-17
4.813533E+03	1.180709E-15	2.698064E-17
4.817920E+03	1.201052E-15	2.743812E-17
4.822307E+03	1.215648E-15	2.776413E-17
4.826704E+03	1.236924E-15	2.824250E-17
4.831091E+03	1.245773E-15	2.843697E-17
4.835478E+03	1.252295E-15	2.857826E-17
4.839874E+03	1.246385E-15	2.843586E-17
4.844261E+03	1.242101E-15	2.833067E-17
4.848648E+03	1.242434E-15	2.833084E-17
4.853035E+03	1.246622E-15	2.841890E-17
4.857432E+03	1.256793E-15	2.864328E-17
4.861819E+03	1.273880E-15	2.902517E-17
4.866206E+03	1.291132E-15	2.941066E-17
4.870603E+03	1.303364E-15	2.968162E-17
4.874990E+03	1.316493E-15	2.997291E-17
4.879377E+03	1.321141E-15	3.007103E-17
4.883764E+03	1.326386E-15	3.018271E-17
4.888161E+03	1.328203E-15	3.021636E-17
4.892548E+03	1.327623E-15	3.019551E-17
4.896935E+03	1.321551E-15	3.004983E-17
4.901332E+03	1.316974E-15	2.993821E-17
4.905719E+03	1.316519E-15	2.992037E-17
4.910106E+03	1.316395E-15	2.991009E-17
4.914493E+03	1.318964E-15	2.996101E-17
4.918890E+03	1.325791E-15	3.010861E-17
4.923277E+03	1.330752E-15	3.021381E-17
4.927664E+03	1.328956E-15	3.016561E-17
4.932061E+03	1.329322E-15	3.016649E-17
4.936448E+03	1.325124E-15	3.006390E-17
4.940835E+03	1.322755E-15	3.000284E-17
4.945222E+03	1.327973E-15	3.011389E-17
4.949619E+03	1.326898E-15	3.008223E-17
4.954006E+03	1.326886E-15	3.007471E-17
4.958393E+03	1.323476E-15	2.999023E-17
4.962790E+03	1.314471E-15	2.977903E-17
4.967177E+03	1.297472E-15	2.938692E-17
4.971564E+03	1.284831E-15	2.909372E-17
4.975951E+03	1.272588E-15	2.880966E-17
4.980348E+03	1.258210E-15	2.847745E-17
4.984735E+03	1.244463E-15	2.815968E-17
4.989122E+03	1.233543E-15	2.790607E-17
4.993519E+03	1.229114E-15	2.779938E-17
4.997906E+03	1.220420E-15	2.759634E-17
5.002293E+03	1.222713E-15	2.764180E-17
5.006680E+03	1.223707E-15	2.765789E-17
5.011077E+03	1.228262E-15	2.775445E-17
5.015464E+03	1.232349E-15	2.784043E-17
5.019851E+03	1.241429E-15	2.803918E-17
5.024248E+03	1.244480E-15	2.810170E-17
5.028635E+03	1.252459E-15	2.827547E-17
5.033022E+03	1.255740E-15	2.834315E-17
5.037409E+03	1.262416E-15	2.848745E-17
5.041806E+03	1.269191E-15	2.863390E-17
5.046193E+03	1.277995E-15	2.882611E-17
5.050580E+03	1.288796E-15	2.906329E-17
5.054976E+03	1.304159E-15	2.940321E-17
5.059363E+03	1.311359E-15	2.955903E-17
5.063750E+03	1.311730E-15	2.956091E-17
5.068137E+03	1.310299E-15	2.952222E-17
5.072534E+03	1.304604E-15	2.938749E-17
5.076921E+03	1.295676E-15	2.918005E-17
5.081308E+03	1.290077E-15	2.904767E-17
5.085705E+03	1.283877E-15	2.890183E-17
5.090092E+03	1.279873E-15	2.880554E-17
5.094479E+03	1.279731E-15	2.879619E-17
5.098866E+03	1.282919E-15	2.886177E-17
5.103263E+03	1.282307E-15	2.884189E-17
5.107650E+03	1.290220E-15	2.901374E-17
5.112037E+03	1.297431E-15	2.916977E-17
5.116434E+03	1.299046E-15	2.919995E-17
5.120821E+03	1.300225E-15	2.922036E-17
5.125208E+03	1.305333E-15	2.932906E-17
5.129595E+03	1.311405E-15	2.945939E-17
5.133992E+03	1.321404E-15	2.967788E-17
5.138379E+03	1.330769E-15	2.988208E-17
5.142766E+03	1.335170E-15	2.997476E-17
5.147163E+03	1.345397E-15	3.019820E-17
5.151550E+03	1.356587E-15	3.044318E-17
5.155937E+03	1.366275E-15	3.065442E-17
5.160324E+03	1.375397E-15	3.085286E-17
5.164721E+03	1.388511E-15	3.114079E-17
5.169108E+03	1.396728E-15	3.131883E-17
5.173495E+03	1.400215E-15	3.139078E-17
5.177892E+03	1.403400E-15	3.145595E-17
5.182279E+03	1.410779E-15	3.161510E-17
5.186666E+03	1.417822E-15	3.176671E-17
5.191053E+03	1.421035E-15	3.183246E-17
5.195450E+03	1.421549E-15	3.183777E-17
5.199837E+03	1.421396E-15	3.182817E-17
5.204224E+03	1.419743E-15	3.178503E-17
5.208621E+03	1.414827E-15	3.166886E-17
5.213008E+03	1.408511E-15	3.152146E-17
5.217395E+03	1.403725E-15	3.140837E-17
5.221782E+03	1.396209E-15	3.123428E-17
5.226179E+03	1.388692E-15	3.106024E-17
5.229871E+03	1.383347E-15	3.093581E-17
5.234258E+03	1.379888E-15	3.085266E-17
5.238645E+03	1.378059E-15	3.080602E-17
5.243042E+03	1.380387E-15	3.085233E-17
5.247429E+03	1.383546E-15	3.091720E-17
5.251816E+03	1.383741E-15	3.091587E-17
5.256213E+03	1.380542E-15	3.083873E-17
5.260600E+03	1.376410E-15	3.074082E-17
5.264987E+03	1.370779E-15	3.060952E-17
5.269384E+03	1.360624E-15	3.037725E-17
5.273771E+03	1.354494E-15	3.023494E-17
5.278158E+03	1.348097E-15	3.008675E-17
5.282555E+03	1.342331E-15	2.995272E-17
5.286942E+03	1.335034E-15	2.978462E-17
5.291329E+03	1.333291E-15	2.974047E-17
5.295726E+03	1.330781E-15	2.967926E-17
5.300113E+03	1.331064E-15	2.968037E-17
5.304500E+03	1.329915E-15	2.964960E-17
5.308896E+03	1.328300E-15	2.960844E-17
5.313283E+03	1.324923E-15	2.952806E-17
5.317670E+03	1.322774E-15	2.947510E-17
5.322067E+03	1.325510E-15	2.953101E-17
5.326454E+03	1.327845E-15	2.957802E-17
5.330841E+03	1.330844E-15	2.963980E-17
5.335238E+03	1.335104E-15	2.972966E-17
5.339625E+03	1.338797E-15	2.980691E-17
5.344012E+03	1.340827E-15	2.984713E-17
5.348399E+03	1.342857E-15	2.988735E-17
5.352796E+03	1.346810E-15	2.997038E-17
5.357183E+03	1.350264E-15	3.004231E-17
5.361570E+03	1.355211E-15	3.014746E-17
5.365967E+03	1.357665E-15	3.019713E-17
5.370354E+03	1.361081E-15	3.026821E-17
5.374741E+03	1.364827E-15	3.034664E-17
5.379138E+03	1.367608E-15	3.040360E-17
5.383525E+03	1.369691E-15	3.044505E-17
5.387912E+03	1.369049E-15	3.042598E-17
5.392309E+03	1.367310E-15	3.038254E-17
5.396696E+03	1.362053E-15	3.026097E-17
5.401083E+03	1.354139E-15	3.008047E-17
5.405480E+03	1.341346E-15	2.979168E-17
5.409867E+03	1.330912E-15	2.955537E-17
5.414254E+03	1.316960E-15	2.924106E-17
5.418651E+03	1.302412E-15	2.891364E-17
5.423038E+03	1.288795E-15	2.860701E-17
