#wls	flux	fluxerr
1.588055E+03	7.584794E-17	7.819550E-19
1.627756E+03	7.769928E-17	7.994539E-19
1.667457E+03	7.947653E-17	8.160778E-19
1.707159E+03	8.119815E-17	8.320172E-19
1.746860E+03	8.283493E-17	8.469738E-19
1.786561E+03	8.436305E-17	8.607069E-19
1.826263E+03	8.572138E-17	8.725988E-19
1.865964E+03	8.684558E-17	8.820047E-19
1.905666E+03	8.766412E-17	8.882140E-19
1.945367E+03	8.812908E-17	8.907623E-19
1.985068E+03	8.825046E-17	8.897752E-19
2.024770E+03	8.814966E-17	8.864986E-19
2.064471E+03	8.820163E-17	8.847099E-19
2.104172E+03	8.892384E-17	8.895733E-19
2.143874E+03	9.090581E-17	9.069144E-19
2.183575E+03	9.449659E-17	9.400983E-19
2.223277E+03	9.967326E-17	9.887560E-19
2.262978E+03	1.061517E-16	1.049932E-18
2.302679E+03	1.135767E-16	1.119998E-18
2.342381E+03	1.216573E-16	1.195995E-18
2.382082E+03	1.302092E-16	1.276042E-18
2.421783E+03	1.391356E-16	1.359134E-18
2.461485E+03	1.484022E-16	1.444884E-18
2.501186E+03	1.580190E-16	1.533341E-18
2.540887E+03	1.680105E-16	1.624687E-18
2.580589E+03	1.783806E-16	1.718904E-18
2.620290E+03	1.891888E-16	1.816506E-18
2.659992E+03	2.004188E-16	1.917272E-18
2.699693E+03	2.121065E-16	2.021477E-18
2.739394E+03	2.242568E-16	2.129099E-18
2.779096E+03	2.368672E-16	2.240042E-18
2.818797E+03	2.499278E-16	2.354138E-18
2.858498E+03	2.634570E-16	2.471488E-18
2.898200E+03	2.774654E-16	2.592114E-18
2.937901E+03	2.920149E-16	2.716513E-18
2.977602E+03	3.071927E-16	2.845405E-18
2.987528E+03	3.111023E-16	2.878476E-18
2.997453E+03	3.150552E-16	2.911857E-18
3.007378E+03	3.190619E-16	2.945644E-18
3.017304E+03	3.231344E-16	2.979945E-18
3.027229E+03	3.272541E-16	3.014586E-18
3.037155E+03	3.314624E-16	3.049946E-18
3.047080E+03	3.357450E-16	3.085891E-18
3.057005E+03	3.401054E-16	3.122451E-18
3.066931E+03	3.445392E-16	3.159582E-18
3.076856E+03	3.490655E-16	3.197456E-18
3.086781E+03	3.536800E-16	3.236032E-18
3.096707E+03	3.583671E-16	3.275162E-18
3.106632E+03	3.631458E-16	3.315020E-18
3.116557E+03	3.680123E-16	3.355565E-18
3.126483E+03	3.729624E-16	3.396757E-18
3.136408E+03	3.779925E-16	3.438560E-18
3.146333E+03	3.831216E-16	3.481143E-18
3.156259E+03	3.883230E-16	3.524262E-18
3.166184E+03	3.936270E-16	3.568187E-18
3.176109E+03	3.990184E-16	3.612779E-18
3.186035E+03	4.045048E-16	3.658101E-18
3.195960E+03	4.100935E-16	3.704216E-18
3.205885E+03	4.157695E-16	3.750986E-18
3.215811E+03	4.215400E-16	3.798473E-18
3.225736E+03	4.274013E-16	3.846639E-18
3.235661E+03	4.333716E-16	3.895645E-18
3.245587E+03	4.394358E-16	3.945352E-18
3.255512E+03	4.456011E-16	3.995820E-18
3.265437E+03	4.518633E-16	4.047009E-18
3.275363E+03	4.582295E-16	4.098977E-18
3.285288E+03	4.646954E-16	4.151684E-18
3.295213E+03	4.712570E-16	4.205090E-18
3.305139E+03	4.779103E-16	4.259155E-18
3.315064E+03	4.846620E-16	4.313936E-18
3.324989E+03	4.915080E-16	4.369393E-18
3.334915E+03	4.984441E-16	4.425485E-18
3.344840E+03	5.054560E-16	4.482082E-18
3.354765E+03	5.125609E-16	4.539334E-18
3.364691E+03	5.197338E-16	4.597016E-18
3.374616E+03	5.269712E-16	4.655095E-18
3.384541E+03	5.342801E-16	4.713629E-18
3.394467E+03	5.416364E-16	4.772406E-18
3.404392E+03	5.490370E-16	4.831394E-18
3.414318E+03	5.564792E-16	4.890568E-18
3.424243E+03	5.639401E-16	4.949727E-18
3.434168E+03	5.714071E-16	5.008759E-18
3.444094E+03	5.788789E-16	5.067651E-18
3.454019E+03	5.863335E-16	5.126213E-18
3.463944E+03	5.937506E-16	5.184266E-18
3.473870E+03	6.011197E-16	5.241722E-18
3.483795E+03	6.084315E-16	5.298499E-18
3.493720E+03	6.156676E-16	5.354442E-18
3.503646E+03	6.228108E-16	5.409402E-18
3.513571E+03	6.298450E-16	5.463243E-18
3.523496E+03	6.367648E-16	5.515922E-18
3.533422E+03	6.435366E-16	5.567154E-18
3.543347E+03	6.501662E-16	5.616993E-18
3.553272E+03	6.566317E-16	5.665256E-18
3.563198E+03	6.629304E-16	5.711926E-18
3.573123E+03	6.690510E-16	5.756910E-18
3.583048E+03	6.749830E-16	5.800126E-18
3.592974E+03	6.807255E-16	5.841573E-18
3.602899E+03	6.862689E-16	5.881175E-18
3.612824E+03	6.916134E-16	5.918942E-18
3.622750E+03	6.967503E-16	5.954807E-18
3.632675E+03	7.016986E-16	5.988939E-18
3.642600E+03	7.064412E-16	6.021200E-18
3.652526E+03	7.109970E-16	6.051759E-18
3.662451E+03	7.153760E-16	6.080708E-18
3.672376E+03	7.195706E-16	6.107989E-18
3.682302E+03	7.236003E-16	6.133773E-18
3.692227E+03	7.274741E-16	6.158146E-18
3.702152E+03	7.311958E-16	6.181143E-18
3.712078E+03	7.347833E-16	6.202922E-18
3.722003E+03	7.382474E-16	6.223581E-18
3.731928E+03	7.415989E-16	6.243215E-18
3.741854E+03	7.448479E-16	6.261913E-18
3.751779E+03	7.480052E-16	6.279772E-18
3.761704E+03	7.510890E-16	6.296946E-18
3.771630E+03	7.541072E-16	6.313506E-18
3.781555E+03	7.570778E-16	6.329607E-18
3.791480E+03	7.599908E-16	6.345166E-18
3.801406E+03	7.628781E-16	6.360452E-18
3.811331E+03	7.657383E-16	6.375457E-18
3.821257E+03	7.685772E-16	6.390229E-18
3.831182E+03	7.714072E-16	6.404875E-18
3.841107E+03	7.742414E-16	6.419503E-18
3.851033E+03	7.770762E-16	6.434085E-18
3.860958E+03	7.799234E-16	6.448720E-18
3.870883E+03	7.827939E-16	6.463498E-18
3.880809E+03	7.856819E-16	6.478373E-18
3.890734E+03	7.885985E-16	6.493435E-18
3.900659E+03	7.915451E-16	6.508697E-18
3.910585E+03	7.945292E-16	6.524220E-18
3.920510E+03	7.975529E-16	6.540023E-18
3.930435E+03	8.006223E-16	6.556154E-18
3.940361E+03	8.037285E-16	6.572542E-18
3.950286E+03	8.068702E-16	6.589175E-18
3.960211E+03	8.100680E-16	6.606221E-18
3.970137E+03	8.132947E-16	6.623460E-18
3.980062E+03	8.165637E-16	6.641000E-18
3.989987E+03	9.776842E-16	7.940532E-18
3.999119E+03	9.463460E-16	7.676392E-18
4.008250E+03	9.119322E-16	7.388002E-18
4.017381E+03	8.761156E-16	7.088991E-18
4.026513E+03	8.427146E-16	6.810255E-18
4.035644E+03	8.162518E-16	6.588221E-18
4.044775E+03	7.990059E-16	6.441050E-18
4.053907E+03	7.908872E-16	6.367741E-18
4.063038E+03	7.944924E-16	6.388904E-18
4.072169E+03	8.086239E-16	6.494574E-18
4.081300E+03	8.276210E-16	6.639032E-18
4.090432E+03	8.477271E-16	6.792042E-18
4.099563E+03	8.637450E-16	6.911985E-18
4.108694E+03	8.762034E-16	7.003209E-18
4.117826E+03	8.846674E-16	7.062350E-18
4.126957E+03	8.975819E-16	7.156860E-18
4.136088E+03	9.050658E-16	7.207921E-18
4.145220E+03	9.084181E-16	7.226024E-18
4.154351E+03	9.125449E-16	7.250268E-18
4.163482E+03	9.176424E-16	7.282190E-18
4.172614E+03	9.177396E-16	7.274437E-18
4.181745E+03	9.143756E-16	7.239333E-18
4.190876E+03	9.108830E-16	7.203330E-18
4.200008E+03	9.062112E-16	7.158134E-18
4.209139E+03	9.019526E-16	7.116342E-18
4.218270E+03	8.995107E-16	7.089004E-18
4.227401E+03	8.984213E-16	7.072417E-18
4.236533E+03	9.003258E-16	7.079453E-18
4.245664E+03	9.009771E-16	7.076677E-18
4.254795E+03	9.002920E-16	7.063469E-18
4.263927E+03	9.043686E-16	7.087658E-18
4.273058E+03	9.144306E-16	7.158703E-18
4.282189E+03	9.234423E-16	7.221434E-18
4.291321E+03	9.342219E-16	7.297897E-18
4.300452E+03	9.466169E-16	7.386860E-18
4.309583E+03	9.554479E-16	7.447915E-18
4.318715E+03	9.621992E-16	7.492711E-18
4.327846E+03	9.713866E-16	7.556430E-18
4.336977E+03	9.801827E-16	7.617047E-18
4.346109E+03	9.908302E-16	7.691986E-18
4.355240E+03	1.001086E-15	7.763811E-18
4.364371E+03	1.009136E-15	7.818477E-18
4.373503E+03	1.013594E-15	7.845313E-18
4.382634E+03	1.012952E-15	7.832751E-18
4.391765E+03	1.006254E-15	7.773503E-18
4.400896E+03	9.973187E-16	7.697194E-18
4.410028E+03	9.896246E-16	7.630686E-18
4.419159E+03	9.870909E-16	7.604144E-18
4.428290E+03	9.902027E-16	7.621192E-18
4.437422E+03	1.000513E-15	7.693662E-18
4.446553E+03	1.011415E-15	7.770639E-18
4.455684E+03	1.022631E-15	7.849995E-18
4.464816E+03	1.034318E-15	7.932935E-18
4.473947E+03	1.044810E-15	8.006683E-18
4.483078E+03	1.050530E-15	8.043875E-18
4.492210E+03	1.056118E-15	8.080113E-18
4.501341E+03	1.062846E-15	8.125127E-18
4.510472E+03	1.066579E-15	8.147313E-18
4.519604E+03	1.071649E-15	8.179794E-18
4.528735E+03	1.077064E-15	8.214974E-18
4.537866E+03	1.083100E-15	8.254972E-18
4.546997E+03	1.088483E-15	8.290072E-18
4.556129E+03	1.095284E-15	8.336049E-18
4.565260E+03	1.102229E-15	8.383196E-18
4.574391E+03	1.113424E-15	8.462730E-18
4.583523E+03	1.124844E-15	8.544005E-18
4.592654E+03	1.133733E-15	8.606122E-18
4.601785E+03	1.139491E-15	8.644565E-18
4.610917E+03	1.143591E-15	8.670545E-18
4.620048E+03	1.144274E-15	8.670770E-18
4.629179E+03	1.145693E-15	8.676725E-18
4.638311E+03	1.150124E-15	8.705638E-18
4.647442E+03	1.155409E-15	8.741159E-18
4.656573E+03	1.161908E-15	8.785992E-18
4.665705E+03	1.167983E-15	8.827757E-18
4.674836E+03	1.170035E-15	8.839274E-18
4.683967E+03	1.167944E-15	8.819675E-18
4.693099E+03	1.163706E-15	8.784076E-18
4.702230E+03	1.154604E-15	8.711989E-18
4.711361E+03	1.142117E-15	8.614610E-18
4.720492E+03	1.131281E-15	8.529940E-18
4.729624E+03	1.118778E-15	8.432953E-18
4.738755E+03	1.104849E-15	8.325473E-18
4.747886E+03	1.091175E-15	8.220164E-18
4.757018E+03	1.078794E-15	8.124837E-18
4.766149E+03	1.067306E-15	8.036476E-18
4.775280E+03	1.060865E-15	7.986334E-18
4.784412E+03	1.057911E-15	7.962643E-18
4.793543E+03	1.058482E-15	7.965679E-18
4.802674E+03	1.061136E-15	7.984580E-18
4.811806E+03	1.063920E-15	8.004633E-18
4.820937E+03	1.064918E-15	8.011433E-18
4.830068E+03	1.066724E-15	8.024493E-18
4.839200E+03	1.066427E-15	8.021913E-18
4.848331E+03	1.063195E-15	7.997431E-18
4.857462E+03	1.058862E-15	7.964844E-18
4.866593E+03	1.053590E-15	7.925370E-18
4.875725E+03	1.047262E-15	7.878122E-18
4.884856E+03	1.041470E-15	7.835066E-18
4.893987E+03	1.038241E-15	7.811447E-18
4.903119E+03	1.033082E-15	7.773470E-18
4.912250E+03	1.028896E-15	7.742965E-18
4.921381E+03	1.025643E-15	7.719624E-18
4.930513E+03	1.021218E-15	7.687615E-18
4.939644E+03	1.015388E-15	7.645168E-18
4.948775E+03	1.013579E-15	7.633134E-18
4.957907E+03	1.012065E-15	7.623464E-18
4.967038E+03	1.010056E-15	7.610199E-18
4.976169E+03	1.009408E-15	7.607329E-18
4.985301E+03	1.009764E-15	7.612172E-18
4.994432E+03	1.009938E-15	7.615780E-18
5.003563E+03	1.012218E-15	7.635410E-18
5.012695E+03	1.015100E-15	7.659733E-18
5.021826E+03	1.020079E-15	7.700036E-18
5.030957E+03	1.027267E-15	7.757177E-18
5.040088E+03	1.034184E-15	7.812447E-18
5.049220E+03	1.039968E-15	7.859323E-18
5.058351E+03	1.045758E-15	7.906412E-18
5.067482E+03	1.049831E-15	7.940684E-18
5.076614E+03	1.054225E-15	7.977543E-18
5.085745E+03	1.058121E-15	8.010783E-18
5.094876E+03	1.062182E-15	8.045430E-18
5.104008E+03	1.064692E-15	8.068478E-18
5.113139E+03	1.065383E-15	8.077875E-18
5.122270E+03	1.063913E-15	8.070998E-18
5.131402E+03	1.061219E-15	8.054945E-18
5.140533E+03	1.056880E-15	8.026492E-18
5.149664E+03	1.053850E-15	8.008054E-18
5.158796E+03	1.052161E-15	7.999907E-18
5.167927E+03	1.050109E-15	7.989087E-18
5.177058E+03	1.049587E-15	7.990005E-18
5.186189E+03	1.050359E-15	8.000882E-18
5.195321E+03	1.050454E-15	8.006713E-18
5.204452E+03	1.051840E-15	8.022488E-18
5.213583E+03	1.053395E-15	8.039670E-18
5.222715E+03	1.055157E-15	8.058554E-18
5.231846E+03	1.056897E-15	8.077377E-18
5.240977E+03	1.059380E-15	8.102004E-18
5.250109E+03	1.060117E-15	8.113384E-18
5.259240E+03	1.061177E-15	8.127346E-18
5.268371E+03	1.061607E-15	8.136577E-18
5.277503E+03	1.062552E-15	8.149853E-18
5.286634E+03	1.064085E-15	8.167744E-18
5.295765E+03	1.066279E-15	8.190821E-18
5.304897E+03	1.067388E-15	8.205670E-18
5.314028E+03	1.066812E-15	8.207645E-18
5.323159E+03	1.066447E-15	8.211323E-18
5.332291E+03	1.065311E-15	8.209135E-18
5.341422E+03	1.064765E-15	8.211568E-18
5.350553E+03	1.064771E-15	8.218326E-18
5.359684E+03	1.067392E-15	8.245367E-18
5.368816E+03	1.069202E-15	8.266241E-18
5.377947E+03	1.071327E-15	8.289657E-18
5.387078E+03	1.073619E-15	8.314459E-18
5.396210E+03	1.074804E-15	8.330788E-18
5.405341E+03	1.075748E-15	8.345326E-18
5.414472E+03	1.075891E-15	8.353732E-18
5.423604E+03	1.074978E-15	8.354001E-18
5.432735E+03	1.073310E-15	8.348449E-18
5.441866E+03	1.071264E-15	8.339993E-18
5.450998E+03	1.067322E-15	8.316803E-18
5.460129E+03	1.063306E-15	8.293031E-18
5.469260E+03	1.060729E-15	8.280501E-18
5.478392E+03	1.058220E-15	8.268528E-18
5.487523E+03	1.057914E-15	8.273803E-18
5.496654E+03	1.057267E-15	8.276454E-18
5.505785E+03	1.057159E-15	8.283376E-18
5.514917E+03	1.056088E-15	8.282801E-18
5.524048E+03	1.055082E-15	8.282771E-18
5.533179E+03	1.052464E-15	8.270104E-18
5.542311E+03	1.050753E-15	8.264587E-18
5.551442E+03	1.049074E-15	8.259344E-18
5.560573E+03	1.049458E-15	8.270379E-18
5.569705E+03	1.049759E-15	8.280804E-18
5.578836E+03	1.051060E-15	8.299186E-18
5.587967E+03	1.053792E-15	8.328934E-18
5.597099E+03	1.054846E-15	8.345499E-18
5.606230E+03	1.055205E-15	8.356610E-18
5.615361E+03	1.054941E-15	8.362841E-18
5.624493E+03	1.053416E-15	8.359089E-18
5.633624E+03	1.050921E-15	8.347652E-18
5.642755E+03	1.048962E-15	8.340479E-18
5.651887E+03	1.046789E-15	8.331604E-18
5.661018E+03	1.044188E-15	8.319322E-18
5.670149E+03	1.043863E-15	8.325185E-18
5.679280E+03	1.043567E-15	8.331311E-18
5.688412E+03	1.044718E-15	8.349023E-18
5.697543E+03	1.045221E-15	8.361609E-18
5.706674E+03	1.047164E-15	8.385759E-18
5.715806E+03	1.047296E-15	8.395462E-18
5.724937E+03	1.047213E-15	8.403464E-18
5.734068E+03	1.045720E-15	8.400172E-18
5.743200E+03	1.043457E-15	8.390693E-18
5.752331E+03	1.040463E-15	8.375316E-18
5.761462E+03	1.040128E-15	8.381347E-18
5.770594E+03	1.040207E-15	8.390739E-18
5.779725E+03	1.040945E-15	8.405472E-18
5.788856E+03	1.042994E-15	8.430844E-18
5.797988E+03	1.047494E-15	8.476106E-18
5.807119E+03	1.051559E-15	8.517946E-18
5.816250E+03	1.053087E-15	8.539304E-18
5.825381E+03	1.050506E-15	8.527360E-18
5.834513E+03	1.042806E-15	8.473793E-18
5.843644E+03	1.027784E-15	8.360553E-18
5.852775E+03	1.007534E-15	8.204506E-18
5.861907E+03	9.846532E-16	8.026684E-18
5.871038E+03	9.623660E-16	7.853327E-18
5.880169E+03	9.422043E-16	7.696966E-18
5.889301E+03	9.268450E-16	7.579543E-18
5.898432E+03	9.165703E-16	7.503495E-18
5.907563E+03	9.128101E-16	7.480670E-18
5.916695E+03	9.161405E-16	7.515966E-18
5.925826E+03	9.255111E-16	7.600940E-18
5.934957E+03	9.381227E-16	7.712738E-18
5.944089E+03	9.521747E-16	7.836626E-18
5.953220E+03	9.666171E-16	7.963992E-18
5.962351E+03	9.795026E-16	8.078784E-18
5.971483E+03	9.875897E-16	8.154197E-18
5.980614E+03	9.908028E-16	8.189481E-18
5.989745E+03	9.899034E-16	8.190806E-18
5.998876E+03	9.885122E-16	8.188054E-18
6.008008E+03	9.848686E-16	8.166613E-18
6.017139E+03	9.804454E-16	8.138646E-18
6.026270E+03	9.767407E-16	8.116583E-18
6.035402E+03	9.736165E-16	8.099294E-18
6.044533E+03	9.691221E-16	8.070549E-18
6.053664E+03	9.662015E-16	8.054855E-18
6.062796E+03	9.652411E-16	8.055477E-18
6.071927E+03	9.650157E-16	8.062233E-18
6.081058E+03	9.659162E-16	8.078411E-18
6.090190E+03	9.664301E-16	8.091377E-18
6.099321E+03	9.659362E-16	8.095915E-18
6.108452E+03	9.648671E-16	8.095626E-18
6.117584E+03	9.634847E-16	8.092697E-18
6.126715E+03	9.601635E-16	8.073447E-18
6.135846E+03	9.552697E-16	8.040910E-18
6.144977E+03	9.504681E-16	8.009068E-18
6.154109E+03	9.458230E-16	7.978468E-18
6.163240E+03	9.408154E-16	7.944731E-18
6.172371E+03	9.357076E-16	7.910064E-18
6.181503E+03	9.311119E-16	7.879645E-18
6.190634E+03	9.260280E-16	7.845015E-18
6.199765E+03	9.215526E-16	7.815460E-18
6.208897E+03	9.166869E-16	7.782517E-18
6.218028E+03	9.120744E-16	7.751643E-18
6.227159E+03	9.062400E-16	7.710297E-18
6.236291E+03	8.983893E-16	7.651679E-18
6.245422E+03	8.881460E-16	7.572523E-18
6.254553E+03	8.786808E-16	7.499829E-18
6.263685E+03	8.704056E-16	7.437137E-18
6.272816E+03	8.642706E-16	7.392605E-18
6.281947E+03	8.610960E-16	7.373316E-18
6.291079E+03	8.608063E-16	7.378705E-18
6.300210E+03	8.634872E-16	7.409585E-18
6.309341E+03	8.683681E-16	7.459418E-18
6.318472E+03	8.747464E-16	7.522223E-18
6.327604E+03	8.820785E-16	7.593361E-18
6.336735E+03	8.897643E-16	7.667688E-18
6.345866E+03	8.985273E-16	7.751455E-18
6.354998E+03	9.061293E-16	7.825362E-18
6.364129E+03	9.128577E-16	7.891863E-18
6.373260E+03	9.191872E-16	7.955041E-18
6.382392E+03	9.239593E-16	8.004849E-18
6.391523E+03	9.257961E-16	8.029291E-18
6.400654E+03	9.278125E-16	8.055330E-18
6.409786E+03	9.294120E-16	8.077787E-18
6.418917E+03	9.300637E-16	8.092031E-18
6.428048E+03	9.303012E-16	8.102682E-18
6.437180E+03	9.297819E-16	8.106740E-18
6.446311E+03	9.280696E-16	8.100378E-18
6.455442E+03	9.266653E-16	8.096678E-18
6.464573E+03	9.250999E-16	8.091542E-18
6.473705E+03	9.254628E-16	8.103262E-18
6.482836E+03	9.269388E-16	8.124744E-18
6.491967E+03	9.291209E-16	8.152450E-18
6.501099E+03	9.311061E-16	8.178464E-18
6.510230E+03	9.323652E-16	8.198129E-18
6.519361E+03	9.324647E-16	8.207609E-18
6.528493E+03	9.316864E-16	8.209352E-18
6.537624E+03	9.299065E-16	8.202245E-18
6.546755E+03	9.283672E-16	8.197225E-18
6.555887E+03	9.265415E-16	8.189642E-18
6.565018E+03	9.247380E-16	8.182217E-18
6.574149E+03	9.247861E-16	8.191154E-18
6.583281E+03	9.246698E-16	8.198630E-18
6.592412E+03	9.235824E-16	8.197479E-18
6.601543E+03	9.238788E-16	8.208596E-18
6.610675E+03	9.248753E-16	8.225940E-18
6.619806E+03	9.237260E-16	8.224191E-18
6.628937E+03	9.222869E-16	8.219830E-18
6.638068E+03	9.213017E-16	8.219486E-18
6.647200E+03	9.196557E-16	8.213213E-18
6.656331E+03	9.151861E-16	8.181661E-18
6.665462E+03	9.086975E-16	8.131950E-18
6.674594E+03	9.024458E-16	8.084233E-18
6.683725E+03	8.951324E-16	8.026873E-18
6.692856E+03	8.880250E-16	7.971221E-18
6.701988E+03	8.822946E-16	7.927801E-18
6.711119E+03	8.775696E-16	7.893312E-18
6.720250E+03	8.748077E-16	7.876401E-18
6.729382E+03	8.756122E-16	7.891572E-18
6.738513E+03	8.791176E-16	7.931114E-18
6.747644E+03	8.840284E-16	7.983400E-18
6.756776E+03	8.908062E-16	8.052639E-18
6.765907E+03	8.954389E-16	8.102579E-18
6.775038E+03	8.957649E-16	8.113582E-18
6.784169E+03	8.882651E-16	8.053623E-18
6.793301E+03	8.760247E-16	7.950493E-18
6.802432E+03	8.589196E-16	7.802937E-18
6.811563E+03	8.406521E-16	7.644493E-18
6.820695E+03	8.223635E-16	7.485518E-18
6.829826E+03	8.084384E-16	7.365961E-18
6.838957E+03	8.001438E-16	7.297496E-18
6.848089E+03	7.989024E-16	7.293259E-18
6.857220E+03	8.028324E-16	7.336244E-18
6.866351E+03	8.128014E-16	7.434522E-18
6.875483E+03	8.279479E-16	7.580365E-18
6.884614E+03	8.441317E-16	7.735967E-18
6.893745E+03	8.615092E-16	7.902789E-18
6.902877E+03	8.757836E-16	8.041409E-18
6.912008E+03	8.841360E-16	8.125835E-18
6.921139E+03	8.867488E-16	8.157590E-18
6.930271E+03	8.869909E-16	8.167545E-18
6.939402E+03	8.851399E-16	8.158195E-18
6.948533E+03	8.838864E-16	8.154308E-18
6.957664E+03	8.858967E-16	8.180521E-18
6.966796E+03	8.905220E-16	8.230922E-18
6.975927E+03	8.959053E-16	8.288397E-18
6.985058E+03	8.991945E-16	8.326556E-18
6.994190E+03	9.019064E-16	8.359402E-18
7.003321E+03	9.010303E-16	8.358990E-18
7.012452E+03	8.981456E-16	8.339894E-18
7.021584E+03	8.945230E-16	8.313871E-18
7.030715E+03	8.904415E-16	8.283500E-18
7.039846E+03	8.861481E-16	8.251066E-18
7.048978E+03	8.834456E-16	8.233368E-18
7.058109E+03	8.820570E-16	8.227861E-18
7.067240E+03	8.803960E-16	8.219769E-18
7.076372E+03	8.790844E-16	8.214894E-18
7.085503E+03	8.768458E-16	8.201308E-18
7.094634E+03	8.741449E-16	8.183336E-18
7.103765E+03	8.705459E-16	8.156885E-18
7.112897E+03	8.663581E-16	8.124834E-18
7.122028E+03	8.616113E-16	8.087445E-18
7.131159E+03	8.574305E-16	8.055277E-18
7.140291E+03	8.537831E-16	8.028034E-18
7.149422E+03	8.509513E-16	8.008387E-18
7.158553E+03	8.482808E-16	7.990194E-18
7.167685E+03	8.468337E-16	7.983470E-18
7.176816E+03	8.473648E-16	7.995369E-18
7.185947E+03	8.502843E-16	8.029811E-18
7.195079E+03	8.528682E-16	8.061108E-18
7.204210E+03	8.543951E-16	8.082427E-18
7.213341E+03	8.554582E-16	8.099359E-18
7.222473E+03	8.558697E-16	8.110112E-18
7.231604E+03	8.532394E-16	8.092004E-18
7.240735E+03	8.489767E-16	8.058338E-18
7.249867E+03	8.460033E-16	8.036831E-18
7.258998E+03	8.449531E-16	8.033541E-18
7.268129E+03	8.424252E-16	8.016152E-18
7.277260E+03	8.410973E-16	8.010131E-18
7.286392E+03	8.417597E-16	8.023038E-18
7.295523E+03	8.404083E-16	8.016723E-18
7.304654E+03	8.382064E-16	8.002247E-18
7.313786E+03	8.374288E-16	8.001324E-18
7.322917E+03	8.391523E-16	8.024285E-18
7.332048E+03	8.403129E-16	8.041863E-18
7.341180E+03	8.457538E-16	8.100433E-18
7.350311E+03	8.520302E-16	8.167074E-18
7.359442E+03	8.567336E-16	8.218698E-18
7.368574E+03	8.591953E-16	8.248851E-18
7.377705E+03	8.618851E-16	8.281210E-18
7.386836E+03	8.633120E-16	8.301444E-18
7.395968E+03	8.629009E-16	8.303989E-18
7.405099E+03	8.596600E-16	8.279251E-18
