#wls	flux	fluxerr
1.588055E+03	1.001633E-16	5.180264E-19
1.627756E+03	1.014824E-16	5.244910E-19
1.667457E+03	1.026488E-16	5.301473E-19
1.707159E+03	1.036679E-16	5.350245E-19
1.746860E+03	1.045223E-16	5.390330E-19
1.786561E+03	1.051798E-16	5.420091E-19
1.826263E+03	1.055741E-16	5.436130E-19
1.865964E+03	1.056262E-16	5.434408E-19
1.905666E+03	1.053040E-16	5.413313E-19
1.945367E+03	1.045439E-16	5.369634E-19
1.985068E+03	1.033555E-16	5.303909E-19
2.024770E+03	1.019335E-16	5.226185E-19
2.064471E+03	1.006806E-16	5.157132E-19
2.104172E+03	1.002273E-16	5.128982E-19
2.143874E+03	1.011389E-16	5.170520E-19
2.183575E+03	1.037732E-16	5.299803E-19
2.223277E+03	1.080009E-16	5.509953E-19
2.262978E+03	1.134188E-16	5.780142E-19
2.302679E+03	1.195796E-16	6.087385E-19
2.342381E+03	1.260857E-16	6.411299E-19
2.382082E+03	1.327269E-16	6.741115E-19
2.421783E+03	1.393908E-16	7.071075E-19
2.461485E+03	1.460184E-16	7.398148E-19
2.501186E+03	1.526050E-16	7.722068E-19
2.540887E+03	1.591620E-16	8.043372E-19
2.580589E+03	1.657229E-16	8.363727E-19
2.620290E+03	1.722639E-16	8.681885E-19
2.659992E+03	1.788310E-16	9.000129E-19
2.699693E+03	1.854277E-16	9.318590E-19
2.739394E+03	1.920716E-16	9.638090E-19
2.779096E+03	1.987935E-16	9.960132E-19
2.818797E+03	2.055821E-16	1.028407E-18
2.858498E+03	2.124019E-16	1.060809E-18
2.898200E+03	2.191571E-16	1.092734E-18
2.937901E+03	2.258622E-16	1.124252E-18
2.977602E+03	2.324533E-16	1.155040E-18
2.987528E+03	2.340653E-16	1.162534E-18
2.997453E+03	2.356902E-16	1.170082E-18
3.007378E+03	2.373086E-16	1.177587E-18
3.017304E+03	2.389215E-16	1.185054E-18
3.027229E+03	2.405329E-16	1.192504E-18
3.037155E+03	2.421481E-16	1.199961E-18
3.047080E+03	2.437654E-16	1.207419E-18
3.057005E+03	2.453881E-16	1.214892E-18
3.066931E+03	2.470317E-16	1.222458E-18
3.076856E+03	2.486753E-16	1.230013E-18
3.086781E+03	2.503165E-16	1.237545E-18
3.096707E+03	2.519715E-16	1.245134E-18
3.106632E+03	2.536197E-16	1.252678E-18
3.116557E+03	2.552774E-16	1.260257E-18
3.126483E+03	2.569425E-16	1.267862E-18
3.136408E+03	2.585952E-16	1.275393E-18
3.146333E+03	2.602518E-16	1.282933E-18
3.156259E+03	2.619286E-16	1.290560E-18
3.166184E+03	2.635880E-16	1.298089E-18
3.176109E+03	2.652644E-16	1.305690E-18
3.186035E+03	2.669204E-16	1.313179E-18
3.195960E+03	2.686082E-16	1.320812E-18
3.205885E+03	2.702906E-16	1.328406E-18
3.215811E+03	2.719664E-16	1.335955E-18
3.225736E+03	2.736694E-16	1.343625E-18
3.235661E+03	2.753630E-16	1.351237E-18
3.245587E+03	2.770810E-16	1.358955E-18
3.255512E+03	2.788045E-16	1.366688E-18
3.265437E+03	2.805496E-16	1.374513E-18
3.275363E+03	2.822973E-16	1.382337E-18
3.285288E+03	2.840638E-16	1.390240E-18
3.295213E+03	2.858646E-16	1.398298E-18
3.305139E+03	2.876812E-16	1.406418E-18
3.315064E+03	2.895289E-16	1.414677E-18
3.324989E+03	2.914062E-16	1.423066E-18
3.334915E+03	2.933115E-16	1.431577E-18
3.344840E+03	2.952597E-16	1.440283E-18
3.354765E+03	2.972492E-16	1.449174E-18
3.364691E+03	2.992780E-16	1.458242E-18
3.374616E+03	3.013607E-16	1.467556E-18
3.384541E+03	3.034951E-16	1.477106E-18
3.394467E+03	3.057120E-16	1.487041E-18
3.404392E+03	3.079761E-16	1.497187E-18
3.414318E+03	3.103176E-16	1.507693E-18
3.424243E+03	3.127502E-16	1.518622E-18
3.434168E+03	3.152712E-16	1.529962E-18
3.444094E+03	3.178937E-16	1.541774E-18
3.454019E+03	3.206308E-16	1.554121E-18
3.463944E+03	3.234637E-16	1.566912E-18
3.473870E+03	3.264524E-16	1.580436E-18
3.483795E+03	3.295623E-16	1.594523E-18
3.493720E+03	3.328215E-16	1.609308E-18
3.503646E+03	3.362268E-16	1.624775E-18
3.513571E+03	3.398058E-16	1.641055E-18
3.523496E+03	3.435398E-16	1.658056E-18
3.533422E+03	3.474261E-16	1.675764E-18
3.543347E+03	3.514471E-16	1.694092E-18
3.553272E+03	3.556154E-16	1.713099E-18
3.563198E+03	3.598991E-16	1.732631E-18
3.573123E+03	3.643116E-16	1.752750E-18
3.583048E+03	3.688367E-16	1.773376E-18
3.592974E+03	3.734732E-16	1.794505E-18
3.602899E+03	3.781919E-16	1.815992E-18
3.612824E+03	3.830212E-16	1.837975E-18
3.622750E+03	3.879185E-16	1.860247E-18
3.632675E+03	3.928990E-16	1.882879E-18
3.642600E+03	3.979498E-16	1.905811E-18
3.652526E+03	4.030727E-16	1.929048E-18
3.662451E+03	4.082423E-16	1.952469E-18
3.672376E+03	4.134890E-16	1.976218E-18
3.682302E+03	4.187881E-16	2.000176E-18
3.692227E+03	4.241429E-16	2.024358E-18
3.702152E+03	4.295435E-16	2.048717E-18
3.712078E+03	4.349933E-16	2.073267E-18
3.722003E+03	4.404829E-16	2.097962E-18
3.731928E+03	4.460289E-16	2.122882E-18
3.741854E+03	4.516086E-16	2.147918E-18
3.751779E+03	4.572257E-16	2.173086E-18
3.761704E+03	4.628838E-16	2.198403E-18
3.771630E+03	4.685862E-16	2.223884E-18
3.781555E+03	4.743107E-16	2.249422E-18
3.791480E+03	4.800861E-16	2.275154E-18
3.801406E+03	4.858777E-16	2.300915E-18
3.811331E+03	4.917013E-16	2.326778E-18
3.821257E+03	4.975475E-16	2.352700E-18
3.831182E+03	5.034192E-16	2.378692E-18
3.841107E+03	5.093192E-16	2.404767E-18
3.851033E+03	5.152376E-16	2.430879E-18
3.860958E+03	5.211647E-16	2.456981E-18
3.870883E+03	5.271148E-16	2.483139E-18
3.880809E+03	5.330777E-16	2.509307E-18
3.890734E+03	5.390431E-16	2.535433E-18
3.900659E+03	5.450124E-16	2.561525E-18
3.910585E+03	5.509869E-16	2.587588E-18
3.920510E+03	5.569555E-16	2.613571E-18
3.930435E+03	5.629072E-16	2.639421E-18
3.940361E+03	5.688544E-16	2.665196E-18
3.950286E+03	5.747855E-16	2.690841E-18
3.960211E+03	5.807009E-16	2.716359E-18
3.970137E+03	5.865888E-16	2.741694E-18
3.980062E+03	5.924380E-16	2.766793E-18
3.989987E+03	5.982483E-16	2.791656E-18
3.999913E+03	6.040317E-16	2.816339E-18
4.009838E+03	6.097649E-16	2.840734E-18
4.019763E+03	6.154370E-16	2.864790E-18
4.029689E+03	6.210711E-16	2.888615E-18
4.039614E+03	6.266449E-16	2.912105E-18
4.049539E+03	6.321480E-16	2.935212E-18
4.059465E+03	6.375929E-16	2.957996E-18
4.069390E+03	6.429703E-16	2.980413E-18
4.079315E+03	6.482827E-16	3.002475E-18
4.089241E+03	6.535334E-16	3.024199E-18
4.099166E+03	6.587044E-16	3.045502E-18
4.109091E+03	6.638125E-16	3.066460E-18
4.119017E+03	6.688637E-16	3.087105E-18
4.128942E+03	6.738546E-16	3.107418E-18
4.138867E+03	6.787820E-16	3.127388E-18
4.148793E+03	6.836767E-16	3.147155E-18
4.158718E+03	6.885255E-16	3.166660E-18
4.168643E+03	6.933485E-16	3.185994E-18
4.178569E+03	6.981428E-16	3.205145E-18
4.188494E+03	7.029275E-16	3.224201E-18
4.198419E+03	7.076872E-16	3.243091E-18
4.208345E+03	7.124605E-16	3.261991E-18
4.218270E+03	7.172294E-16	3.280819E-18
4.228196E+03	7.220073E-16	3.299636E-18
4.238121E+03	7.267836E-16	3.318394E-18
4.248046E+03	7.315900E-16	3.337237E-18
4.257972E+03	7.364013E-16	3.356048E-18
4.267897E+03	7.412347E-16	3.374907E-18
4.277822E+03	7.460828E-16	3.393780E-18
4.287748E+03	7.509612E-16	3.412736E-18
4.297673E+03	7.558389E-16	3.431634E-18
4.307598E+03	7.607505E-16	3.450632E-18
4.317524E+03	7.656865E-16	3.469685E-18
4.327449E+03	7.706378E-16	3.488752E-18
4.337374E+03	7.756288E-16	3.507942E-18
4.347300E+03	7.806610E-16	3.527263E-18
4.357225E+03	7.857293E-16	3.546689E-18
4.367150E+03	7.908589E-16	3.566335E-18
4.377076E+03	7.960453E-16	3.586178E-18
4.387001E+03	8.012960E-16	3.606252E-18
4.396926E+03	8.066425E-16	3.626697E-18
4.406852E+03	8.120706E-16	3.647448E-18
4.416777E+03	8.175924E-16	3.668558E-18
4.426702E+03	8.231967E-16	3.689975E-18
4.436628E+03	8.288731E-16	3.711652E-18
4.446553E+03	8.346127E-16	3.733547E-18
4.456478E+03	8.404071E-16	3.755622E-18
4.466404E+03	8.462489E-16	3.777843E-18
4.476329E+03	8.521321E-16	3.800182E-18
4.486254E+03	8.580506E-16	3.822612E-18
4.496180E+03	8.639892E-16	3.845064E-18
4.506105E+03	8.699449E-16	3.867524E-18
4.516030E+03	8.759267E-16	3.890032E-18
4.525956E+03	8.819231E-16	3.912537E-18
4.535881E+03	8.879446E-16	3.935084E-18
4.545806E+03	8.939927E-16	3.957680E-18
4.555732E+03	9.000574E-16	3.980280E-18
4.565657E+03	9.061636E-16	4.002994E-18
4.575582E+03	9.122917E-16	4.025734E-18
4.585508E+03	9.184756E-16	4.048650E-18
4.595433E+03	9.246964E-16	4.071657E-18
4.605358E+03	9.309647E-16	4.094802E-18
4.615284E+03	9.373017E-16	4.118176E-18
4.625209E+03	9.436938E-16	4.141719E-18
4.635135E+03	9.501576E-16	4.165503E-18
4.645060E+03	9.566963E-16	4.189541E-18
4.654985E+03	9.632985E-16	4.213782E-18
4.664911E+03	9.699696E-16	4.238248E-18
4.674836E+03	9.767148E-16	4.262961E-18
4.684761E+03	9.835198E-16	4.287858E-18
4.694687E+03	9.903692E-16	4.312870E-18
4.704612E+03	9.972760E-16	4.338053E-18
4.714537E+03	1.004217E-15	4.363308E-18
4.724463E+03	1.011189E-15	4.388615E-18
4.734388E+03	1.018175E-15	4.413903E-18
4.744313E+03	1.025157E-15	4.439096E-18
4.754239E+03	1.032130E-15	4.464171E-18
4.764164E+03	1.039056E-15	4.488965E-18
4.774089E+03	1.045890E-15	4.513279E-18
4.784015E+03	1.052609E-15	4.537023E-18
4.793940E+03	1.059201E-15	4.560138E-18
4.803865E+03	1.065629E-15	4.582478E-18
4.813791E+03	1.071892E-15	4.604035E-18
4.823716E+03	1.077991E-15	4.624811E-18
4.833641E+03	1.083920E-15	4.644795E-18
4.843567E+03	1.089694E-15	4.664044E-18
4.853492E+03	1.095329E-15	4.682631E-18
4.863417E+03	1.100844E-15	4.700646E-18
4.873343E+03	1.106252E-15	4.718136E-18
4.883268E+03	1.111601E-15	4.735313E-18
4.893193E+03	1.116891E-15	4.752177E-18
4.903119E+03	1.122168E-15	4.768930E-18
4.913044E+03	1.127433E-15	4.785568E-18
4.922969E+03	1.132728E-15	4.802272E-18
4.932895E+03	1.138059E-15	4.819073E-18
4.942820E+03	1.143439E-15	4.836018E-18
4.952745E+03	1.148890E-15	4.853204E-18
4.962671E+03	1.154419E-15	4.870659E-18
4.972596E+03	1.160028E-15	4.888388E-18
4.982521E+03	1.165702E-15	4.906331E-18
4.992447E+03	1.171460E-15	4.924567E-18
5.002372E+03	1.177268E-15	4.942949E-18
5.012297E+03	1.183136E-15	4.961519E-18
5.022223E+03	1.189048E-15	4.980212E-18
5.032148E+03	1.194971E-15	4.998886E-18
5.042074E+03	1.200894E-15	5.017503E-18
5.051999E+03	1.206796E-15	5.035965E-18
5.061924E+03	1.212649E-15	5.054168E-18
5.071850E+03	1.218428E-15	5.071998E-18
5.081775E+03	1.224093E-15	5.089296E-18
5.091700E+03	1.229654E-15	5.106109E-18
5.101626E+03	1.235048E-15	5.122169E-18
5.111551E+03	1.240272E-15	5.137473E-18
5.121476E+03	1.245288E-15	5.151868E-18
5.131402E+03	1.250086E-15	5.165313E-18
5.141327E+03	1.254629E-15	5.177658E-18
5.151252E+03	1.258909E-15	5.188881E-18
5.161178E+03	1.262896E-15	5.198857E-18
5.171103E+03	1.266586E-15	5.207579E-18
5.181028E+03	1.269968E-15	5.215003E-18
5.190954E+03	1.273018E-15	5.221041E-18
5.200879E+03	1.275744E-15	5.225726E-18
5.210804E+03	1.278144E-15	5.229058E-18
5.220730E+03	1.280205E-15	5.230989E-18
5.230655E+03	1.281943E-15	5.231594E-18
5.240580E+03	1.283366E-15	5.230906E-18
5.250506E+03	1.284482E-15	5.228967E-18
5.260431E+03	1.285288E-15	5.225767E-18
5.270356E+03	1.285796E-15	5.221363E-18
5.280282E+03	1.286034E-15	5.215873E-18
5.290207E+03	1.286003E-15	5.209304E-18
5.300132E+03	1.285732E-15	5.201778E-18
5.310058E+03	1.285224E-15	5.193314E-18
5.319983E+03	1.284508E-15	5.184034E-18
5.329908E+03	1.283590E-15	5.173964E-18
5.339834E+03	1.282474E-15	5.163125E-18
5.349759E+03	1.281205E-15	5.151700E-18
5.359684E+03	1.279787E-15	5.139712E-18
5.369610E+03	1.278229E-15	5.127194E-18
5.379535E+03	1.276575E-15	5.114330E-18
5.389460E+03	1.274819E-15	5.101095E-18
5.399386E+03	1.272994E-15	5.087627E-18
5.409311E+03	1.271111E-15	5.073967E-18
5.419237E+03	1.269202E-15	5.060248E-18
5.429162E+03	1.267279E-15	5.046516E-18
5.439087E+03	1.265379E-15	5.032922E-18
5.449013E+03	1.263513E-15	5.019511E-18
5.458938E+03	1.261710E-15	5.006394E-18
5.468863E+03	1.260010E-15	4.993731E-18
5.478789E+03	1.258442E-15	4.981642E-18
5.488714E+03	1.257014E-15	4.970147E-18
5.498639E+03	1.255793E-15	4.959521E-18
5.508565E+03	1.254801E-15	4.949838E-18
5.518490E+03	1.254056E-15	4.941174E-18
5.528415E+03	1.253614E-15	4.933746E-18
5.538341E+03	1.253480E-15	4.927565E-18
5.548266E+03	1.253717E-15	4.922882E-18
5.558191E+03	1.254326E-15	4.919695E-18
5.568117E+03	1.255343E-15	4.918145E-18
5.578042E+03	1.256792E-15	4.918313E-18
5.587967E+03	1.258693E-15	4.920276E-18
5.597893E+03	1.261066E-15	4.924112E-18
5.607818E+03	1.263933E-15	4.929895E-18
5.617743E+03	1.267326E-15	4.937752E-18
5.627669E+03	1.271254E-15	4.947709E-18
5.637594E+03	1.275763E-15	4.959939E-18
5.647519E+03	1.280832E-15	4.974355E-18
5.657445E+03	1.286514E-15	4.991164E-18
5.667370E+03	1.292812E-15	5.010363E-18
5.677295E+03	1.299717E-15	5.031912E-18
5.687221E+03	1.307253E-15	5.055906E-18
5.697146E+03	1.315383E-15	5.082192E-18
5.707071E+03	1.324112E-15	5.110784E-18
5.716997E+03	1.333390E-15	5.141488E-18
5.726922E+03	1.343166E-15	5.174103E-18
5.736847E+03	1.353376E-15	5.208376E-18
5.746773E+03	1.363939E-15	5.243998E-18
5.756698E+03	1.374773E-15	5.280650E-18
5.766623E+03	1.385756E-15	5.317867E-18
5.776549E+03	1.396770E-15	5.355198E-18
5.786474E+03	1.407691E-15	5.392164E-18
5.796399E+03	1.418389E-15	5.428281E-18
5.806325E+03	1.428739E-15	5.463071E-18
5.816250E+03	1.438617E-15	5.496071E-18
5.826176E+03	1.447914E-15	5.526867E-18
5.836101E+03	1.456527E-15	5.555083E-18
5.846026E+03	1.464357E-15	5.580345E-18
5.855952E+03	1.471349E-15	5.602454E-18
5.865877E+03	1.477447E-15	5.621211E-18
5.875802E+03	1.482581E-15	5.636358E-18
5.885728E+03	1.486753E-15	5.647917E-18
5.895653E+03	1.489934E-15	5.655787E-18
5.905578E+03	1.492104E-15	5.659903E-18
5.915504E+03	1.493285E-15	5.660355E-18
5.925429E+03	1.493474E-15	5.657150E-18
5.935354E+03	1.492709E-15	5.650434E-18
5.945280E+03	1.490992E-15	5.640223E-18
5.955205E+03	1.488373E-15	5.626721E-18
5.965130E+03	1.484900E-15	5.610115E-18
5.975056E+03	1.480629E-15	5.590620E-18
5.984981E+03	1.475591E-15	5.568361E-18
5.994906E+03	1.469887E-15	5.543725E-18
6.004832E+03	1.463564E-15	5.516890E-18
6.014757E+03	1.456732E-15	5.488283E-18
6.024682E+03	1.449448E-15	5.458114E-18
6.034608E+03	1.441825E-15	5.426815E-18
6.044533E+03	1.433922E-15	5.394606E-18
6.054458E+03	1.425837E-15	5.361860E-18
6.064384E+03	1.417666E-15	5.328939E-18
6.074309E+03	1.409490E-15	5.296142E-18
6.084234E+03	1.401387E-15	5.263767E-18
6.094160E+03	1.393438E-15	5.232114E-18
6.104085E+03	1.385737E-15	5.201538E-18
6.114010E+03	1.378384E-15	5.172409E-18
6.123936E+03	1.371483E-15	5.145118E-18
6.133861E+03	1.365127E-15	5.120010E-18
6.143786E+03	1.359429E-15	5.097514E-18
6.153712E+03	1.354482E-15	5.077966E-18
6.163637E+03	1.350403E-15	5.061813E-18
6.173562E+03	1.347274E-15	5.049355E-18
6.183488E+03	1.345199E-15	5.040983E-18
6.193413E+03	1.344266E-15	5.037022E-18
6.203338E+03	1.344567E-15	5.037825E-18
6.213264E+03	1.346173E-15	5.043654E-18
6.223189E+03	1.349177E-15	5.054858E-18
6.233115E+03	1.353629E-15	5.071629E-18
6.243040E+03	1.359577E-15	5.094143E-18
6.252965E+03	1.367090E-15	5.122662E-18
6.262891E+03	1.376200E-15	5.157310E-18
6.272816E+03	1.386972E-15	5.198328E-18
6.282741E+03	1.399435E-15	5.245834E-18
6.292667E+03	1.413616E-15	5.299933E-18
6.302592E+03	1.429586E-15	5.360896E-18
6.312517E+03	1.447347E-15	5.428740E-18
6.322443E+03	1.466928E-15	5.503577E-18
6.332368E+03	1.488342E-15	5.585469E-18
6.342293E+03	1.511588E-15	5.674423E-18
6.352219E+03	1.536647E-15	5.770372E-18
6.362144E+03	1.563454E-15	5.873090E-18
6.372069E+03	1.591934E-15	5.982306E-18
6.381995E+03	1.621981E-15	6.097630E-18
6.391920E+03	1.653449E-15	6.218530E-18
6.401845E+03	1.686157E-15	6.344339E-18
6.411771E+03	1.719886E-15	6.474242E-18
6.421696E+03	1.754378E-15	6.607277E-18
6.431621E+03	1.789378E-15	6.742501E-18
6.441547E+03	1.824565E-15	6.878704E-18
6.451472E+03	1.859604E-15	7.014638E-18
6.461397E+03	1.894143E-15	7.148974E-18
6.471323E+03	1.927814E-15	7.280327E-18
6.481248E+03	1.960196E-15	7.407106E-18
6.491173E+03	1.990934E-15	7.527964E-18
6.501099E+03	2.019642E-15	7.641430E-18
6.511024E+03	2.045949E-15	7.746096E-18
6.520949E+03	2.069515E-15	7.840656E-18
6.530875E+03	2.090093E-15	7.924150E-18
6.540800E+03	2.107385E-15	7.995432E-18
6.550725E+03	2.121276E-15	8.054040E-18
6.560651E+03	2.131616E-15	8.099370E-18
6.570576E+03	2.138344E-15	8.131163E-18
6.580501E+03	2.141464E-15	8.149400E-18
6.590427E+03	2.141073E-15	8.154420E-18
6.600352E+03	2.137325E-15	8.146769E-18
6.610277E+03	2.130374E-15	8.127008E-18
6.620203E+03	2.120445E-15	8.095957E-18
6.630128E+03	2.107852E-15	8.054785E-18
6.640054E+03	2.092829E-15	8.004358E-18
6.649979E+03	2.075711E-15	7.945924E-18
6.659904E+03	2.056840E-15	7.880769E-18
6.669830E+03	2.036482E-15	7.809895E-18
6.679755E+03	2.015031E-15	7.734785E-18
6.689680E+03	1.992738E-15	7.656392E-18
6.699606E+03	1.969893E-15	7.575817E-18
6.709531E+03	1.946818E-15	7.494284E-18
6.719456E+03	1.923709E-15	7.412542E-18
6.729382E+03	1.900815E-15	7.331548E-18
6.739307E+03	1.878334E-15	7.252060E-18
6.749232E+03	1.856438E-15	7.174744E-18
6.759158E+03	1.835272E-15	7.100168E-18
6.769083E+03	1.814985E-15	7.028902E-18
6.779008E+03	1.795625E-15	6.961147E-18
6.788934E+03	1.777318E-15	6.897396E-18
6.798859E+03	1.760095E-15	6.837782E-18
6.808784E+03	1.744000E-15	6.782478E-18
6.818710E+03	1.729055E-15	6.731589E-18
6.828635E+03	1.715276E-15	6.685181E-18
6.838560E+03	1.702688E-15	6.643369E-18
6.848486E+03	1.691266E-15	6.606062E-18
6.858411E+03	1.680996E-15	6.573224E-18
6.868336E+03	1.671887E-15	6.544895E-18
6.878262E+03	1.663870E-15	6.520822E-18
6.888187E+03	1.656965E-15	6.501099E-18
6.898112E+03	1.651119E-15	6.485523E-18
6.908038E+03	1.646296E-15	6.473965E-18
6.917963E+03	1.642455E-15	6.466286E-18
6.927888E+03	1.639557E-15	6.462332E-18
6.937814E+03	1.637577E-15	6.462020E-18
6.947739E+03	1.636420E-15	6.464989E-18
6.957664E+03	1.636058E-15	6.471132E-18
6.967590E+03	1.636459E-15	6.480338E-18
6.977515E+03	1.637520E-15	6.492203E-18
6.987440E+03	1.639181E-15	6.506501E-18
6.997366E+03	1.641429E-15	6.523183E-18
7.007291E+03	1.644149E-15	6.541804E-18
7.017216E+03	1.647304E-15	6.562218E-18
7.027142E+03	1.650825E-15	6.584156E-18
7.037067E+03	1.654622E-15	6.607266E-18
7.046993E+03	1.658632E-15	6.631295E-18
7.056918E+03	1.662814E-15	6.656085E-18
7.066843E+03	1.667087E-15	6.681310E-18
7.076769E+03	1.671395E-15	6.706744E-18
7.086694E+03	1.675686E-15	6.732183E-18
7.096619E+03	1.679943E-15	6.757554E-18
7.106545E+03	1.684077E-15	6.782495E-18
7.116470E+03	1.688082E-15	6.806983E-18
7.126395E+03	1.691906E-15	6.830804E-18
7.136321E+03	1.695580E-15	6.854082E-18
7.146246E+03	1.699017E-15	6.876455E-18
7.156171E+03	1.702256E-15	6.898085E-18
7.166097E+03	1.705269E-15	6.918850E-18
7.176022E+03	1.708086E-15	6.938863E-18
7.185947E+03	1.710657E-15	6.957928E-18
7.195873E+03	1.713022E-15	6.976193E-18
7.205798E+03	1.715166E-15	6.993599E-18
7.215723E+03	1.717133E-15	7.010320E-18
7.225649E+03	1.718918E-15	7.026327E-18
7.235574E+03	1.720569E-15	7.041820E-18
7.245499E+03	1.722058E-15	7.056678E-18
7.255425E+03	1.723436E-15	7.071108E-18
7.265350E+03	1.724731E-15	7.085220E-18
7.275275E+03	1.725943E-15	7.099011E-18
7.285201E+03	1.727096E-15	7.112585E-18
7.295126E+03	1.728245E-15	7.126157E-18
7.305051E+03	1.729360E-15	7.139609E-18
7.314977E+03	1.730490E-15	7.153145E-18
7.324902E+03	1.731634E-15	7.166749E-18
7.334827E+03	1.732836E-15	7.180614E-18
7.344753E+03	1.734062E-15	7.194596E-18
7.354678E+03	1.735356E-15	7.208871E-18
7.364603E+03	1.736705E-15	7.223393E-18
7.374529E+03	1.738120E-15	7.238208E-18
7.384454E+03	1.739615E-15	7.253367E-18
7.394379E+03	1.741226E-15	7.269024E-18
7.404305E+03	1.742905E-15	7.284985E-18
7.414230E+03	1.744744E-15	7.301630E-18
7.424156E+03	1.746696E-15	7.318765E-18
7.434081E+03	1.748795E-15	7.336538E-18
7.444006E+03	1.751051E-15	7.354984E-18
7.453932E+03	1.753501E-15	7.374262E-18
7.463857E+03	1.756125E-15	7.394298E-18
7.473782E+03	1.758962E-15	7.415251E-18
7.483708E+03	1.762023E-15	7.437172E-18
7.493633E+03	1.765318E-15	7.460106E-18
7.503558E+03	1.768858E-15	7.484102E-18
7.513484E+03	1.772653E-15	7.509210E-18
7.523409E+03	1.776742E-15	7.535591E-18
7.533334E+03	1.781103E-15	7.563162E-18
7.543260E+03	1.785775E-15	7.592086E-18
7.553185E+03	1.790733E-15	7.622266E-18
7.563110E+03	1.796011E-15	7.653849E-18
7.573036E+03	1.801613E-15	7.686857E-18
7.582961E+03	1.807542E-15	7.721305E-18
7.592886E+03	1.813799E-15	7.757205E-18
7.602812E+03	1.820385E-15	7.794560E-18
7.612737E+03	1.827296E-15	7.833366E-18
7.622662E+03	1.834532E-15	7.873618E-18
7.632588E+03	1.842116E-15	7.915421E-18
7.642513E+03	1.849978E-15	7.958484E-18
7.652438E+03	1.858167E-15	8.003015E-18
7.662364E+03	1.866635E-15	8.048820E-18
7.672289E+03	1.875361E-15	8.095800E-18
7.682214E+03	1.884315E-15	8.143838E-18
7.692140E+03	1.893464E-15	8.192785E-18
7.702065E+03	1.902768E-15	8.242480E-18
