#wls	flux	fluxerr
1.588055E+03	8.351872E-17	2.434770E-18
1.627756E+03	8.401191E-17	2.439389E-18
1.667457E+03	8.435574E-17	2.439318E-18
1.707159E+03	8.454402E-17	2.434421E-18
1.746860E+03	8.459851E-17	2.425373E-18
1.786561E+03	8.446718E-17	2.410731E-18
1.826263E+03	8.410209E-17	2.389203E-18
1.865964E+03	8.346336E-17	2.359750E-18
1.905666E+03	8.249376E-17	2.320874E-18
1.945367E+03	8.117069E-17	2.272085E-18
1.985068E+03	7.951344E-17	2.214079E-18
2.024770E+03	7.764363E-17	2.150384E-18
2.064471E+03	7.589430E-17	2.090281E-18
2.104172E+03	7.470282E-17	2.045709E-18
2.143874E+03	7.448431E-17	2.027711E-18
2.183575E+03	7.540969E-17	2.040439E-18
2.223277E+03	7.738078E-17	2.080669E-18
2.262978E+03	8.006854E-17	2.139049E-18
2.302679E+03	8.308776E-17	2.204943E-18
2.342381E+03	8.621422E-17	2.272220E-18
2.382082E+03	8.924459E-17	2.335453E-18
2.421783E+03	9.215438E-17	2.394013E-18
2.461485E+03	9.489353E-17	2.446633E-18
2.501186E+03	9.748589E-17	2.493976E-18
2.540887E+03	9.993326E-17	2.536133E-18
2.580589E+03	1.022727E-16	2.574084E-18
2.620290E+03	1.045400E-16	2.608747E-18
2.659992E+03	1.067169E-16	2.639677E-18
2.699693E+03	1.088322E-16	2.667599E-18
2.739394E+03	1.109120E-16	2.693143E-18
2.779096E+03	1.129450E-16	2.716030E-18
2.818797E+03	1.149690E-16	2.737144E-18
2.858498E+03	1.169852E-16	2.756486E-18
2.898200E+03	1.190102E-16	2.774405E-18
2.937901E+03	1.210757E-16	2.791584E-18
2.977602E+03	1.231947E-16	2.808248E-18
2.987528E+03	1.237427E-16	2.812547E-18
2.997453E+03	1.242977E-16	2.816890E-18
3.007378E+03	1.248432E-16	2.820900E-18
3.017304E+03	1.254127E-16	2.825335E-18
3.027229E+03	1.259922E-16	2.829872E-18
3.037155E+03	1.265843E-16	2.834569E-18
3.047080E+03	1.271885E-16	2.839410E-18
3.057005E+03	1.278065E-16	2.844431E-18
3.066931E+03	1.284534E-16	2.849961E-18
3.076856E+03	1.290952E-16	2.855245E-18
3.086781E+03	1.297800E-16	2.861338E-18
3.096707E+03	1.304577E-16	2.867134E-18
3.106632E+03	1.311761E-16	2.873682E-18
3.116557E+03	1.318858E-16	2.879888E-18
3.126483E+03	1.326345E-16	2.886796E-18
3.136408E+03	1.333890E-16	2.893676E-18
3.146333E+03	1.341650E-16	2.900861E-18
3.156259E+03	1.349615E-16	2.908328E-18
3.166184E+03	1.357619E-16	2.915715E-18
3.176109E+03	1.365978E-16	2.923696E-18
3.186035E+03	1.374525E-16	2.931905E-18
3.195960E+03	1.383096E-16	2.939988E-18
3.205885E+03	1.392163E-16	2.948945E-18
3.215811E+03	1.401245E-16	2.957747E-18
3.225736E+03	1.410653E-16	2.967049E-18
3.235661E+03	1.420225E-16	2.976500E-18
3.245587E+03	1.430115E-16	2.986419E-18
3.255512E+03	1.440318E-16	2.996785E-18
3.265437E+03	1.450829E-16	3.007581E-18
3.275363E+03	1.461488E-16	3.018468E-18
3.285288E+03	1.472602E-16	3.030072E-18
3.295213E+03	1.483857E-16	3.041738E-18
3.305139E+03	1.495558E-16	3.054086E-18
3.315064E+03	1.507700E-16	3.067093E-18
3.324989E+03	1.519972E-16	3.080115E-18
3.334915E+03	1.532829E-16	3.094069E-18
3.344840E+03	1.545962E-16	3.108315E-18
3.354765E+03	1.559517E-16	3.123141E-18
3.364691E+03	1.573491E-16	3.138527E-18
3.374616E+03	1.587879E-16	3.154452E-18
3.384541E+03	1.602827E-16	3.171191E-18
3.394467E+03	1.618179E-16	3.188426E-18
3.404392E+03	1.633931E-16	3.206133E-18
3.414318E+03	1.650228E-16	3.224586E-18
3.424243E+03	1.667063E-16	3.243757E-18
3.434168E+03	1.684432E-16	3.263620E-18
3.444094E+03	1.702329E-16	3.284151E-18
3.454019E+03	1.720895E-16	3.305605E-18
3.463944E+03	1.739977E-16	3.327672E-18
3.473870E+03	1.759573E-16	3.350328E-18
3.483795E+03	1.779820E-16	3.373822E-18
3.493720E+03	1.800713E-16	3.398124E-18
3.503646E+03	1.822388E-16	3.423473E-18
3.513571E+03	1.844554E-16	3.449298E-18
3.523496E+03	1.867491E-16	3.476108E-18
3.533422E+03	1.891049E-16	3.503604E-18
3.543347E+03	1.915365E-16	3.532016E-18
3.553272E+03	1.940432E-16	3.561312E-18
3.563198E+03	1.966382E-16	3.591711E-18
3.573123E+03	1.992931E-16	3.622668E-18
3.583048E+03	2.020212E-16	3.654406E-18
3.592974E+03	2.048496E-16	3.687390E-18
3.602899E+03	2.077361E-16	3.720837E-18
3.612824E+03	2.107214E-16	3.755452E-18
3.622750E+03	2.137912E-16	3.790949E-18
3.632675E+03	2.169310E-16	3.827051E-18
3.642600E+03	2.201676E-16	3.864203E-18
3.652526E+03	2.235003E-16	3.902364E-18
3.662451E+03	2.269148E-16	3.941256E-18
3.672376E+03	2.304239E-16	3.981075E-18
3.682302E+03	2.340271E-16	4.021781E-18
3.692227E+03	2.377104E-16	4.063106E-18
3.702152E+03	2.414997E-16	4.105465E-18
3.712078E+03	2.453944E-16	4.148812E-18
3.722003E+03	2.493673E-16	4.192661E-18
3.731928E+03	2.534444E-16	4.237417E-18
3.741854E+03	2.576248E-16	4.283032E-18
3.751779E+03	2.619080E-16	4.329465E-18
3.761704E+03	2.662803E-16	4.376460E-18
3.771630E+03	2.707671E-16	4.424398E-18
3.781555E+03	2.753419E-16	4.472816E-18
3.791480E+03	2.800299E-16	4.522088E-18
3.801406E+03	2.848175E-16	4.571962E-18
3.811331E+03	2.897044E-16	4.622397E-18
3.821257E+03	2.947024E-16	4.673550E-18
3.831182E+03	2.997986E-16	4.725177E-18
3.841107E+03	3.050048E-16	4.777434E-18
3.851033E+03	3.103079E-16	4.830078E-18
3.860958E+03	3.157199E-16	4.883263E-18
3.870883E+03	3.212402E-16	4.936942E-18
3.880809E+03	3.268557E-16	4.990881E-18
3.890734E+03	3.325784E-16	5.045226E-18
3.900659E+03	3.383953E-16	5.099746E-18
3.910585E+03	3.443182E-16	5.154588E-18
3.920510E+03	3.503467E-16	5.209705E-18
3.930435E+03	3.564800E-16	5.265054E-18
3.940361E+03	3.627054E-16	5.320409E-18
3.950286E+03	3.690226E-16	5.375735E-18
3.960211E+03	3.754430E-16	5.431167E-18
3.970137E+03	3.819661E-16	5.486661E-18
3.980062E+03	3.885673E-16	5.541830E-18
3.989987E+03	3.952703E-16	5.596983E-18
3.999913E+03	4.020624E-16	5.651907E-18
4.009838E+03	4.089313E-16	5.706399E-18
4.019763E+03	4.158885E-16	5.760592E-18
4.029689E+03	4.229336E-16	5.814449E-18
4.039614E+03	4.300659E-16	5.867932E-18
4.049539E+03	4.372616E-16	5.920687E-18
4.059465E+03	4.445320E-16	5.972846E-18
4.069390E+03	4.518768E-16	6.024378E-18
4.079315E+03	4.592838E-16	6.075097E-18
4.089241E+03	4.667645E-16	6.125132E-18
4.099166E+03	4.742952E-16	6.174151E-18
4.109091E+03	4.818873E-16	6.222284E-18
4.119017E+03	4.895289E-16	6.269360E-18
4.128942E+03	4.972197E-16	6.315358E-18
4.138867E+03	5.049481E-16	6.360117E-18
4.148793E+03	5.127255E-16	6.403768E-18
4.158718E+03	5.205285E-16	6.446008E-18
4.168643E+03	5.283574E-16	6.486832E-18
4.178569E+03	5.362119E-16	6.526232E-18
4.188494E+03	5.440806E-16	6.564064E-18
4.198419E+03	5.519749E-16	6.600464E-18
4.208345E+03	5.598608E-16	6.635025E-18
4.218270E+03	5.677498E-16	6.667888E-18
4.228196E+03	5.756420E-16	6.699059E-18
4.238121E+03	5.835037E-16	6.728154E-18
4.248046E+03	5.913577E-16	6.755451E-18
4.257972E+03	5.991931E-16	6.780836E-18
4.267897E+03	6.069878E-16	6.804075E-18
4.277822E+03	6.147420E-16	6.825193E-18
4.287748E+03	6.224563E-16	6.844220E-18
4.297673E+03	6.301201E-16	6.861063E-18
4.307598E+03	6.377116E-16	6.875517E-18
4.317524E+03	6.452425E-16	6.887741E-18
4.327449E+03	6.527025E-16	6.897661E-18
4.337374E+03	6.600811E-16	6.905204E-18
4.347300E+03	6.673682E-16	6.910308E-18
4.357225E+03	6.745536E-16	6.912915E-18
4.367150E+03	6.816384E-16	6.913086E-18
4.377076E+03	6.886232E-16	6.910882E-18
4.387001E+03	6.954875E-16	6.906148E-18
4.396926E+03	7.022214E-16	6.898851E-18
4.406852E+03	7.088370E-16	6.889172E-18
4.416777E+03	7.153138E-16	6.876978E-18
4.426702E+03	7.216642E-16	6.862454E-18
4.436628E+03	7.278679E-16	6.845481E-18
4.446553E+03	7.339363E-16	6.826237E-18
4.456478E+03	7.398617E-16	6.804726E-18
4.466404E+03	7.456667E-16	6.781232E-18
4.476329E+03	7.513199E-16	6.755543E-18
4.486254E+03	7.568459E-16	6.727962E-18
4.496180E+03	7.622452E-16	6.698570E-18
4.506105E+03	7.675108E-16	6.667383E-18
4.516030E+03	7.726538E-16	6.634582E-18
4.525956E+03	7.776781E-16	6.600279E-18
4.535881E+03	7.825847E-16	6.564564E-18
4.545806E+03	7.873668E-16	6.527464E-18
4.555732E+03	7.920471E-16	6.489252E-18
4.565657E+03	7.966188E-16	6.449955E-18
4.575582E+03	8.010851E-16	6.409685E-18
4.585508E+03	8.054501E-16	6.368561E-18
4.595433E+03	8.097265E-16	6.326772E-18
4.605358E+03	8.139192E-16	6.284441E-18
4.615284E+03	8.180220E-16	6.241610E-18
4.625209E+03	8.220493E-16	6.198479E-18
4.635135E+03	8.259957E-16	6.155098E-18
4.645060E+03	8.298764E-16	6.111672E-18
4.654985E+03	8.336977E-16	6.068341E-18
4.664911E+03	8.374537E-16	6.025155E-18
4.674836E+03	8.411507E-16	5.982255E-18
4.684761E+03	8.447952E-16	5.939787E-18
4.694687E+03	8.483825E-16	5.897817E-18
4.704612E+03	8.519305E-16	5.856567E-18
4.714537E+03	8.554343E-16	5.816109E-18
4.724463E+03	8.588806E-16	5.776455E-18
4.734388E+03	8.622975E-16	5.737900E-18
4.744313E+03	8.656692E-16	5.700446E-18
4.754239E+03	8.690135E-16	5.664319E-18
4.764164E+03	8.723469E-16	5.629733E-18
4.774089E+03	8.756754E-16	5.596832E-18
4.784015E+03	8.790147E-16	5.565822E-18
4.793940E+03	8.823809E-16	5.536909E-18
4.803865E+03	8.858004E-16	5.510361E-18
4.813791E+03	8.892675E-16	5.486241E-18
4.823716E+03	8.927968E-16	5.464742E-18
4.833641E+03	8.964106E-16	5.446100E-18
4.843567E+03	9.001033E-16	5.430377E-18
4.853492E+03	9.038875E-16	5.417747E-18
4.863417E+03	9.077743E-16	5.408372E-18
4.873343E+03	9.117653E-16	5.402350E-18
4.883268E+03	9.158617E-16	5.399780E-18
4.893193E+03	9.200818E-16	5.400858E-18
4.903119E+03	9.244156E-16	5.405610E-18
4.913044E+03	9.288607E-16	5.414107E-18
4.922969E+03	9.334245E-16	5.426461E-18
4.932895E+03	9.381043E-16	5.442661E-18
4.942820E+03	9.428949E-16	5.462655E-18
4.952745E+03	9.478136E-16	5.486517E-18
4.962671E+03	9.528228E-16	5.513997E-18
4.972596E+03	9.579506E-16	5.545221E-18
4.982521E+03	9.631802E-16	5.580053E-18
4.992447E+03	9.685049E-16	5.618407E-18
5.002372E+03	9.739202E-16	5.660210E-18
5.012297E+03	9.794301E-16	5.705432E-18
5.022223E+03	9.850177E-16	5.753918E-18
5.032148E+03	9.906870E-16	5.805634E-18
5.042074E+03	9.964217E-16	5.860421E-18
5.051999E+03	1.002236E-15	5.918297E-18
5.061924E+03	1.008103E-15	5.979039E-18
5.071850E+03	1.014027E-15	6.042600E-18
5.081775E+03	1.020002E-15	6.108871E-18
5.091700E+03	1.026022E-15	6.177745E-18
5.101626E+03	1.032091E-15	6.249173E-18
5.111551E+03	1.038181E-15	6.322915E-18
5.121476E+03	1.044299E-15	6.398921E-18
5.131402E+03	1.050449E-15	6.477154E-18
5.141327E+03	1.056603E-15	6.557357E-18
5.151252E+03	1.062779E-15	6.639565E-18
5.161178E+03	1.068950E-15	6.723527E-18
5.171103E+03	1.075132E-15	6.809269E-18
5.181028E+03	1.081310E-15	6.896614E-18
5.190954E+03	1.087480E-15	6.985463E-18
5.200879E+03	1.093637E-15	7.075703E-18
5.210804E+03	1.099789E-15	7.167309E-18
5.220730E+03	1.105909E-15	7.260027E-18
5.230655E+03	1.112005E-15	7.353842E-18
5.240580E+03	1.118075E-15	7.448654E-18
5.250506E+03	1.124115E-15	7.544370E-18
5.260431E+03	1.130123E-15	7.640897E-18
5.270356E+03	1.136086E-15	7.738077E-18
5.280282E+03	1.142023E-15	7.835974E-18
5.290207E+03	1.147912E-15	7.934357E-18
5.300132E+03	1.153762E-15	8.033229E-18
5.310058E+03	1.159560E-15	8.132426E-18
5.319983E+03	1.165317E-15	8.231964E-18
5.329908E+03	1.171023E-15	8.331699E-18
5.339834E+03	1.176686E-15	8.431640E-18
5.349759E+03	1.182310E-15	8.531738E-18
5.359684E+03	1.187871E-15	8.631765E-18
5.369610E+03	1.193392E-15	8.731835E-18
5.379535E+03	1.198864E-15	8.831815E-18
5.389460E+03	1.204287E-15	8.931664E-18
5.399386E+03	1.209665E-15	9.031340E-18
5.409311E+03	1.215010E-15	9.130894E-18
5.419237E+03	1.220300E-15	9.230109E-18
5.429162E+03	1.225550E-15	9.329043E-18
5.439087E+03	1.230777E-15	9.427780E-18
5.449013E+03	1.235956E-15	9.526091E-18
5.458938E+03	1.241105E-15	9.624057E-18
5.468863E+03	1.246213E-15	9.721566E-18
5.478789E+03	1.251285E-15	9.818604E-18
5.488714E+03	1.256310E-15	9.915055E-18
5.498639E+03	1.261317E-15	1.001110E-17
5.508565E+03	1.266312E-15	1.010675E-17
5.518490E+03	1.271309E-15	1.020209E-17
5.528415E+03	1.276301E-15	1.029703E-17
5.538341E+03	1.281290E-15	1.039156E-17
5.548266E+03	1.286294E-15	1.048579E-17
5.558191E+03	1.291291E-15	1.057953E-17
5.568117E+03	1.296325E-15	1.067309E-17
5.578042E+03	1.301358E-15	1.076616E-17
5.587967E+03	1.306410E-15	1.085886E-17
5.597893E+03	1.311496E-15	1.095131E-17
5.607818E+03	1.316594E-15	1.104330E-17
5.617743E+03	1.321734E-15	1.113505E-17
5.627669E+03	1.326893E-15	1.122636E-17
5.637594E+03	1.332088E-15	1.131736E-17
5.647519E+03	1.337321E-15	1.140805E-17
5.657445E+03	1.342597E-15	1.149843E-17
5.667370E+03	1.347904E-15	1.158843E-17
5.677295E+03	1.353246E-15	1.167802E-17
5.687221E+03	1.358638E-15	1.176735E-17
5.697146E+03	1.364070E-15	1.185631E-17
5.707071E+03	1.369557E-15	1.194501E-17
5.716997E+03	1.375075E-15	1.203324E-17
5.726922E+03	1.380653E-15	1.212123E-17
5.736847E+03	1.386266E-15	1.220877E-17
5.746773E+03	1.391929E-15	1.229595E-17
5.756698E+03	1.397644E-15	1.238281E-17
5.766623E+03	1.403386E-15	1.246910E-17
5.776549E+03	1.409196E-15	1.255519E-17
5.786474E+03	1.415036E-15	1.264071E-17
5.796399E+03	1.420921E-15	1.272580E-17
5.806325E+03	1.426853E-15	1.281047E-17
5.816250E+03	1.432818E-15	1.289459E-17
5.826176E+03	1.438833E-15	1.297829E-17
5.836101E+03	1.444899E-15	1.306158E-17
5.846026E+03	1.450989E-15	1.314422E-17
5.855952E+03	1.457120E-15	1.322636E-17
5.865877E+03	1.463293E-15	1.330798E-17
5.875802E+03	1.469510E-15	1.338911E-17
5.885728E+03	1.475760E-15	1.346964E-17
5.895653E+03	1.482058E-15	1.354970E-17
5.905578E+03	1.488393E-15	1.362919E-17
5.915504E+03	1.494753E-15	1.370800E-17
5.925429E+03	1.501169E-15	1.378640E-17
5.935354E+03	1.507616E-15	1.386417E-17
5.945280E+03	1.514111E-15	1.394145E-17
5.955205E+03	1.520657E-15	1.401829E-17
5.965130E+03	1.527241E-15	1.409455E-17
5.975056E+03	1.533885E-15	1.417043E-17
5.984981E+03	1.540575E-15	1.424581E-17
5.994906E+03	1.547317E-15	1.432074E-17
6.004832E+03	1.554127E-15	1.439537E-17
6.014757E+03	1.560994E-15	1.446960E-17
6.024682E+03	1.567923E-15	1.454349E-17
6.034608E+03	1.574930E-15	1.461718E-17
6.044533E+03	1.582021E-15	1.469072E-17
6.054458E+03	1.589182E-15	1.476399E-17
6.064384E+03	1.596431E-15	1.483716E-17
6.074309E+03	1.603754E-15	1.491011E-17
6.084234E+03	1.611182E-15	1.498313E-17
6.094160E+03	1.618685E-15	1.505594E-17
6.104085E+03	1.626294E-15	1.512883E-17
6.114010E+03	1.633989E-15	1.520162E-17
6.123936E+03	1.641783E-15	1.527446E-17
6.133861E+03	1.649655E-15	1.534712E-17
6.143786E+03	1.657614E-15	1.541973E-17
6.153712E+03	1.665636E-15	1.549203E-17
6.163637E+03	1.673709E-15	1.556396E-17
6.173562E+03	1.681836E-15	1.563552E-17
6.183488E+03	1.689995E-15	1.570652E-17
6.193413E+03	1.698182E-15	1.577695E-17
6.203338E+03	1.706410E-15	1.584691E-17
6.213264E+03	1.714655E-15	1.591620E-17
6.223189E+03	1.722908E-15	1.598474E-17
6.233115E+03	1.731173E-15	1.605253E-17
6.243040E+03	1.739422E-15	1.611932E-17
6.252965E+03	1.747655E-15	1.618507E-17
6.262891E+03	1.755835E-15	1.624945E-17
6.272816E+03	1.763978E-15	1.631260E-17
6.282741E+03	1.772042E-15	1.637411E-17
6.292667E+03	1.780007E-15	1.643378E-17
6.302592E+03	1.787862E-15	1.649150E-17
6.312517E+03	1.795580E-15	1.654702E-17
6.322443E+03	1.803132E-15	1.660007E-17
6.332368E+03	1.810506E-15	1.665053E-17
6.342293E+03	1.817634E-15	1.669776E-17
6.352219E+03	1.824538E-15	1.674197E-17
6.362144E+03	1.831149E-15	1.678252E-17
6.372069E+03	1.837469E-15	1.681943E-17
6.381995E+03	1.843425E-15	1.685204E-17
6.391920E+03	1.849001E-15	1.688020E-17
6.401845E+03	1.854148E-15	1.690348E-17
6.411771E+03	1.858836E-15	1.692157E-17
6.421696E+03	1.863023E-15	1.693411E-17
6.431621E+03	1.866662E-15	1.694064E-17
6.441547E+03	1.869712E-15	1.694080E-17
6.451472E+03	1.872149E-15	1.693437E-17
6.461397E+03	1.873971E-15	1.692133E-17
6.471323E+03	1.875177E-15	1.690167E-17
6.481248E+03	1.875808E-15	1.687579E-17
6.491173E+03	1.875869E-15	1.684373E-17
6.501099E+03	1.875326E-15	1.680518E-17
6.511024E+03	1.874228E-15	1.676061E-17
6.520949E+03	1.872545E-15	1.670977E-17
6.530875E+03	1.870291E-15	1.665279E-17
6.540800E+03	1.867480E-15	1.658983E-17
6.550725E+03	1.864112E-15	1.652089E-17
6.560651E+03	1.860185E-15	1.644599E-17
6.570576E+03	1.855705E-15	1.636520E-17
6.580501E+03	1.850694E-15	1.627876E-17
6.590427E+03	1.845140E-15	1.618658E-17
6.600352E+03	1.839093E-15	1.608915E-17
6.610277E+03	1.832524E-15	1.598623E-17
6.620203E+03	1.825488E-15	1.587835E-17
6.630128E+03	1.817980E-15	1.576549E-17
6.640054E+03	1.810017E-15	1.564785E-17
6.649979E+03	1.801618E-15	1.552565E-17
6.659904E+03	1.792845E-15	1.539943E-17
6.669830E+03	1.783680E-15	1.526910E-17
6.679755E+03	1.774144E-15	1.513489E-17
6.689680E+03	1.764303E-15	1.499739E-17
6.699606E+03	1.754142E-15	1.485652E-17
6.709531E+03	1.743706E-15	1.471270E-17
6.719456E+03	1.733023E-15	1.456622E-17
6.729382E+03	1.722116E-15	1.441731E-17
6.739307E+03	1.711016E-15	1.426626E-17
6.749232E+03	1.699747E-15	1.411333E-17
6.759158E+03	1.688335E-15	1.395878E-17
6.769083E+03	1.676809E-15	1.380286E-17
6.779008E+03	1.665212E-15	1.364598E-17
6.788934E+03	1.653532E-15	1.348806E-17
6.798859E+03	1.641831E-15	1.332967E-17
6.808784E+03	1.630096E-15	1.317070E-17
6.818710E+03	1.618387E-15	1.301171E-17
6.828635E+03	1.606709E-15	1.285272E-17
6.838560E+03	1.595082E-15	1.269395E-17
6.848486E+03	1.583546E-15	1.253574E-17
6.858411E+03	1.572084E-15	1.237797E-17
6.868336E+03	1.560750E-15	1.222108E-17
6.878262E+03	1.549525E-15	1.206496E-17
6.888187E+03	1.538464E-15	1.191005E-17
6.898112E+03	1.527544E-15	1.175618E-17
6.908038E+03	1.516816E-15	1.160377E-17
6.917963E+03	1.506257E-15	1.145266E-17
6.927888E+03	1.495917E-15	1.130322E-17
6.937814E+03	1.485772E-15	1.115530E-17
6.947739E+03	1.475831E-15	1.100898E-17
6.957664E+03	1.466141E-15	1.086461E-17
6.967590E+03	1.456675E-15	1.072200E-17
6.977515E+03	1.447442E-15	1.058122E-17
6.987440E+03	1.438468E-15	1.044248E-17
6.997366E+03	1.429741E-15	1.030569E-17
7.007291E+03	1.421285E-15	1.017104E-17
7.017216E+03	1.413072E-15	1.003833E-17
7.027142E+03	1.405143E-15	9.907847E-18
7.037067E+03	1.397466E-15	9.779392E-18
7.046993E+03	1.390065E-15	9.653133E-18
7.056918E+03	1.382943E-15	9.529097E-18
7.066843E+03	1.376105E-15	9.407328E-18
7.076769E+03	1.369520E-15	9.287628E-18
7.086694E+03	1.363225E-15	9.170262E-18
7.096619E+03	1.357206E-15	9.055149E-18
7.106545E+03	1.351466E-15	8.942327E-18
7.116470E+03	1.346009E-15	8.831831E-18
7.126395E+03	1.340821E-15	8.723592E-18
7.136321E+03	1.335918E-15	8.617750E-18
7.146246E+03	1.331290E-15	8.514247E-18
7.156171E+03	1.326937E-15	8.413124E-18
7.166097E+03	1.322860E-15	8.314424E-18
7.176022E+03	1.319081E-15	8.218304E-18
7.185947E+03	1.315551E-15	8.124511E-18
7.195873E+03	1.312322E-15	8.033401E-18
7.205798E+03	1.309361E-15	7.944832E-18
7.215723E+03	1.306674E-15	7.858877E-18
7.225649E+03	1.304259E-15	7.775596E-18
7.235574E+03	1.302136E-15	7.695161E-18
7.245499E+03	1.300274E-15	7.617460E-18
7.255425E+03	1.298691E-15	7.542678E-18
7.265350E+03	1.297387E-15	7.470889E-18
7.275275E+03	1.296366E-15	7.402199E-18
7.285201E+03	1.295610E-15	7.336605E-18
7.295126E+03	1.295138E-15	7.274312E-18
7.305051E+03	1.294934E-15	7.215332E-18
7.314977E+03	1.295014E-15	7.159870E-18
7.324902E+03	1.295362E-15	7.107963E-18
7.334827E+03	1.295993E-15	7.059813E-18
7.344753E+03	1.296891E-15	7.015472E-18
7.354678E+03	1.298070E-15	6.975159E-18
7.364603E+03	1.299511E-15	6.938919E-18
7.374529E+03	1.301211E-15	6.906893E-18
7.384454E+03	1.303184E-15	6.879315E-18
7.394379E+03	1.305390E-15	6.856151E-18
7.404305E+03	1.307875E-15	6.837812E-18
7.414230E+03	1.310581E-15	6.824174E-18
7.424156E+03	1.313534E-15	6.815558E-18
7.434081E+03	1.316690E-15	6.811927E-18
7.444006E+03	1.320071E-15	6.813585E-18
7.453932E+03	1.323649E-15	6.820574E-18
7.463857E+03	1.327410E-15	6.833012E-18
7.473782E+03	1.331336E-15	6.851005E-18
7.483708E+03	1.335392E-15	6.874555E-18
7.493633E+03	1.339594E-15	6.903931E-18
7.503558E+03	1.343907E-15	6.939125E-18
7.513484E+03	1.348379E-15	6.980557E-18
7.523409E+03	1.352993E-15	7.028291E-18
7.533334E+03	1.357776E-15	7.082534E-18
7.543260E+03	1.362723E-15	7.143239E-18
7.553185E+03	1.367878E-15	7.210621E-18
7.563110E+03	1.373231E-15	7.284592E-18
7.573036E+03	1.378771E-15	7.365053E-18
7.582961E+03	1.384537E-15	7.452179E-18
7.592886E+03	1.390516E-15	7.545848E-18
7.602812E+03	1.396693E-15	7.645925E-18
7.612737E+03	1.403105E-15	7.752559E-18
7.622662E+03	1.409734E-15	7.865597E-18
7.632588E+03	1.416600E-15	7.985092E-18
7.642513E+03	1.423664E-15	8.110763E-18
7.652438E+03	1.430961E-15	8.242754E-18
7.662364E+03	1.438489E-15	8.381000E-18
7.672289E+03	1.446227E-15	8.525312E-18
7.682214E+03	1.454170E-15	8.675611E-18
7.692140E+03	1.462335E-15	8.831939E-18
7.702065E+03	1.470718E-15	8.994215E-18
