#wls	flux	fluxerr
1.588055E+03	2.953973E-17	3.407101E-18
1.627756E+03	2.983119E-17	3.425788E-18
1.667457E+03	3.007591E-17	3.438504E-18
1.707159E+03	3.027108E-17	3.444986E-18
1.746860E+03	3.041750E-17	3.445391E-18
1.786561E+03	3.049618E-17	3.437643E-18
1.826263E+03	3.048886E-17	3.419797E-18
1.865964E+03	3.038469E-17	3.390781E-18
1.905666E+03	3.015089E-17	3.347118E-18
1.945367E+03	2.977732E-17	3.287918E-18
1.985068E+03	2.927494E-17	3.214641E-18
2.024770E+03	2.869297E-17	3.132912E-18
2.064471E+03	2.814304E-17	3.055012E-18
2.104172E+03	2.778892E-17	2.998568E-18
2.143874E+03	2.778786E-17	2.980074E-18
2.183575E+03	2.821706E-17	3.007048E-18
2.223277E+03	2.903288E-17	3.073975E-18
2.262978E+03	3.011923E-17	3.167804E-18
2.302679E+03	3.134419E-17	3.274133E-18
2.342381E+03	3.261243E-17	3.382714E-18
2.382082E+03	3.385985E-17	3.486789E-18
2.421783E+03	3.506999E-17	3.584659E-18
2.461485E+03	3.623083E-17	3.675130E-18
2.501186E+03	3.736177E-17	3.760206E-18
2.540887E+03	3.845949E-17	3.839571E-18
2.580589E+03	3.954880E-17	3.915699E-18
2.620290E+03	4.063202E-17	3.988781E-18
2.659992E+03	4.172691E-17	4.060502E-18
2.699693E+03	4.283884E-17	4.131288E-18
2.739394E+03	4.398316E-17	4.202500E-18
2.779096E+03	4.516848E-17	4.274802E-18
2.818797E+03	4.640244E-17	4.348732E-18
2.858498E+03	4.769181E-17	4.424713E-18
2.898200E+03	4.904259E-17	4.503069E-18
2.937901E+03	5.047135E-17	4.585052E-18
2.977602E+03	5.198278E-17	4.670775E-18
2.987528E+03	5.237794E-17	4.693145E-18
2.997453E+03	5.277604E-17	4.715521E-18
3.007378E+03	5.317706E-17	4.737899E-18
3.017304E+03	5.358686E-17	4.760795E-18
3.027229E+03	5.400644E-17	4.784290E-18
3.037155E+03	5.443148E-17	4.807992E-18
3.047080E+03	5.486729E-17	4.832366E-18
3.057005E+03	5.531468E-17	4.857471E-18
3.066931E+03	5.576755E-17	4.882763E-18
3.076856E+03	5.623659E-17	4.909169E-18
3.086781E+03	5.671021E-17	4.935667E-18
3.096707E+03	5.719360E-17	4.962702E-18
3.106632E+03	5.768638E-17	4.990229E-18
3.116557E+03	5.818819E-17	5.018212E-18
3.126483E+03	5.869318E-17	5.046137E-18
3.136408E+03	5.921214E-17	5.074924E-18
3.146333E+03	5.973923E-17	5.104063E-18
3.156259E+03	6.027421E-17	5.133523E-18
3.166184E+03	6.082235E-17	5.163745E-18
3.176109E+03	6.137241E-17	5.193764E-18
3.186035E+03	6.193521E-17	5.224490E-18
3.195960E+03	6.250500E-17	5.255426E-18
3.205885E+03	6.308167E-17	5.286558E-18
3.215811E+03	6.367055E-17	5.318320E-18
3.225736E+03	6.426588E-17	5.350223E-18
3.235661E+03	6.487314E-17	5.382713E-18
3.245587E+03	6.548659E-17	5.415304E-18
3.255512E+03	6.611168E-17	5.448438E-18
3.265437E+03	6.674820E-17	5.482085E-18
3.275363E+03	6.739063E-17	5.515783E-18
3.285288E+03	6.804431E-17	5.549959E-18
3.295213E+03	6.870911E-17	5.584590E-18
3.305139E+03	6.937948E-17	5.619218E-18
3.315064E+03	7.006623E-17	5.654705E-18
3.324989E+03	7.076379E-17	5.690589E-18
3.334915E+03	7.147210E-17	5.726852E-18
3.344840E+03	7.218567E-17	5.763046E-18
3.354765E+03	7.292060E-17	5.800442E-18
3.364691E+03	7.366070E-17	5.837739E-18
3.374616E+03	7.441654E-17	5.875763E-18
3.384541E+03	7.518274E-17	5.914075E-18
3.394467E+03	7.595922E-17	5.952656E-18
3.404392E+03	7.675132E-17	5.991912E-18
3.414318E+03	7.755876E-17	6.031806E-18
3.424243E+03	7.837636E-17	6.071919E-18
3.434168E+03	7.920929E-17	6.112639E-18
3.444094E+03	8.005736E-17	6.153935E-18
3.454019E+03	8.092070E-17	6.195800E-18
3.463944E+03	8.179380E-17	6.237798E-18
3.473870E+03	8.268715E-17	6.280714E-18
3.483795E+03	8.359550E-17	6.324131E-18
3.493720E+03	8.451868E-17	6.368017E-18
3.503646E+03	8.545667E-17	6.412356E-18
3.513571E+03	8.641463E-17	6.457517E-18
3.523496E+03	8.738716E-17	6.503077E-18
3.533422E+03	8.837440E-17	6.549029E-18
3.543347E+03	8.938644E-17	6.596102E-18
3.553272E+03	9.041295E-17	6.643511E-18
3.563198E+03	9.145387E-17	6.691234E-18
3.573123E+03	9.251935E-17	6.739995E-18
3.583048E+03	9.359913E-17	6.789022E-18
3.592974E+03	9.470333E-17	6.839032E-18
3.602899E+03	9.582166E-17	6.889256E-18
3.612824E+03	9.696427E-17	6.940406E-18
3.622750E+03	9.812595E-17	6.992085E-18
3.632675E+03	9.930672E-17	7.044271E-18
3.642600E+03	1.005115E-16	7.097289E-18
3.652526E+03	1.017352E-16	7.150758E-18
3.662451E+03	1.029827E-16	7.205000E-18
3.672376E+03	1.042540E-16	7.259982E-18
3.682302E+03	1.055491E-16	7.315681E-18
3.692227E+03	1.068629E-16	7.371720E-18
3.702152E+03	1.082052E-16	7.428748E-18
3.712078E+03	1.095662E-16	7.486063E-18
3.722003E+03	1.109556E-16	7.544308E-18
3.731928E+03	1.123684E-16	7.603113E-18
3.741854E+03	1.138047E-16	7.662449E-18
3.751779E+03	1.152643E-16	7.722288E-18
3.761704E+03	1.167571E-16	7.783259E-18
3.771630E+03	1.182683E-16	7.844340E-18
3.781555E+03	1.198077E-16	7.906164E-18
3.791480E+03	1.213753E-16	7.968688E-18
3.801406E+03	1.229710E-16	8.031887E-18
3.811331E+03	1.245948E-16	8.095721E-18
3.821257E+03	1.262419E-16	8.159852E-18
3.831182E+03	1.279220E-16	8.224871E-18
3.841107E+03	1.296255E-16	8.290133E-18
3.851033E+03	1.313619E-16	8.356214E-18
3.860958E+03	1.331265E-16	8.422781E-18
3.870883E+03	1.349194E-16	8.489810E-18
3.880809E+03	1.367406E-16	8.557262E-18
3.890734E+03	1.385902E-16	8.625122E-18
3.900659E+03	1.404730E-16	8.693646E-18
3.910585E+03	1.423845E-16	8.762517E-18
3.920510E+03	1.443292E-16	8.831994E-18
3.930435E+03	1.463028E-16	8.901762E-18
3.940361E+03	1.483054E-16	8.971799E-18
3.950286E+03	1.503370E-16	9.042080E-18
3.960211E+03	1.524026E-16	9.112864E-18
3.970137E+03	1.544976E-16	9.183847E-18
3.980062E+03	1.566270E-16	9.255280E-18
3.989987E+03	1.587862E-16	9.326866E-18
3.999913E+03	1.609756E-16	9.398588E-18
4.009838E+03	1.631954E-16	9.470427E-18
4.019763E+03	1.654458E-16	9.542366E-18
4.029689E+03	1.677319E-16	9.614657E-18
4.039614E+03	1.700446E-16	9.686746E-18
4.049539E+03	1.723891E-16	9.758894E-18
4.059465E+03	1.747655E-16	9.831079E-18
4.069390E+03	1.771698E-16	9.903043E-18
4.079315E+03	1.796069E-16	9.975027E-18
4.089241E+03	1.820728E-16	1.004678E-17
4.099166E+03	1.845678E-16	1.011827E-17
4.109091E+03	1.870881E-16	1.018929E-17
4.119017E+03	1.896432E-16	1.026030E-17
4.128942E+03	1.922246E-16	1.033082E-17
4.138867E+03	1.948330E-16	1.040086E-17
4.148793E+03	1.974689E-16	1.047043E-17
4.158718E+03	2.001330E-16	1.053953E-17
4.168643E+03	2.028215E-16	1.060793E-17
4.178569E+03	2.055352E-16	1.067565E-17
4.188494E+03	2.082747E-16	1.074271E-17
4.198419E+03	2.110365E-16	1.080889E-17
4.208345E+03	2.138214E-16	1.087423E-17
4.218270E+03	2.166302E-16	1.093874E-17
4.228196E+03	2.194639E-16	1.100246E-17
4.238121E+03	2.223144E-16	1.106495E-17
4.248046E+03	2.251827E-16	1.112626E-17
4.257972E+03	2.280744E-16	1.118665E-17
4.267897E+03	2.309814E-16	1.124572E-17
4.277822E+03	2.339050E-16	1.130352E-17
4.287748E+03	2.368463E-16	1.136008E-17
4.297673E+03	2.398018E-16	1.141524E-17
4.307598E+03	2.427730E-16	1.146907E-17
4.317524E+03	2.457565E-16	1.152140E-17
4.327449E+03	2.487490E-16	1.157208E-17
4.337374E+03	2.517611E-16	1.162159E-17
4.347300E+03	2.547804E-16	1.166937E-17
4.357225E+03	2.578084E-16	1.171550E-17
4.367150E+03	2.608465E-16	1.176003E-17
4.377076E+03	2.638962E-16	1.180305E-17
4.387001E+03	2.669544E-16	1.184443E-17
4.396926E+03	2.700181E-16	1.188405E-17
4.406852E+03	2.730934E-16	1.192218E-17
4.416777E+03	2.761774E-16	1.195871E-17
4.426702E+03	2.792672E-16	1.199352E-17
4.436628E+03	2.823642E-16	1.202670E-17
4.446553E+03	2.854702E-16	1.205834E-17
4.456478E+03	2.885823E-16	1.208833E-17
4.466404E+03	2.917021E-16	1.211677E-17
4.476329E+03	2.948359E-16	1.214393E-17
4.486254E+03	2.979762E-16	1.216953E-17
4.496180E+03	3.011248E-16	1.219365E-17
4.506105E+03	3.042880E-16	1.221658E-17
4.516030E+03	3.074628E-16	1.223822E-17
4.525956E+03	3.106465E-16	1.225848E-17
4.535881E+03	3.138452E-16	1.227764E-17
4.545806E+03	3.170607E-16	1.229578E-17
4.555732E+03	3.202900E-16	1.231282E-17
4.565657E+03	3.235394E-16	1.232903E-17
4.575582E+03	3.268011E-16	1.234412E-17
4.585508E+03	3.300860E-16	1.235856E-17
4.595433E+03	3.333909E-16	1.237224E-17
4.605358E+03	3.367172E-16	1.238524E-17
4.615284E+03	3.400663E-16	1.239765E-17
4.625209E+03	3.434440E-16	1.240971E-17
4.635135E+03	3.468419E-16	1.242115E-17
4.645060E+03	3.502656E-16	1.243220E-17
4.654985E+03	3.537160E-16	1.244293E-17
4.664911E+03	3.571984E-16	1.245358E-17
4.674836E+03	3.607032E-16	1.246383E-17
4.684761E+03	3.642404E-16	1.247408E-17
4.694687E+03	3.678046E-16	1.248419E-17
4.704612E+03	3.714001E-16	1.249435E-17
4.714537E+03	3.750209E-16	1.250441E-17
4.724463E+03	3.786703E-16	1.251453E-17
4.734388E+03	3.823463E-16	1.252470E-17
4.744313E+03	3.860411E-16	1.253474E-17
4.754239E+03	3.897613E-16	1.254491E-17
4.764164E+03	3.934980E-16	1.255501E-17
4.774089E+03	3.972460E-16	1.256494E-17
4.784015E+03	4.010099E-16	1.257495E-17
4.793940E+03	4.047727E-16	1.258457E-17
4.803865E+03	4.085316E-16	1.259382E-17
4.813791E+03	4.122831E-16	1.260270E-17
4.823716E+03	4.160172E-16	1.261101E-17
4.833641E+03	4.197175E-16	1.261838E-17
4.843567E+03	4.233911E-16	1.262515E-17
4.853492E+03	4.270416E-16	1.263155E-17
4.863417E+03	4.306836E-16	1.263813E-17
4.873343E+03	4.343204E-16	1.264511E-17
4.883268E+03	4.379766E-16	1.265330E-17
4.893193E+03	4.416435E-16	1.266257E-17
4.903119E+03	4.453444E-16	1.267367E-17
4.913044E+03	4.490751E-16	1.268658E-17
4.922969E+03	4.528524E-16	1.270186E-17
4.932895E+03	4.566819E-16	1.271977E-17
4.942820E+03	4.605630E-16	1.274036E-17
4.952745E+03	4.645117E-16	1.276416E-17
4.962671E+03	4.685205E-16	1.279106E-17
4.972596E+03	4.726105E-16	1.282171E-17
4.982521E+03	4.767736E-16	1.285593E-17
4.992447E+03	4.810186E-16	1.289396E-17
5.002372E+03	4.853483E-16	1.293580E-17
5.012297E+03	4.897652E-16	1.298147E-17
5.022223E+03	4.942776E-16	1.303114E-17
5.032148E+03	4.988878E-16	1.308478E-17
5.042074E+03	5.035916E-16	1.314223E-17
5.051999E+03	5.084030E-16	1.320378E-17
5.061924E+03	5.133113E-16	1.326908E-17
5.071850E+03	5.183241E-16	1.333825E-17
5.081775E+03	5.234492E-16	1.341140E-17
5.091700E+03	5.286814E-16	1.348831E-17
5.101626E+03	5.340220E-16	1.356895E-17
5.111551E+03	5.394719E-16	1.365322E-17
5.121476E+03	5.450385E-16	1.374125E-17
5.131402E+03	5.507228E-16	1.383294E-17
5.141327E+03	5.565125E-16	1.392790E-17
5.151252E+03	5.624215E-16	1.402637E-17
5.161178E+03	5.684505E-16	1.412827E-17
5.171103E+03	5.745865E-16	1.423317E-17
5.181028E+03	5.808438E-16	1.434131E-17
5.190954E+03	5.872159E-16	1.445242E-17
5.200879E+03	5.937031E-16	1.456639E-17
5.210804E+03	6.003057E-16	1.468313E-17
5.220730E+03	6.070239E-16	1.480251E-17
5.230655E+03	6.138507E-16	1.492425E-17
5.240580E+03	6.207934E-16	1.504839E-17
5.250506E+03	6.278446E-16	1.517464E-17
5.260431E+03	6.350039E-16	1.530285E-17
5.270356E+03	6.422790E-16	1.543309E-17
5.280282E+03	6.496541E-16	1.556485E-17
5.290207E+03	6.571288E-16	1.569797E-17
5.300132E+03	6.647103E-16	1.583249E-17
5.310058E+03	6.723900E-16	1.596809E-17
5.319983E+03	6.801671E-16	1.610459E-17
5.329908E+03	6.880409E-16	1.624184E-17
5.339834E+03	6.960020E-16	1.637947E-17
5.349759E+03	7.040493E-16	1.651732E-17
5.359684E+03	7.121897E-16	1.665540E-17
5.369610E+03	7.204052E-16	1.679315E-17
5.379535E+03	7.287024E-16	1.693057E-17
5.389460E+03	7.370798E-16	1.706748E-17
5.399386E+03	7.455270E-16	1.720349E-17
5.409311E+03	7.540505E-16	1.733860E-17
5.419237E+03	7.626309E-16	1.747221E-17
5.429162E+03	7.712834E-16	1.760453E-17
5.439087E+03	7.800060E-16	1.773535E-17
5.449013E+03	7.887783E-16	1.786406E-17
5.458938E+03	7.976159E-16	1.799086E-17
5.468863E+03	8.065072E-16	1.811534E-17
5.478789E+03	8.154589E-16	1.823751E-17
5.488714E+03	8.244588E-16	1.835693E-17
5.498639E+03	8.335137E-16	1.847361E-17
5.508565E+03	8.426212E-16	1.858735E-17
5.518490E+03	8.517782E-16	1.869793E-17
5.528415E+03	8.609819E-16	1.880515E-17
5.538341E+03	8.702396E-16	1.890901E-17
5.548266E+03	8.795486E-16	1.900931E-17
5.558191E+03	8.889061E-16	1.910586E-17
5.568117E+03	8.983198E-16	1.919867E-17
5.578042E+03	9.077765E-16	1.928732E-17
5.587967E+03	9.172839E-16	1.937184E-17
5.597893E+03	9.268395E-16	1.945204E-17
5.607818E+03	9.364513E-16	1.952795E-17
5.617743E+03	9.461169E-16	1.959940E-17
5.627669E+03	9.558226E-16	1.966596E-17
5.637594E+03	9.655881E-16	1.972794E-17
5.647519E+03	9.754113E-16	1.978515E-17
5.657445E+03	9.852781E-16	1.983720E-17
5.667370E+03	9.952093E-16	1.988440E-17
5.677295E+03	1.005179E-15	1.992612E-17
5.687221E+03	1.015209E-15	1.996269E-17
5.697146E+03	1.025285E-15	1.999373E-17
5.707071E+03	1.035416E-15	2.001935E-17
5.716997E+03	1.045601E-15	2.003940E-17
5.726922E+03	1.055837E-15	2.005381E-17
5.736847E+03	1.066122E-15	2.006244E-17
5.746773E+03	1.076453E-15	2.006520E-17
5.756698E+03	1.086843E-15	2.006224E-17
5.766623E+03	1.097262E-15	2.005303E-17
5.776549E+03	1.107734E-15	2.003796E-17
5.786474E+03	1.118243E-15	2.001675E-17
5.796399E+03	1.128802E-15	1.998962E-17
5.806325E+03	1.139394E-15	1.995628E-17
5.816250E+03	1.150031E-15	1.991702E-17
5.826176E+03	1.160682E-15	1.987134E-17
5.836101E+03	1.171386E-15	1.981998E-17
5.846026E+03	1.182099E-15	1.976231E-17
5.855952E+03	1.192847E-15	1.969887E-17
5.865877E+03	1.203611E-15	1.962952E-17
5.875802E+03	1.214374E-15	1.955414E-17
5.885728E+03	1.225161E-15	1.947336E-17
5.895653E+03	1.235954E-15	1.938714E-17
5.905578E+03	1.246748E-15	1.929564E-17
5.915504E+03	1.257524E-15	1.919891E-17
5.925429E+03	1.268289E-15	1.909741E-17
5.935354E+03	1.279024E-15	1.899125E-17
5.945280E+03	1.289737E-15	1.888097E-17
5.955205E+03	1.300388E-15	1.876650E-17
5.965130E+03	1.310997E-15	1.864869E-17
5.975056E+03	1.321527E-15	1.852759E-17
5.984981E+03	1.331993E-15	1.840409E-17
5.994906E+03	1.342351E-15	1.827829E-17
6.004832E+03	1.352585E-15	1.815080E-17
6.014757E+03	1.362676E-15	1.802220E-17
6.024682E+03	1.372620E-15	1.789339E-17
6.034608E+03	1.382377E-15	1.776484E-17
6.044533E+03	1.391900E-15	1.763706E-17
6.054458E+03	1.401177E-15	1.751104E-17
6.064384E+03	1.410171E-15	1.738755E-17
6.074309E+03	1.418841E-15	1.726741E-17
6.084234E+03	1.427106E-15	1.715099E-17
6.094160E+03	1.434951E-15	1.703954E-17
6.104085E+03	1.442297E-15	1.693360E-17
6.114010E+03	1.449080E-15	1.683396E-17
6.123936E+03	1.455226E-15	1.674130E-17
6.133861E+03	1.460656E-15	1.665623E-17
6.143786E+03	1.465282E-15	1.657929E-17
6.153712E+03	1.469007E-15	1.651084E-17
6.163637E+03	1.471709E-15	1.645092E-17
6.173562E+03	1.473303E-15	1.639985E-17
6.183488E+03	1.473796E-15	1.635884E-17
6.193413E+03	1.473283E-15	1.632990E-17
6.203338E+03	1.471890E-15	1.631515E-17
6.213264E+03	1.469722E-15	1.631589E-17
6.223189E+03	1.466857E-15	1.633227E-17
6.233115E+03	1.463400E-15	1.636453E-17
6.243040E+03	1.459416E-15	1.641232E-17
6.252965E+03	1.455016E-15	1.647569E-17
6.262891E+03	1.450230E-15	1.655374E-17
6.272816E+03	1.445118E-15	1.664584E-17
6.282741E+03	1.439773E-15	1.675171E-17
6.292667E+03	1.434206E-15	1.687014E-17
6.302592E+03	1.428497E-15	1.700074E-17
6.312517E+03	1.422649E-15	1.714222E-17
6.322443E+03	1.416732E-15	1.729417E-17
6.332368E+03	1.410741E-15	1.745527E-17
6.342293E+03	1.404737E-15	1.762513E-17
6.352219E+03	1.398726E-15	1.780272E-17
6.362144E+03	1.392730E-15	1.798724E-17
6.372069E+03	1.386782E-15	1.817816E-17
6.381995E+03	1.380880E-15	1.837454E-17
6.391920E+03	1.375056E-15	1.857593E-17
6.401845E+03	1.369320E-15	1.878171E-17
6.411771E+03	1.363664E-15	1.899104E-17
6.421696E+03	1.358111E-15	1.920354E-17
6.431621E+03	1.352685E-15	1.941898E-17
6.441547E+03	1.347354E-15	1.963632E-17
6.451472E+03	1.342156E-15	1.985562E-17
6.461397E+03	1.337092E-15	2.007645E-17
6.471323E+03	1.332147E-15	2.029814E-17
6.481248E+03	1.327339E-15	2.052061E-17
6.491173E+03	1.322668E-15	2.074351E-17
6.501099E+03	1.318131E-15	2.096652E-17
6.511024E+03	1.313728E-15	2.118934E-17
6.520949E+03	1.309475E-15	2.141200E-17
6.530875E+03	1.305351E-15	2.163394E-17
6.540800E+03	1.301372E-15	2.185524E-17
6.550725E+03	1.297534E-15	2.207568E-17
6.560651E+03	1.293851E-15	2.229536E-17
6.570576E+03	1.290304E-15	2.251382E-17
6.580501E+03	1.286890E-15	2.273090E-17
6.590427E+03	1.283619E-15	2.294670E-17
6.600352E+03	1.280492E-15	2.316114E-17
6.610277E+03	1.277503E-15	2.337408E-17
6.620203E+03	1.274649E-15	2.358539E-17
6.630128E+03	1.271943E-15	2.379530E-17
6.640054E+03	1.269382E-15	2.400372E-17
6.649979E+03	1.266945E-15	2.421023E-17
6.659904E+03	1.264663E-15	2.441541E-17
6.669830E+03	1.262499E-15	2.461855E-17
6.679755E+03	1.260483E-15	2.482026E-17
6.689680E+03	1.258612E-15	2.502049E-17
6.699606E+03	1.256866E-15	2.521885E-17
6.709531E+03	1.255242E-15	2.541530E-17
6.719456E+03	1.253771E-15	2.561053E-17
6.729382E+03	1.252434E-15	2.580416E-17
6.739307E+03	1.251211E-15	2.599583E-17
6.749232E+03	1.250134E-15	2.618625E-17
6.759158E+03	1.249200E-15	2.637541E-17
6.769083E+03	1.248389E-15	2.656295E-17
6.779008E+03	1.247700E-15	2.674890E-17
6.788934E+03	1.247150E-15	2.693366E-17
6.798859E+03	1.246735E-15	2.711723E-17
6.808784E+03	1.246436E-15	2.729927E-17
6.818710E+03	1.246270E-15	2.748022E-17
6.828635E+03	1.246235E-15	2.766008E-17
6.838560E+03	1.246348E-15	2.783933E-17
6.848486E+03	1.246572E-15	2.801723E-17
6.858411E+03	1.246924E-15	2.819424E-17
6.868336E+03	1.247403E-15	2.837040E-17
6.878262E+03	1.248008E-15	2.854581E-17
6.888187E+03	1.248739E-15	2.872052E-17
6.898112E+03	1.249595E-15	2.889461E-17
6.908038E+03	1.250595E-15	2.906861E-17
6.917963E+03	1.251701E-15	2.924176E-17
6.927888E+03	1.252932E-15	2.941459E-17
6.937814E+03	1.254305E-15	2.958759E-17
6.947739E+03	1.255784E-15	2.976005E-17
6.957664E+03	1.257388E-15	2.993250E-17
6.967590E+03	1.259116E-15	3.010504E-17
6.977515E+03	1.260970E-15	3.027782E-17
6.987440E+03	1.262948E-15	3.045095E-17
6.997366E+03	1.265033E-15	3.062411E-17
7.007291E+03	1.267244E-15	3.079791E-17
7.017216E+03	1.269582E-15	3.097250E-17
7.027142E+03	1.272027E-15	3.114752E-17
7.037067E+03	1.274582E-15	3.132316E-17
7.046993E+03	1.277243E-15	3.149953E-17
7.056918E+03	1.280034E-15	3.167732E-17
7.066843E+03	1.282915E-15	3.185570E-17
7.076769E+03	1.285925E-15	3.203581E-17
7.086694E+03	1.289025E-15	3.221683E-17
7.096619E+03	1.292235E-15	3.239945E-17
7.106545E+03	1.295537E-15	3.258335E-17
7.116470E+03	1.298928E-15	3.276869E-17
7.126395E+03	1.302410E-15	3.295566E-17
7.136321E+03	1.306001E-15	3.314493E-17
7.146246E+03	1.309663E-15	3.333571E-17
7.156171E+03	1.313392E-15	3.352815E-17
7.166097E+03	1.317210E-15	3.372293E-17
7.176022E+03	1.321112E-15	3.392023E-17
7.185947E+03	1.325060E-15	3.411925E-17
7.195873E+03	1.329070E-15	3.432062E-17
7.205798E+03	1.333120E-15	3.452401E-17
7.215723E+03	1.337227E-15	3.473010E-17
7.225649E+03	1.341368E-15	3.493857E-17
7.235574E+03	1.345539E-15	3.514951E-17
7.245499E+03	1.349737E-15	3.536311E-17
7.255425E+03	1.353955E-15	3.557947E-17
7.265350E+03	1.358169E-15	3.579822E-17
7.275275E+03	1.362373E-15	3.601945E-17
7.285201E+03	1.366562E-15	3.624329E-17
7.295126E+03	1.370725E-15	3.646978E-17
7.305051E+03	1.374859E-15	3.669905E-17
7.314977E+03	1.378954E-15	3.693117E-17
7.324902E+03	1.382980E-15	3.716559E-17
7.334827E+03	1.386929E-15	3.740240E-17
7.344753E+03	1.390812E-15	3.764214E-17
7.354678E+03	1.394575E-15	3.788368E-17
7.364603E+03	1.398252E-15	3.812820E-17
7.374529E+03	1.401811E-15	3.837510E-17
7.384454E+03	1.405218E-15	3.862373E-17
7.394379E+03	1.408505E-15	3.887526E-17
7.404305E+03	1.411619E-15	3.912846E-17
7.414230E+03	1.414591E-15	3.938444E-17
7.424156E+03	1.417367E-15	3.964198E-17
7.434081E+03	1.419957E-15	3.990160E-17
7.444006E+03	1.422374E-15	4.016386E-17
7.453932E+03	1.424566E-15	4.042753E-17
7.463857E+03	1.426544E-15	4.069312E-17
7.473782E+03	1.428322E-15	4.096125E-17
7.483708E+03	1.429872E-15	4.123128E-17
7.493633E+03	1.431189E-15	4.150321E-17
7.503558E+03	1.432294E-15	4.177783E-17
7.513484E+03	1.433171E-15	4.205460E-17
7.523409E+03	1.433849E-15	4.233417E-17
7.533334E+03	1.434314E-15	4.261587E-17
7.543260E+03	1.434618E-15	4.290102E-17
7.553185E+03	1.434726E-15	4.318836E-17
7.563110E+03	1.434670E-15	4.347859E-17
7.573036E+03	1.434461E-15	4.377177E-17
7.582961E+03	1.434108E-15	4.406796E-17
7.592886E+03	1.433645E-15	4.436798E-17
7.602812E+03	1.433062E-15	4.467125E-17
7.612737E+03	1.432368E-15	4.497784E-17
7.622662E+03	1.431577E-15	4.528789E-17
7.632588E+03	1.430719E-15	4.560217E-17
7.642513E+03	1.429807E-15	4.592085E-17
7.652438E+03	1.428806E-15	4.624260E-17
7.662364E+03	1.427794E-15	4.656969E-17
7.672289E+03	1.426734E-15	4.690075E-17
7.682214E+03	1.425636E-15	4.723592E-17
7.692140E+03	1.424532E-15	4.757598E-17
7.702065E+03	1.423406E-15	4.792033E-17
