#wls	flux	fluxerr
1.588055E+03	3.564843E-17	7.638529E-19
1.627756E+03	3.587323E-17	7.674019E-19
1.667457E+03	3.604194E-17	7.697020E-19
1.707159E+03	3.613970E-17	7.704418E-19
1.746860E+03	3.617443E-17	7.697965E-19
1.786561E+03	3.613107E-17	7.674522E-19
1.826263E+03	3.598320E-17	7.628576E-19
1.865964E+03	3.570728E-17	7.555267E-19
1.905666E+03	3.529142E-17	7.452243E-19
1.945367E+03	3.470801E-17	7.313868E-19
1.985068E+03	3.397258E-17	7.143642E-19
2.024770E+03	3.314500E-17	6.954346E-19
2.064471E+03	3.235595E-17	6.773485E-19
2.104172E+03	3.179327E-17	6.640257E-19
2.143874E+03	3.163361E-17	6.591149E-19
2.183575E+03	3.195905E-17	6.642618E-19
2.223277E+03	3.270855E-17	6.781241E-19
2.262978E+03	3.374562E-17	6.978086E-19
2.302679E+03	3.491893E-17	7.201428E-19
2.342381E+03	3.611545E-17	7.427734E-19
2.382082E+03	3.726447E-17	7.642399E-19
2.421783E+03	3.834943E-17	7.842059E-19
2.461485E+03	3.935934E-17	8.024526E-19
2.501186E+03	4.030010E-17	8.191078E-19
2.540887E+03	4.118822E-17	8.345133E-19
2.580589E+03	4.203530E-17	8.489077E-19
2.620290E+03	4.284605E-17	8.623885E-19
2.659992E+03	4.364242E-17	8.753978E-19
2.699693E+03	4.442657E-17	8.879760E-19
2.739394E+03	4.520550E-17	9.002599E-19
2.779096E+03	4.599152E-17	9.124887E-19
2.818797E+03	4.678347E-17	9.246322E-19
2.858498E+03	4.759215E-17	9.368955E-19
2.898200E+03	4.842787E-17	9.494706E-19
2.937901E+03	4.928787E-17	9.622906E-19
2.977602E+03	5.017544E-17	9.754065E-19
2.987528E+03	5.040020E-17	9.787023E-19
2.997453E+03	5.063133E-17	9.821055E-19
3.007378E+03	5.086247E-17	9.854924E-19
3.017304E+03	5.110035E-17	9.889934E-19
3.027229E+03	5.133320E-17	9.923803E-19
3.037155E+03	5.158150E-17	9.960488E-19
3.047080E+03	5.182585E-17	9.996234E-19
3.057005E+03	5.207986E-17	1.003367E-18
3.066931E+03	5.234315E-17	1.007270E-18
3.076856E+03	5.260246E-17	1.011079E-18
3.086781E+03	5.287032E-17	1.015033E-18
3.096707E+03	5.314645E-17	1.019126E-18
3.106632E+03	5.342414E-17	1.023230E-18
3.116557E+03	5.370314E-17	1.027339E-18
3.126483E+03	5.398970E-17	1.031573E-18
3.136408E+03	5.427719E-17	1.035803E-18
3.146333E+03	5.456545E-17	1.040028E-18
3.156259E+03	5.486080E-17	1.044366E-18
3.166184E+03	5.515667E-17	1.048693E-18
3.176109E+03	5.545945E-17	1.053130E-18
3.186035E+03	5.576257E-17	1.057551E-18
3.195960E+03	5.606597E-17	1.061955E-18
3.205885E+03	5.637612E-17	1.066464E-18
3.215811E+03	5.668648E-17	1.070954E-18
3.225736E+03	5.700356E-17	1.075548E-18
3.235661E+03	5.732083E-17	1.080122E-18
3.245587E+03	5.763830E-17	1.084676E-18
3.255512E+03	5.796253E-17	1.089333E-18
3.265437E+03	5.828701E-17	1.093971E-18
3.275363E+03	5.861832E-17	1.098712E-18
3.285288E+03	5.894998E-17	1.103434E-18
3.295213E+03	5.928859E-17	1.108260E-18
3.305139E+03	5.962766E-17	1.113070E-18
3.315064E+03	5.996727E-17	1.117863E-18
3.324989E+03	6.031404E-17	1.122763E-18
3.334915E+03	6.066809E-17	1.127772E-18
3.344840E+03	6.101633E-17	1.132645E-18
3.354765E+03	6.137201E-17	1.137630E-18
3.364691E+03	6.173525E-17	1.142726E-18
3.374616E+03	6.209956E-17	1.147813E-18
3.384541E+03	6.247165E-17	1.153015E-18
3.394467E+03	6.283840E-17	1.158089E-18
3.404392E+03	6.321977E-17	1.163403E-18
3.414318E+03	6.360263E-17	1.168715E-18
3.424243E+03	6.398713E-17	1.174025E-18
3.434168E+03	6.437336E-17	1.179337E-18
3.444094E+03	6.477473E-17	1.184894E-18
3.454019E+03	6.517143E-17	1.190334E-18
3.463944E+03	6.557689E-17	1.195901E-18
3.473870E+03	6.599128E-17	1.201597E-18
3.483795E+03	6.640138E-17	1.207183E-18
3.493720E+03	6.682731E-17	1.213021E-18
3.503646E+03	6.724921E-17	1.218752E-18
3.513571E+03	6.768721E-17	1.224740E-18
3.523496E+03	6.812149E-17	1.230624E-18
3.533422E+03	6.856548E-17	1.236647E-18
3.543347E+03	6.901941E-17	1.242813E-18
3.553272E+03	6.947664E-17	1.249000E-18
3.563198E+03	6.993739E-17	1.255212E-18
3.573123E+03	7.040845E-17	1.261570E-18
3.583048E+03	7.088328E-17	1.267957E-18
3.592974E+03	7.136882E-17	1.274494E-18
3.602899E+03	7.185837E-17	1.281062E-18
3.612824E+03	7.235219E-17	1.287665E-18
3.622750E+03	7.285711E-17	1.294423E-18
3.632675E+03	7.337339E-17	1.301340E-18
3.642600E+03	7.388753E-17	1.308175E-18
3.652526E+03	7.442015E-17	1.315292E-18
3.662451E+03	7.495092E-17	1.322331E-18
3.672376E+03	7.549370E-17	1.329536E-18
3.682302E+03	7.604861E-17	1.336907E-18
3.692227E+03	7.660215E-17	1.344207E-18
3.702152E+03	7.717509E-17	1.351798E-18
3.712078E+03	7.774696E-17	1.359321E-18
3.722003E+03	7.833172E-17	1.367019E-18
3.731928E+03	7.892951E-17	1.374893E-18
3.741854E+03	7.952669E-17	1.382703E-18
3.751779E+03	8.014433E-17	1.390817E-18
3.761704E+03	8.076165E-17	1.398870E-18
3.771630E+03	8.139281E-17	1.407108E-18
3.781555E+03	8.203094E-17	1.415411E-18
3.791480E+03	8.268337E-17	1.423903E-18
3.801406E+03	8.334326E-17	1.432465E-18
3.811331E+03	8.401067E-17	1.441097E-18
3.821257E+03	8.469293E-17	1.449923E-18
3.831182E+03	8.538321E-17	1.458826E-18
3.841107E+03	8.608168E-17	1.467805E-18
3.851033E+03	8.679564E-17	1.476985E-18
3.860958E+03	8.751109E-17	1.486126E-18
3.870883E+03	8.824953E-17	1.495591E-18
3.880809E+03	8.898989E-17	1.505021E-18
3.890734E+03	8.974662E-17	1.514660E-18
3.900659E+03	9.051276E-17	1.524388E-18
3.910585E+03	9.129586E-17	1.534331E-18
3.920510E+03	9.208150E-17	1.544243E-18
3.930435E+03	9.288453E-17	1.554374E-18
3.940361E+03	9.369783E-17	1.564602E-18
3.950286E+03	9.452911E-17	1.575054E-18
3.960211E+03	9.536376E-17	1.585484E-18
3.970137E+03	9.621676E-17	1.596140E-18
3.980062E+03	9.708109E-17	1.606904E-18
3.989987E+03	9.796437E-17	1.617899E-18
3.999913E+03	9.885192E-17	1.628882E-18
4.009838E+03	9.975900E-17	1.640100E-18
4.019763E+03	1.006783E-16	1.651434E-18
4.029689E+03	1.016103E-16	1.662886E-18
4.039614E+03	1.025549E-16	1.674457E-18
4.049539E+03	1.035127E-16	1.686150E-18
4.059465E+03	1.044914E-16	1.698091E-18
4.069390E+03	1.054760E-16	1.710033E-18
4.079315E+03	1.064822E-16	1.722230E-18
4.089241E+03	1.075026E-16	1.734558E-18
4.099166E+03	1.085297E-16	1.746893E-18
4.109091E+03	1.095793E-16	1.759491E-18
4.119017E+03	1.106439E-16	1.772225E-18
4.128942E+03	1.117319E-16	1.785226E-18
4.138867E+03	1.128275E-16	1.798244E-18
4.148793E+03	1.139392E-16	1.811406E-18
4.158718E+03	1.150671E-16	1.824718E-18
4.168643E+03	1.162116E-16	1.838178E-18
4.178569E+03	1.173729E-16	1.851789E-18
4.188494E+03	1.185596E-16	1.865683E-18
4.198419E+03	1.197559E-16	1.879607E-18
4.208345E+03	1.209700E-16	1.893690E-18
4.218270E+03	1.222022E-16	1.907934E-18
4.228196E+03	1.234531E-16	1.922341E-18
4.238121E+03	1.247229E-16	1.936916E-18
4.248046E+03	1.260119E-16	1.951659E-18
4.257972E+03	1.273206E-16	1.966572E-18
4.267897E+03	1.286407E-16	1.981528E-18
4.277822E+03	1.299896E-16	1.996789E-18
4.287748E+03	1.313507E-16	2.012098E-18
4.297673E+03	1.327328E-16	2.027585E-18
4.307598E+03	1.341362E-16	2.043253E-18
4.317524E+03	1.355615E-16	2.059106E-18
4.327449E+03	1.370088E-16	2.075144E-18
4.337374E+03	1.384697E-16	2.091235E-18
4.347300E+03	1.399625E-16	2.107651E-18
4.357225E+03	1.414694E-16	2.124123E-18
4.367150E+03	1.430001E-16	2.140789E-18
4.377076E+03	1.445455E-16	2.157512E-18
4.387001E+03	1.461243E-16	2.174569E-18
4.396926E+03	1.477187E-16	2.191686E-18
4.406852E+03	1.493289E-16	2.208865E-18
4.416777E+03	1.509736E-16	2.226381E-18
4.426702E+03	1.526349E-16	2.243961E-18
4.436628E+03	1.543221E-16	2.261742E-18
4.446553E+03	1.560358E-16	2.279725E-18
4.456478E+03	1.577667E-16	2.297773E-18
4.466404E+03	1.595247E-16	2.316025E-18
4.476329E+03	1.613004E-16	2.334338E-18
4.486254E+03	1.631038E-16	2.352857E-18
4.496180E+03	1.649351E-16	2.371578E-18
4.506105E+03	1.667849E-16	2.390360E-18
4.516030E+03	1.686632E-16	2.409345E-18
4.525956E+03	1.705705E-16	2.428532E-18
4.535881E+03	1.724967E-16	2.447775E-18
4.545806E+03	1.744523E-16	2.467217E-18
4.555732E+03	1.764273E-16	2.486712E-18
4.565657E+03	1.784319E-16	2.506402E-18
4.575582E+03	1.804561E-16	2.526138E-18
4.585508E+03	1.825103E-16	2.546064E-18
4.595433E+03	1.845843E-16	2.566030E-18
4.605358E+03	1.866886E-16	2.586180E-18
4.615284E+03	1.888234E-16	2.606510E-18
4.625209E+03	1.909672E-16	2.626719E-18
4.635135E+03	1.931524E-16	2.647248E-18
4.645060E+03	1.953574E-16	2.667794E-18
4.654985E+03	1.975819E-16	2.688352E-18
4.664911E+03	1.998370E-16	2.709066E-18
4.674836E+03	2.021114E-16	2.729778E-18
4.684761E+03	2.044163E-16	2.750634E-18
4.694687E+03	2.067402E-16	2.771476E-18
4.704612E+03	2.090944E-16	2.792449E-18
4.714537E+03	2.114671E-16	2.813391E-18
4.724463E+03	2.138699E-16	2.834451E-18
4.734388E+03	2.162786E-16	2.855306E-18
4.744313E+03	2.187289E-16	2.876420E-18
4.754239E+03	2.211965E-16	2.897470E-18
4.764164E+03	2.236809E-16	2.918445E-18
4.774089E+03	2.261941E-16	2.939496E-18
4.784015E+03	2.287238E-16	2.960459E-18
4.793940E+03	2.312705E-16	2.981335E-18
4.803865E+03	2.338468E-16	3.002287E-18
4.813791E+03	2.364410E-16	3.023153E-18
4.823716E+03	2.390659E-16	3.044097E-18
4.833641E+03	2.417096E-16	3.064959E-18
4.843567E+03	2.443725E-16	3.085741E-18
4.853492E+03	2.470685E-16	3.106616E-18
4.863417E+03	2.497856E-16	3.127423E-18
4.873343E+03	2.525246E-16	3.148170E-18
4.883268E+03	2.552999E-16	3.169031E-18
4.893193E+03	2.581128E-16	3.190015E-18
4.903119E+03	2.609370E-16	3.210791E-18
4.913044E+03	2.638009E-16	3.231704E-18
4.922969E+03	2.667057E-16	3.252761E-18
4.932895E+03	2.696245E-16	3.273628E-18
4.942820E+03	2.725864E-16	3.294653E-18
4.952745E+03	2.755926E-16	3.315841E-18
4.962671E+03	2.786300E-16	3.337028E-18
4.972596E+03	2.816994E-16	3.358217E-18
4.982521E+03	2.848167E-16	3.379588E-18
4.992447E+03	2.879680E-16	3.400971E-18
5.002372E+03	2.911544E-16	3.422370E-18
5.012297E+03	2.943920E-16	3.443965E-18
5.022223E+03	2.976666E-16	3.465583E-18
5.032148E+03	3.009791E-16	3.487225E-18
5.042074E+03	3.043459E-16	3.509074E-18
5.051999E+03	3.077526E-16	3.530952E-18
5.061924E+03	3.112000E-16	3.552861E-18
5.071850E+03	3.147047E-16	3.574983E-18
5.081775E+03	3.182681E-16	3.597319E-18
5.091700E+03	3.218586E-16	3.619506E-18
5.101626E+03	3.255095E-16	3.641908E-18
5.111551E+03	3.292219E-16	3.664526E-18
5.121476E+03	3.329633E-16	3.686989E-18
5.131402E+03	3.367849E-16	3.709854E-18
5.141327E+03	3.406367E-16	3.732559E-18
5.151252E+03	3.445535E-16	3.755475E-18
5.161178E+03	3.485188E-16	3.778411E-18
5.171103E+03	3.525508E-16	3.801555E-18
5.181028E+03	3.566327E-16	3.824713E-18
5.190954E+03	3.607831E-16	3.848072E-18
5.200879E+03	3.649663E-16	3.871243E-18
5.210804E+03	3.692375E-16	3.894800E-18
5.220730E+03	3.735424E-16	3.918156E-18
5.230655E+03	3.779371E-16	3.941889E-18
5.240580E+03	3.823661E-16	3.965409E-18
5.250506E+03	3.868675E-16	3.989100E-18
5.260431E+03	3.914227E-16	4.012757E-18
5.270356E+03	3.960513E-16	4.036572E-18
5.280282E+03	4.007347E-16	4.060340E-18
5.290207E+03	4.054927E-16	4.084251E-18
5.300132E+03	4.103059E-16	4.108097E-18
5.310058E+03	4.151743E-16	4.131868E-18
5.319983E+03	4.201185E-16	4.155757E-18
5.329908E+03	4.251394E-16	4.179757E-18
5.339834E+03	4.301951E-16	4.203448E-18
5.349759E+03	4.353490E-16	4.227437E-18
5.359684E+03	4.405374E-16	4.251093E-18
5.369610E+03	4.458252E-16	4.275031E-18
5.379535E+03	4.511470E-16	4.298610E-18
5.389460E+03	4.565466E-16	4.322240E-18
5.399386E+03	4.620245E-16	4.345912E-18
5.409311E+03	4.675581E-16	4.369400E-18
5.419237E+03	4.731469E-16	4.392691E-18
5.429162E+03	4.788140E-16	4.415990E-18
5.439087E+03	4.845595E-16	4.439284E-18
5.449013E+03	4.903597E-16	4.462344E-18
5.458938E+03	4.962141E-16	4.485158E-18
5.468863E+03	5.021463E-16	4.507931E-18
5.478789E+03	5.081567E-16	4.530652E-18
5.488714E+03	5.142200E-16	4.553087E-18
5.498639E+03	5.203355E-16	4.575222E-18
5.508565E+03	5.265279E-16	4.597266E-18
5.518490E+03	5.327972E-16	4.619209E-18
5.528415E+03	5.391170E-16	4.640812E-18
5.538341E+03	5.455129E-16	4.662290E-18
5.548266E+03	5.519577E-16	4.683401E-18
5.558191E+03	5.584501E-16	4.704132E-18
5.568117E+03	5.650442E-16	4.724930E-18
5.578042E+03	5.716570E-16	4.745092E-18
5.587967E+03	5.783704E-16	4.765298E-18
5.597893E+03	5.851283E-16	4.785076E-18
5.607818E+03	5.919291E-16	4.804411E-18
5.617743E+03	5.988005E-16	4.823525E-18
5.627669E+03	6.057417E-16	4.842410E-18
5.637594E+03	6.127225E-16	4.860818E-18
5.647519E+03	6.197713E-16	4.878976E-18
5.657445E+03	6.268568E-16	4.896637E-18
5.667370E+03	6.340079E-16	4.914029E-18
5.677295E+03	6.412241E-16	4.931145E-18
5.687221E+03	6.484726E-16	4.947738E-18
5.697146E+03	6.557835E-16	4.964038E-18
5.707071E+03	6.631558E-16	4.980042E-18
5.716997E+03	6.705558E-16	4.995501E-18
5.726922E+03	6.780144E-16	5.010652E-18
5.736847E+03	6.854970E-16	5.025247E-18
5.746773E+03	6.930351E-16	5.039527E-18
5.756698E+03	7.006273E-16	5.053489E-18
5.766623E+03	7.082380E-16	5.066888E-18
5.776549E+03	7.158996E-16	5.079966E-18
5.786474E+03	7.235753E-16	5.092479E-18
5.796399E+03	7.313337E-16	5.104924E-18
5.806325E+03	7.391027E-16	5.116806E-18
5.816250E+03	7.468794E-16	5.128130E-18
5.826176E+03	7.547345E-16	5.139400E-18
5.836101E+03	7.625933E-16	5.150122E-18
5.846026E+03	7.704528E-16	5.160303E-18
5.855952E+03	7.783860E-16	5.170455E-18
5.865877E+03	7.863155E-16	5.180087E-18
5.875802E+03	7.942769E-16	5.189460E-18
5.885728E+03	8.022290E-16	5.198336E-18
5.895653E+03	8.102082E-16	5.206982E-18
5.905578E+03	8.182123E-16	5.215415E-18
5.915504E+03	8.262391E-16	5.223654E-18
5.925429E+03	8.342455E-16	5.231461E-18
5.935354E+03	8.423102E-16	5.239368E-18
5.945280E+03	8.503071E-16	5.246631E-18
5.955205E+03	8.583574E-16	5.254040E-18
5.965130E+03	8.663742E-16	5.261106E-18
5.975056E+03	8.744393E-16	5.268371E-18
5.984981E+03	8.824648E-16	5.275350E-18
5.994906E+03	8.904454E-16	5.282063E-18
6.004832E+03	8.984658E-16	5.289067E-18
6.014757E+03	9.064338E-16	5.295867E-18
6.024682E+03	9.143886E-16	5.302753E-18
6.034608E+03	9.223274E-16	5.309761E-18
6.044533E+03	9.301989E-16	5.316659E-18
6.054458E+03	9.380434E-16	5.323738E-18
6.064384E+03	9.459029E-16	5.331298E-18
6.074309E+03	9.536785E-16	5.338842E-18
6.084234E+03	9.613638E-16	5.346405E-18
6.094160E+03	9.690449E-16	5.354535E-18
6.104085E+03	9.766219E-16	5.362745E-18
6.114010E+03	9.841324E-16	5.371316E-18
6.123936E+03	9.915683E-16	5.380273E-18
6.133861E+03	9.989222E-16	5.389648E-18
6.143786E+03	1.006182E-15	5.399452E-18
6.153712E+03	1.013289E-15	5.409438E-18
6.163637E+03	1.020330E-15	5.420153E-18
6.173562E+03	1.027194E-15	5.431071E-18
6.183488E+03	1.033926E-15	5.442513E-18
6.193413E+03	1.040528E-15	5.454560E-18
6.203338E+03	1.047000E-15	5.467284E-18
6.213264E+03	1.053293E-15	5.480497E-18
6.223189E+03	1.059512E-15	5.494816E-18
6.233115E+03	1.065550E-15	5.509753E-18
6.243040E+03	1.071461E-15	5.525647E-18
6.252965E+03	1.077244E-15	5.542559E-18
6.262891E+03	1.082901E-15	5.560544E-18
6.272816E+03	1.088428E-15	5.579623E-18
6.282741E+03	1.093825E-15	5.599784E-18
6.292667E+03	1.099036E-15	5.620740E-18
6.302592E+03	1.104171E-15	5.643036E-18
6.312517E+03	1.109116E-15	5.666082E-18
6.322443E+03	1.113982E-15	5.690421E-18
6.332368E+03	1.118657E-15	5.715460E-18
6.342293E+03	1.123193E-15	5.741447E-18
6.352219E+03	1.127590E-15	5.768347E-18
6.362144E+03	1.131848E-15	5.796126E-18
6.372069E+03	1.135964E-15	5.824744E-18
6.381995E+03	1.139938E-15	5.854159E-18
6.391920E+03	1.143769E-15	5.884327E-18
6.401845E+03	1.147399E-15	5.914906E-18
6.411771E+03	1.150944E-15	5.946451E-18
6.421696E+03	1.154285E-15	5.978312E-18
6.431621E+03	1.157542E-15	6.011048E-18
6.441547E+03	1.160597E-15	6.044006E-18
6.451472E+03	1.163566E-15	6.077742E-18
6.461397E+03	1.166334E-15	6.111605E-18
6.471323E+03	1.168963E-15	6.145857E-18
6.481248E+03	1.171509E-15	6.180753E-18
6.491173E+03	1.173858E-15	6.215634E-18
6.501099E+03	1.176069E-15	6.250758E-18
6.511024E+03	1.178145E-15	6.286090E-18
6.520949E+03	1.180089E-15	6.321585E-18
6.530875E+03	1.181902E-15	6.357199E-18
6.540800E+03	1.183588E-15	6.392898E-18
6.550725E+03	1.185147E-15	6.428638E-18
6.560651E+03	1.186584E-15	6.464381E-18
6.570576E+03	1.187901E-15	6.500095E-18
6.580501E+03	1.189102E-15	6.535742E-18
6.590427E+03	1.190190E-15	6.571297E-18
6.600352E+03	1.191167E-15	6.606720E-18
6.610277E+03	1.192037E-15	6.641981E-18
6.620203E+03	1.192805E-15	6.677058E-18
6.630128E+03	1.193473E-15	6.711919E-18
6.640054E+03	1.194046E-15	6.746544E-18
6.649979E+03	1.194526E-15	6.780904E-18
6.659904E+03	1.194917E-15	6.814975E-18
6.669830E+03	1.195161E-15	6.848389E-18
6.679755E+03	1.195387E-15	6.881828E-18
6.689680E+03	1.195535E-15	6.914924E-18
6.699606E+03	1.195609E-15	6.947658E-18
6.709531E+03	1.195614E-15	6.980015E-18
6.719456E+03	1.195552E-15	7.011980E-18
6.729382E+03	1.195427E-15	7.043540E-18
6.739307E+03	1.195243E-15	7.074683E-18
6.749232E+03	1.194942E-15	7.105031E-18
6.759158E+03	1.194651E-15	7.135307E-18
6.769083E+03	1.194311E-15	7.165133E-18
6.779008E+03	1.193927E-15	7.194507E-18
6.788934E+03	1.193501E-15	7.223419E-18
6.798859E+03	1.193036E-15	7.251860E-18
6.808784E+03	1.192536E-15	7.279832E-18
6.818710E+03	1.192003E-15	7.307318E-18
6.828635E+03	1.191443E-15	7.334327E-18
6.838560E+03	1.190855E-15	7.360844E-18
6.848486E+03	1.190182E-15	7.386488E-18
6.858411E+03	1.189552E-15	7.412026E-18
6.868336E+03	1.188903E-15	7.437064E-18
6.878262E+03	1.188241E-15	7.461614E-18
6.888187E+03	1.187565E-15	7.485663E-18
6.898112E+03	1.186880E-15	7.509218E-18
6.908038E+03	1.186187E-15	7.532272E-18
6.917963E+03	1.185489E-15	7.554832E-18
6.927888E+03	1.184789E-15	7.576896E-18
6.937814E+03	1.184088E-15	7.598464E-18
6.947739E+03	1.183388E-15	7.619535E-18
6.957664E+03	1.182692E-15	7.640116E-18
6.967590E+03	1.182002E-15	7.660200E-18
6.977515E+03	1.181256E-15	7.679389E-18
6.987440E+03	1.180581E-15	7.698493E-18
6.997366E+03	1.179918E-15	7.717109E-18
7.007291E+03	1.179267E-15	7.735240E-18
7.017216E+03	1.178630E-15	7.752883E-18
7.027142E+03	1.178007E-15	7.770039E-18
7.037067E+03	1.177340E-15	7.786307E-18
7.046993E+03	1.176753E-15	7.802500E-18
7.056918E+03	1.176185E-15	7.818214E-18
7.066843E+03	1.175575E-15	7.833038E-18
7.076769E+03	1.175049E-15	7.847797E-18
7.086694E+03	1.174545E-15	7.862081E-18
7.096619E+03	1.174002E-15	7.875467E-18
7.106545E+03	1.173547E-15	7.888801E-18
7.116470E+03	1.173054E-15	7.901241E-18
7.126395E+03	1.172650E-15	7.913628E-18
7.136321E+03	1.172209E-15	7.925118E-18
7.146246E+03	1.171796E-15	7.936136E-18
7.156171E+03	1.171474E-15	7.947107E-18
7.166097E+03	1.171118E-15	7.957181E-18
7.176022E+03	1.170790E-15	7.966774E-18
7.185947E+03	1.170492E-15	7.975898E-18
7.195873E+03	1.170223E-15	7.984548E-18
7.205798E+03	1.169986E-15	7.992730E-18
7.215723E+03	1.169778E-15	8.000429E-18
7.225649E+03	1.169539E-15	8.007223E-18
7.235574E+03	1.169393E-15	8.013974E-18
7.245499E+03	1.169216E-15	8.019810E-18
7.255425E+03	1.169133E-15	8.025607E-18
7.265350E+03	1.169020E-15	8.030491E-18
7.275275E+03	1.169001E-15	8.035328E-18
7.285201E+03	1.168952E-15	8.039248E-18
7.295126E+03	1.168934E-15	8.042685E-18
7.305051E+03	1.168948E-15	8.045637E-18
7.314977E+03	1.168933E-15	8.047675E-18
7.324902E+03	1.169012E-15	8.049654E-18
7.334827E+03	1.169123E-15	8.051146E-18
7.344753E+03	1.169204E-15	8.051714E-18
7.354678E+03	1.169315E-15	8.051780E-18
7.364603E+03	1.169524E-15	8.051798E-18
7.374529E+03	1.169699E-15	8.050866E-18
7.384454E+03	1.169841E-15	8.048994E-18
7.394379E+03	1.170077E-15	8.047049E-18
7.404305E+03	1.170343E-15	8.044586E-18
7.414230E+03	1.170573E-15	8.041153E-18
7.424156E+03	1.170894E-15	8.037626E-18
7.434081E+03	1.171176E-15	8.033110E-18
7.444006E+03	1.171480E-15	8.028026E-18
7.453932E+03	1.171742E-15	8.021924E-18
7.463857E+03	1.172086E-15	8.015665E-18
7.473782E+03	1.172382E-15	8.008351E-18
7.483708E+03	1.172755E-15	8.000837E-18
7.493633E+03	1.173070E-15	7.992207E-18
7.503558E+03	1.173395E-15	7.982919E-18
7.513484E+03	1.173666E-15	7.972538E-18
7.523409E+03	1.174019E-15	7.961985E-18
7.533334E+03	1.174325E-15	7.950383E-18
7.543260E+03	1.174653E-15	7.938198E-18
7.553185E+03	1.175004E-15	7.925431E-18
7.563110E+03	1.175382E-15	7.912106E-18
7.573036E+03	1.175788E-15	7.898230E-18
7.582961E+03	1.176157E-15	7.883363E-18
7.592886E+03	1.176556E-15	7.867954E-18
7.602812E+03	1.176986E-15	7.852012E-18
7.612737E+03	1.177448E-15	7.835535E-18
7.622662E+03	1.177877E-15	7.818090E-18
7.632588E+03	1.178339E-15	7.800112E-18
7.642513E+03	1.178835E-15	7.781611E-18
7.652438E+03	1.179365E-15	7.762583E-18
7.662364E+03	1.179928E-15	7.743026E-18
7.672289E+03	1.180460E-15	7.722503E-18
7.682214E+03	1.181026E-15	7.701449E-18
7.692140E+03	1.181627E-15	7.679874E-18
7.702065E+03	1.182263E-15	7.657769E-18
