#wls	flux	fluxerr
1.588055E+03	3.687080E-17	8.319108E-19
1.627756E+03	3.697536E-17	8.339299E-19
1.667457E+03	3.702232E-17	8.346386E-19
1.707159E+03	3.699040E-17	8.335590E-19
1.746860E+03	3.688884E-17	8.309011E-19
1.786561E+03	3.669679E-17	8.261976E-19
1.826263E+03	3.640136E-17	8.191608E-19
1.865964E+03	3.597380E-17	8.091474E-19
1.905666E+03	3.539832E-17	7.958070E-19
1.945367E+03	3.465543E-17	7.787067E-19
1.985068E+03	3.376341E-17	7.582636E-19
2.024770E+03	3.277832E-17	7.357416E-19
2.064471E+03	3.183101E-17	7.140803E-19
2.104172E+03	3.111623E-17	6.976453E-19
2.143874E+03	3.078657E-17	6.898477E-19
2.183575E+03	3.092632E-17	6.925593E-19
2.223277E+03	3.145775E-17	7.040217E-19
2.262978E+03	3.225383E-17	7.213757E-19
2.302679E+03	3.315451E-17	7.410322E-19
2.342381E+03	3.404995E-17	7.605314E-19
2.382082E+03	3.488993E-17	7.787512E-19
2.421783E+03	3.563158E-17	7.947371E-19
2.461485E+03	3.628887E-17	8.088035E-19
2.501186E+03	3.685669E-17	8.208397E-19
2.540887E+03	3.735201E-17	8.312266E-19
2.580589E+03	3.778019E-17	8.400862E-19
2.620290E+03	3.815813E-17	8.477966E-19
2.659992E+03	3.849521E-17	8.545677E-19
2.699693E+03	3.879297E-17	8.604353E-19
2.739394E+03	3.906429E-17	8.656863E-19
2.779096E+03	3.931463E-17	8.704419E-19
2.818797E+03	3.954212E-17	8.746614E-19
2.858498E+03	3.975687E-17	8.785692E-19
2.898200E+03	3.995563E-17	8.820932E-19
2.937901E+03	4.015386E-17	8.855748E-19
2.977602E+03	4.034100E-17	8.887806E-19
2.987528E+03	4.038629E-17	8.895442E-19
2.997453E+03	4.043103E-17	8.902937E-19
3.007378E+03	4.047527E-17	8.910301E-19
3.017304E+03	4.051922E-17	8.917584E-19
3.027229E+03	4.056373E-17	8.924968E-19
3.037155E+03	4.061615E-17	8.934072E-19
3.047080E+03	4.066350E-17	8.942041E-19
3.057005E+03	4.071278E-17	8.950412E-19
3.066931E+03	4.077003E-17	8.960515E-19
3.076856E+03	4.082210E-17	8.969458E-19
3.086781E+03	4.088155E-17	8.979999E-19
3.096707E+03	4.093526E-17	8.989256E-19
3.106632E+03	4.099584E-17	9.000001E-19
3.116557E+03	4.105024E-17	9.009365E-19
3.126483E+03	4.111111E-17	9.020129E-19
3.136408E+03	4.117190E-17	9.030848E-19
3.146333E+03	4.122601E-17	9.040082E-19
3.156259E+03	4.128619E-17	9.050621E-19
3.166184E+03	4.134589E-17	9.061034E-19
3.176109E+03	4.140505E-17	9.071302E-19
3.186035E+03	4.145715E-17	9.080001E-19
3.195960E+03	4.151500E-17	9.089935E-19
3.205885E+03	4.157210E-17	9.099682E-19
3.215811E+03	4.162843E-17	9.109237E-19
3.225736E+03	4.168397E-17	9.118593E-19
3.235661E+03	4.173869E-17	9.127746E-19
3.245587E+03	4.179259E-17	9.136696E-19
3.255512E+03	4.184565E-17	9.145440E-19
3.265437E+03	4.189790E-17	9.153981E-19
3.275363E+03	4.195578E-17	9.163725E-19
3.285288E+03	4.200643E-17	9.171869E-19
3.295213E+03	4.205631E-17	9.179818E-19
3.305139E+03	4.210544E-17	9.187581E-19
3.315064E+03	4.216030E-17	9.196569E-19
3.324989E+03	4.220804E-17	9.203978E-19
3.334915E+03	4.225514E-17	9.211225E-19
3.344840E+03	4.230806E-17	9.219716E-19
3.354765E+03	4.235399E-17	9.226657E-19
3.364691E+03	4.239940E-17	9.233460E-19
3.374616E+03	4.245076E-17	9.241535E-19
3.384541E+03	4.249526E-17	9.248091E-19
3.394467E+03	4.254580E-17	9.255937E-19
3.404392E+03	4.259600E-17	9.263682E-19
3.414318E+03	4.263949E-17	9.269943E-19
3.424243E+03	4.268915E-17	9.277521E-19
3.434168E+03	4.273220E-17	9.283635E-19
3.444094E+03	4.278152E-17	9.291087E-19
3.454019E+03	4.283074E-17	9.298490E-19
3.463944E+03	4.287991E-17	9.305856E-19
3.473870E+03	4.292265E-17	9.311801E-19
3.483795E+03	4.297185E-17	9.319121E-19
3.493720E+03	4.302113E-17	9.326433E-19
3.503646E+03	4.307054E-17	9.333745E-19
3.513571E+03	4.312013E-17	9.341069E-19
3.523496E+03	4.316353E-17	9.347024E-19
3.533422E+03	4.321359E-17	9.354397E-19
3.543347E+03	4.326396E-17	9.361807E-19
3.553272E+03	4.331467E-17	9.369264E-19
3.563198E+03	4.336576E-17	9.376775E-19
3.573123E+03	4.341726E-17	9.384348E-19
3.583048E+03	4.346923E-17	9.391992E-19
3.592974E+03	4.352169E-17	9.399713E-19
3.602899E+03	4.357467E-17	9.407520E-19
3.612824E+03	4.362822E-17	9.415420E-19
3.622750E+03	4.368237E-17	9.423419E-19
3.632675E+03	4.373715E-17	9.431524E-19
3.642600E+03	4.379258E-17	9.439741E-19
3.652526E+03	4.385510E-17	9.449455E-19
3.662451E+03	4.391194E-17	9.457915E-19
3.672376E+03	4.396953E-17	9.466506E-19
3.682302E+03	4.402790E-17	9.475232E-19
3.692227E+03	4.408706E-17	9.484098E-19
3.702152E+03	4.414705E-17	9.493112E-19
3.712078E+03	4.421429E-17	9.503652E-19
3.722003E+03	4.427600E-17	9.512972E-19
3.731928E+03	4.433861E-17	9.522451E-19
3.741854E+03	4.440214E-17	9.532097E-19
3.751779E+03	4.447302E-17	9.543284E-19
3.761704E+03	4.453844E-17	9.553269E-19
3.771630E+03	4.460486E-17	9.563432E-19
3.781555E+03	4.467227E-17	9.573775E-19
3.791480E+03	4.474710E-17	9.585673E-19
3.801406E+03	4.481657E-17	9.596388E-19
3.811331E+03	4.488708E-17	9.607291E-19
3.821257E+03	4.495867E-17	9.618388E-19
3.831182E+03	4.503776E-17	9.631053E-19
3.841107E+03	4.511154E-17	9.642547E-19
3.851033E+03	4.518643E-17	9.654242E-19
3.860958E+03	4.526887E-17	9.667513E-19
3.870883E+03	4.534605E-17	9.679622E-19
3.880809E+03	4.542438E-17	9.691938E-19
3.890734E+03	4.551032E-17	9.705840E-19
3.900659E+03	4.559102E-17	9.718586E-19
3.910585E+03	4.567292E-17	9.731548E-19
3.920510E+03	4.575604E-17	9.744731E-19
3.930435E+03	4.584683E-17	9.759508E-19
3.940361E+03	4.593242E-17	9.773135E-19
3.950286E+03	4.601927E-17	9.786991E-19
3.960211E+03	4.611383E-17	9.802446E-19
3.970137E+03	4.620323E-17	9.816761E-19
3.980062E+03	4.629392E-17	9.831308E-19
3.989987E+03	4.638592E-17	9.846091E-19
3.999913E+03	4.648571E-17	9.862485E-19
4.009838E+03	4.658037E-17	9.877745E-19
4.019763E+03	4.667637E-17	9.893248E-19
4.029689E+03	4.677374E-17	9.908994E-19
4.039614E+03	4.687897E-17	9.926363E-19
4.049539E+03	4.697911E-17	9.942607E-19
4.059465E+03	4.708064E-17	9.959100E-19
4.069390E+03	4.718361E-17	9.975850E-19
4.079315E+03	4.728800E-17	9.992854E-19
4.089241E+03	4.739384E-17	1.001012E-18
4.099166E+03	4.750769E-17	1.002903E-18
4.109091E+03	4.761649E-17	1.004682E-18
4.119017E+03	4.772680E-17	1.006488E-18
4.128942E+03	4.783862E-17	1.008322E-18
4.138867E+03	4.795199E-17	1.010182E-18
4.148793E+03	4.806692E-17	1.012071E-18
4.158718E+03	4.818342E-17	1.013988E-18
4.168643E+03	4.830152E-17	1.015933E-18
4.178569E+03	4.842125E-17	1.017908E-18
4.188494E+03	4.854263E-17	1.019911E-18
4.198419E+03	4.866568E-17	1.021945E-18
4.208345E+03	4.879042E-17	1.024009E-18
4.218270E+03	4.891689E-17	1.026103E-18
4.228196E+03	4.903845E-17	1.028089E-18
4.238121E+03	4.916844E-17	1.030247E-18
4.248046E+03	4.930021E-17	1.032436E-18
4.257972E+03	4.943383E-17	1.034658E-18
4.267897E+03	4.956931E-17	1.036914E-18
4.277822E+03	4.970000E-17	1.039063E-18
4.287748E+03	4.983932E-17	1.041387E-18
4.297673E+03	4.998059E-17	1.043746E-18
4.307598E+03	5.011714E-17	1.046001E-18
4.317524E+03	5.026245E-17	1.048432E-18
4.327449E+03	5.040311E-17	1.050760E-18
4.337374E+03	5.055262E-17	1.053266E-18
4.347300E+03	5.069753E-17	1.055671E-18
4.357225E+03	5.085140E-17	1.058256E-18
4.367150E+03	5.100074E-17	1.060740E-18
4.377076E+03	5.115915E-17	1.063406E-18
4.387001E+03	5.131311E-17	1.065974E-18
4.396926E+03	5.146944E-17	1.068584E-18
4.406852E+03	5.163504E-17	1.071379E-18
4.416777E+03	5.179630E-17	1.074078E-18
4.426702E+03	5.196009E-17	1.076823E-18
4.436628E+03	5.212647E-17	1.079615E-18
4.446553E+03	5.229550E-17	1.082454E-18
4.456478E+03	5.246725E-17	1.085343E-18
4.466404E+03	5.264870E-17	1.088425E-18
4.476329E+03	5.282608E-17	1.091416E-18
4.486254E+03	5.300634E-17	1.094459E-18
4.496180E+03	5.318260E-17	1.097412E-18
4.506105E+03	5.336885E-17	1.100564E-18
4.516030E+03	5.355822E-17	1.103772E-18
4.525956E+03	5.375075E-17	1.107038E-18
4.535881E+03	5.394654E-17	1.110363E-18
4.545806E+03	5.413857E-17	1.113603E-18
4.555732E+03	5.434106E-17	1.117051E-18
4.565657E+03	5.454702E-17	1.120561E-18
4.575582E+03	5.474939E-17	1.123990E-18
4.585508E+03	5.496251E-17	1.127630E-18
4.595433E+03	5.517216E-17	1.131192E-18
4.605358E+03	5.539276E-17	1.134969E-18
4.615284E+03	5.561000E-17	1.138668E-18
4.625209E+03	5.583115E-17	1.142440E-18
4.635135E+03	5.605629E-17	1.146283E-18
4.645060E+03	5.629278E-17	1.150350E-18
4.654985E+03	5.652616E-17	1.154345E-18
4.664911E+03	5.676376E-17	1.158416E-18
4.674836E+03	5.700568E-17	1.162565E-18
4.684761E+03	5.725198E-17	1.166795E-18
4.694687E+03	5.750275E-17	1.171106E-18
4.704612E+03	5.775807E-17	1.175500E-18
4.714537E+03	5.801801E-17	1.179978E-18
4.724463E+03	5.828264E-17	1.184542E-18
4.734388E+03	5.854454E-17	1.189039E-18
4.744313E+03	5.881877E-17	1.193777E-18
4.754239E+03	5.909792E-17	1.198604E-18
4.764164E+03	5.937445E-17	1.203368E-18
4.774089E+03	5.966361E-17	1.208376E-18
4.784015E+03	5.995022E-17	1.213322E-18
4.793940E+03	6.024965E-17	1.218516E-18
4.803865E+03	6.054659E-17	1.223649E-18
4.813791E+03	6.084876E-17	1.228876E-18
4.823716E+03	6.115621E-17	1.234198E-18
4.833641E+03	6.147682E-17	1.239774E-18
4.843567E+03	6.179502E-17	1.245289E-18
4.853492E+03	6.211863E-17	1.250901E-18
4.863417E+03	6.244771E-17	1.256611E-18
4.873343E+03	6.278227E-17	1.262418E-18
4.883268E+03	6.312236E-17	1.268325E-18
4.893193E+03	6.346801E-17	1.274330E-18
4.903119E+03	6.381114E-17	1.280272E-18
4.913044E+03	6.416792E-17	1.286475E-18
4.922969E+03	6.453031E-17	1.292777E-18
4.932895E+03	6.489012E-17	1.299013E-18
4.942820E+03	6.526372E-17	1.305513E-18
4.952745E+03	6.563467E-17	1.311945E-18
4.962671E+03	6.601951E-17	1.318641E-18
4.972596E+03	6.640160E-17	1.325269E-18
4.982521E+03	6.678924E-17	1.331992E-18
4.992447E+03	6.719086E-17	1.338980E-18
5.002372E+03	6.758959E-17	1.345896E-18
5.012297E+03	6.799380E-17	1.352906E-18
5.022223E+03	6.840348E-17	1.360010E-18
5.032148E+03	6.881860E-17	1.367208E-18
5.042074E+03	6.923914E-17	1.374497E-18
5.051999E+03	6.966507E-17	1.381879E-18
5.061924E+03	7.009633E-17	1.389350E-18
5.071850E+03	7.053290E-17	1.396911E-18
5.081775E+03	7.096584E-17	1.404384E-18
5.091700E+03	7.141283E-17	1.412120E-18
5.101626E+03	7.186500E-17	1.419941E-18
5.111551E+03	7.231324E-17	1.427669E-18
5.121476E+03	7.277553E-17	1.435658E-18
5.131402E+03	7.323368E-17	1.443548E-18
5.141327E+03	7.369668E-17	1.451518E-18
5.151252E+03	7.417370E-17	1.459747E-18
5.161178E+03	7.464623E-17	1.467870E-18
5.171103E+03	7.512342E-17	1.476069E-18
5.181028E+03	7.560517E-17	1.484339E-18
5.190954E+03	7.609142E-17	1.492681E-18
5.200879E+03	7.658210E-17	1.501093E-18
5.210804E+03	7.707713E-17	1.509572E-18
5.220730E+03	7.757643E-17	1.518117E-18
5.230655E+03	7.807992E-17	1.526727E-18
5.240580E+03	7.857776E-17	1.535209E-18
5.250506E+03	7.908931E-17	1.543941E-18
5.260431E+03	7.960481E-17	1.552732E-18
5.270356E+03	8.011422E-17	1.561386E-18
5.280282E+03	8.063725E-17	1.570288E-18
5.290207E+03	8.115389E-17	1.579047E-18
5.300132E+03	8.168409E-17	1.588052E-18
5.310058E+03	8.220759E-17	1.596909E-18
5.319983E+03	8.273434E-17	1.605811E-18
5.329908E+03	8.327454E-17	1.614955E-18
5.339834E+03	8.380755E-17	1.623942E-18
5.349759E+03	8.434350E-17	1.632968E-18
5.359684E+03	8.488228E-17	1.642030E-18
5.369610E+03	8.542385E-17	1.651128E-18
5.379535E+03	8.596798E-17	1.660258E-18
5.389460E+03	8.651465E-17	1.669418E-18
5.399386E+03	8.706370E-17	1.678606E-18
5.409311E+03	8.760423E-17	1.687611E-18
5.419237E+03	8.815769E-17	1.696848E-18
5.429162E+03	8.871327E-17	1.706107E-18
5.439087E+03	8.925972E-17	1.715173E-18
5.449013E+03	8.981903E-17	1.724467E-18
5.458938E+03	9.036878E-17	1.733561E-18
5.468863E+03	9.093129E-17	1.742881E-18
5.478789E+03	9.148399E-17	1.751995E-18
5.488714E+03	9.204920E-17	1.761332E-18
5.498639E+03	9.260424E-17	1.770456E-18
5.508565E+03	9.316028E-17	1.779582E-18
5.518490E+03	9.371714E-17	1.788706E-18
5.528415E+03	9.427474E-17	1.797828E-18
5.538341E+03	9.483300E-17	1.806944E-18
5.548266E+03	9.539165E-17	1.816052E-18
5.558191E+03	9.595069E-17	1.825150E-18
5.568117E+03	9.650995E-17	1.834236E-18
5.578042E+03	9.706934E-17	1.843307E-18
5.587967E+03	9.762869E-17	1.852362E-18
5.597893E+03	9.818791E-17	1.861398E-18
5.607818E+03	9.873476E-17	1.870183E-18
5.617743E+03	9.929328E-17	1.879175E-18
5.627669E+03	9.985133E-17	1.888141E-18
5.637594E+03	1.003965E-16	1.896849E-18
5.647519E+03	1.009531E-16	1.905759E-18
5.657445E+03	1.014964E-16	1.914402E-18
5.667370E+03	1.020387E-16	1.923012E-18
5.677295E+03	1.025924E-16	1.931822E-18
5.687221E+03	1.031323E-16	1.940358E-18
5.697146E+03	1.036708E-16	1.948856E-18
5.707071E+03	1.042078E-16	1.957311E-18
5.716997E+03	1.047561E-16	1.965965E-18
5.726922E+03	1.052900E-16	1.974335E-18
5.736847E+03	1.058222E-16	1.982663E-18
5.746773E+03	1.063525E-16	1.990942E-18
5.756698E+03	1.068810E-16	1.999176E-18
5.766623E+03	1.074076E-16	2.007361E-18
5.776549E+03	1.079321E-16	2.015498E-18
5.786474E+03	1.084414E-16	2.023339E-18
5.796399E+03	1.089619E-16	2.031378E-18
5.806325E+03	1.094802E-16	2.039367E-18
5.816250E+03	1.099964E-16	2.047307E-18
5.826176E+03	1.104969E-16	2.054945E-18
5.836101E+03	1.110088E-16	2.062786E-18
5.846026E+03	1.115185E-16	2.070579E-18
5.855952E+03	1.120124E-16	2.078069E-18
5.865877E+03	1.125180E-16	2.085767E-18
5.875802E+03	1.130077E-16	2.093165E-18
5.885728E+03	1.134953E-16	2.100516E-18
5.895653E+03	1.139949E-16	2.108082E-18
5.905578E+03	1.144787E-16	2.115350E-18
5.915504E+03	1.149606E-16	2.122578E-18
5.925429E+03	1.154550E-16	2.130029E-18
5.935354E+03	1.159338E-16	2.137189E-18
5.945280E+03	1.164111E-16	2.144317E-18
5.955205E+03	1.168873E-16	2.151419E-18
5.965130E+03	1.173624E-16	2.158497E-18
5.975056E+03	1.178366E-16	2.165557E-18
5.984981E+03	1.183103E-16	2.172603E-18
5.994906E+03	1.187836E-16	2.179641E-18
6.004832E+03	1.192569E-16	2.186674E-18
6.014757E+03	1.197303E-16	2.193708E-18
6.024682E+03	1.202042E-16	2.200751E-18
6.034608E+03	1.206789E-16	2.207808E-18
6.044533E+03	1.211400E-16	2.214613E-18
6.054458E+03	1.216174E-16	2.221718E-18
6.064384E+03	1.220967E-16	2.228857E-18
6.074309E+03	1.225783E-16	2.236038E-18
6.084234E+03	1.230476E-16	2.242998E-18
6.094160E+03	1.235351E-16	2.250289E-18
6.104085E+03	1.240110E-16	2.257372E-18
6.114010E+03	1.245062E-16	2.264806E-18
6.123936E+03	1.249904E-16	2.272045E-18
6.133861E+03	1.254949E-16	2.279654E-18
6.143786E+03	1.259892E-16	2.287082E-18
6.153712E+03	1.265045E-16	2.294895E-18
6.163637E+03	1.270100E-16	2.302534E-18
6.173562E+03	1.275215E-16	2.310285E-18
6.183488E+03	1.280546E-16	2.318433E-18
6.193413E+03	1.285779E-16	2.326408E-18
6.203338E+03	1.291068E-16	2.334491E-18
6.213264E+03	1.296569E-16	2.342963E-18
6.223189E+03	1.301964E-16	2.351249E-18
6.233115E+03	1.307404E-16	2.359624E-18
6.243040E+03	1.312887E-16	2.368083E-18
6.252965E+03	1.318408E-16	2.376618E-18
6.262891E+03	1.323963E-16	2.385221E-18
6.272816E+03	1.329546E-16	2.393881E-18
6.282741E+03	1.335154E-16	2.402596E-18
6.292667E+03	1.340782E-16	2.411352E-18
6.302592E+03	1.346426E-16	2.420145E-18
6.312517E+03	1.352081E-16	2.428966E-18
6.322443E+03	1.357743E-16	2.437807E-18
6.332368E+03	1.363408E-16	2.446660E-18
6.342293E+03	1.369072E-16	2.455520E-18
6.352219E+03	1.374562E-16	2.464077E-18
6.362144E+03	1.380211E-16	2.472926E-18
6.372069E+03	1.385847E-16	2.481760E-18
6.381995E+03	1.391467E-16	2.490576E-18
6.391920E+03	1.396897E-16	2.499058E-18
6.401845E+03	1.402474E-16	2.507813E-18
6.411771E+03	1.408024E-16	2.516529E-18
6.421696E+03	1.413373E-16	2.524895E-18
6.431621E+03	1.418862E-16	2.533519E-18
6.441547E+03	1.424316E-16	2.542092E-18
6.451472E+03	1.429558E-16	2.550296E-18
6.461397E+03	1.434935E-16	2.558749E-18
6.471323E+03	1.440093E-16	2.566824E-18
6.481248E+03	1.445382E-16	2.575142E-18
6.491173E+03	1.450448E-16	2.583072E-18
6.501099E+03	1.455464E-16	2.590925E-18
6.511024E+03	1.460607E-16	2.599016E-18
6.520949E+03	1.465519E-16	2.606705E-18
6.530875E+03	1.470557E-16	2.614631E-18
6.540800E+03	1.475359E-16	2.622148E-18
6.550725E+03	1.480103E-16	2.629575E-18
6.560651E+03	1.484973E-16	2.637236E-18
6.570576E+03	1.489600E-16	2.644479E-18
6.580501E+03	1.494167E-16	2.651627E-18
6.590427E+03	1.498673E-16	2.658681E-18
6.600352E+03	1.503117E-16	2.665636E-18
6.610277E+03	1.507684E-16	2.672823E-18
6.620203E+03	1.512004E-16	2.679584E-18
6.630128E+03	1.516260E-16	2.686245E-18
6.640054E+03	1.520453E-16	2.692809E-18
6.649979E+03	1.524582E-16	2.699274E-18
6.659904E+03	1.528647E-16	2.705639E-18
6.669830E+03	1.532649E-16	2.711906E-18
6.679755E+03	1.536587E-16	2.718076E-18
6.689680E+03	1.540462E-16	2.724147E-18
6.699606E+03	1.544274E-16	2.730123E-18
6.709531E+03	1.548023E-16	2.736003E-18
6.719456E+03	1.551711E-16	2.741789E-18
6.729382E+03	1.555337E-16	2.747481E-18
6.739307E+03	1.558902E-16	2.753082E-18
6.749232E+03	1.562407E-16	2.758592E-18
6.759158E+03	1.565853E-16	2.764015E-18
6.769083E+03	1.569047E-16	2.769008E-18
6.779008E+03	1.572377E-16	2.774258E-18
6.788934E+03	1.575651E-16	2.779426E-18
6.798859E+03	1.578870E-16	2.784514E-18
6.808784E+03	1.581841E-16	2.789179E-18
6.818710E+03	1.584952E-16	2.794112E-18
6.828635E+03	1.588015E-16	2.798975E-18
6.838560E+03	1.591026E-16	2.803767E-18
6.848486E+03	1.593792E-16	2.808143E-18
6.858411E+03	1.596709E-16	2.812803E-18
6.868336E+03	1.599383E-16	2.817054E-18
6.878262E+03	1.602212E-16	2.821596E-18
6.888187E+03	1.604999E-16	2.826084E-18
6.898112E+03	1.607549E-16	2.830172E-18
6.908038E+03	1.610259E-16	2.834562E-18
6.917963E+03	1.612735E-16	2.838558E-18
6.927888E+03	1.615377E-16	2.842867E-18
6.937814E+03	1.617788E-16	2.846788E-18
6.947739E+03	1.620369E-16	2.851030E-18
6.957664E+03	1.622724E-16	2.854893E-18
6.967590E+03	1.625054E-16	2.858733E-18
6.977515E+03	1.627565E-16	2.862912E-18
6.987440E+03	1.629854E-16	2.866722E-18
6.997366E+03	1.632330E-16	2.870881E-18
7.007291E+03	1.634589E-16	2.874680E-18
7.017216E+03	1.636838E-16	2.878483E-18
7.027142E+03	1.639078E-16	2.882293E-18
7.037067E+03	1.641518E-16	2.886476E-18
7.046993E+03	1.643754E-16	2.890322E-18
7.056918E+03	1.645990E-16	2.894191E-18
7.066843E+03	1.648231E-16	2.898093E-18
7.076769E+03	1.650480E-16	2.902031E-18
7.086694E+03	1.652949E-16	2.906379E-18
7.096619E+03	1.655228E-16	2.910416E-18
7.106545E+03	1.657526E-16	2.914512E-18
7.116470E+03	1.659847E-16	2.918672E-18
7.126395E+03	1.662197E-16	2.922908E-18
7.136321E+03	1.664579E-16	2.927224E-18
7.146246E+03	1.666996E-16	2.931629E-18
7.156171E+03	1.669455E-16	2.936131E-18
7.166097E+03	1.671959E-16	2.940738E-18
7.176022E+03	1.674513E-16	2.945460E-18
7.185947E+03	1.677121E-16	2.950304E-18
7.195873E+03	1.679790E-16	2.955281E-18
7.205798E+03	1.682524E-16	2.960400E-18
7.215723E+03	1.685328E-16	2.965671E-18
7.225649E+03	1.687997E-16	2.970731E-18
7.235574E+03	1.690959E-16	2.976334E-18
7.245499E+03	1.694007E-16	2.982119E-18
7.255425E+03	1.697148E-16	2.988098E-18
7.265350E+03	1.700175E-16	2.993903E-18
7.275275E+03	1.703520E-16	3.000301E-18
7.285201E+03	1.706977E-16	3.006925E-18
7.295126E+03	1.710552E-16	3.013790E-18
7.305051E+03	1.714036E-16	3.020524E-18
7.314977E+03	1.717865E-16	3.027900E-18
7.324902E+03	1.721616E-16	3.035170E-18
7.334827E+03	1.725728E-16	3.043111E-18
7.344753E+03	1.729992E-16	3.051353E-18
7.354678E+03	1.734196E-16	3.059525E-18
7.364603E+03	1.738783E-16	3.068408E-18
7.374529E+03	1.743323E-16	3.077244E-18
7.384454E+03	1.748264E-16	3.086823E-18
7.394379E+03	1.753170E-16	3.096378E-18
7.404305E+03	1.758268E-16	3.106311E-18
7.414230E+03	1.763790E-16	3.117032E-18
7.424156E+03	1.769296E-16	3.127764E-18
7.434081E+03	1.775014E-16	3.138913E-18
7.444006E+03	1.781179E-16	3.150892E-18
7.453932E+03	1.787344E-16	3.162916E-18
7.463857E+03	1.793741E-16	3.175391E-18
7.473782E+03	1.800375E-16	3.188331E-18
7.483708E+03	1.807479E-16	3.202150E-18
7.493633E+03	1.814600E-16	3.216045E-18
7.503558E+03	1.821968E-16	3.230425E-18
7.513484E+03	1.829584E-16	3.245295E-18
7.523409E+03	1.837452E-16	3.260659E-18
7.533334E+03	1.845569E-16	3.276519E-18
7.543260E+03	1.853936E-16	3.292874E-18
7.553185E+03	1.862551E-16	3.309723E-18
7.563110E+03	1.871414E-16	3.327066E-18
7.573036E+03	1.880522E-16	3.344899E-18
7.582961E+03	1.889872E-16	3.363219E-18
7.592886E+03	1.899463E-16	3.382020E-18
7.602812E+03	1.909290E-16	3.401300E-18
7.612737E+03	1.919352E-16	3.421054E-18
7.622662E+03	1.929645E-16	3.441275E-18
7.632588E+03	1.940165E-16	3.461959E-18
7.642513E+03	1.950659E-16	3.482654E-18
7.652438E+03	1.961622E-16	3.504244E-18
7.662364E+03	1.972802E-16	3.526279E-18
7.672289E+03	1.983940E-16	3.548299E-18
7.682214E+03	1.995539E-16	3.571203E-18
7.692140E+03	2.007343E-16	3.594533E-18
7.702065E+03	2.019087E-16	3.617818E-18
