#wls	flux	fluxerr
1.592040E+03	2.996209E-04	3.416649E-05
1.631841E+03	3.028162E-04	3.439038E-05
1.671642E+03	3.064133E-04	3.465329E-05
1.711443E+03	3.104540E-04	3.495913E-05
1.751244E+03	3.149469E-04	3.530801E-05
1.791045E+03	3.199299E-04	3.570326E-05
1.830846E+03	3.254094E-04	3.614457E-05
1.870647E+03	3.314490E-04	3.663794E-05
1.910448E+03	3.380808E-04	3.718566E-05
1.950249E+03	3.453074E-04	3.778672E-05
1.990050E+03	3.531868E-04	3.844607E-05
2.029851E+03	3.617208E-04	3.916237E-05
2.069652E+03	3.709122E-04	3.993434E-05
2.109453E+03	3.808177E-04	4.076639E-05
2.149254E+03	3.913641E-04	4.164891E-05
2.189055E+03	4.024850E-04	4.257311E-05
2.228856E+03	4.140461E-04	4.352318E-05
2.268657E+03	4.257521E-04	4.446679E-05
2.308458E+03	4.378854E-04	4.543234E-05
2.348259E+03	4.507649E-04	4.645112E-05
2.388060E+03	4.646259E-04	4.754496E-05
2.427861E+03	4.796500E-04	4.872939E-05
2.467662E+03	4.960168E-04	5.001915E-05
2.507463E+03	5.138815E-04	5.142583E-05
2.547264E+03	5.333582E-04	5.295629E-05
2.587065E+03	5.545863E-04	5.461941E-05
2.626866E+03	5.776918E-04	5.642205E-05
2.666667E+03	6.027876E-04	5.836925E-05
2.706468E+03	6.299764E-04	6.046445E-05
2.746269E+03	6.593984E-04	6.271407E-05
2.786070E+03	6.911034E-04	6.511530E-05
2.825871E+03	7.251616E-04	6.766677E-05
2.865672E+03	7.617309E-04	7.037471E-05
2.905473E+03	8.010570E-04	7.325251E-05
2.945274E+03	8.435804E-04	7.632993E-05
2.985075E+03	8.898772E-04	7.964688E-05
2.995025E+03	9.021083E-04	8.051795E-05
3.004975E+03	9.146232E-04	8.140714E-05
3.014925E+03	9.274470E-04	8.231643E-05
3.024876E+03	9.405839E-04	8.324591E-05
3.034826E+03	9.540393E-04	8.419577E-05
3.044776E+03	9.678391E-04	8.516801E-05
3.054726E+03	9.819671E-04	8.616089E-05
3.064677E+03	9.964719E-04	8.717835E-05
3.074627E+03	1.011337E-03	8.821866E-05
3.084577E+03	1.026591E-03	8.928388E-05
3.094527E+03	1.042240E-03	9.037425E-05
3.104478E+03	1.058312E-03	9.149179E-05
3.114428E+03	1.074813E-03	9.263676E-05
3.124378E+03	1.091752E-03	9.380935E-05
3.134328E+03	1.109159E-03	9.501175E-05
3.144279E+03	1.127019E-03	9.624238E-05
3.154229E+03	1.145384E-03	9.750518E-05
3.164179E+03	1.164243E-03	9.879867E-05
3.174129E+03	1.183626E-03	1.001250E-04
3.184080E+03	1.203545E-03	1.014846E-04
3.194030E+03	1.224008E-03	1.028779E-04
3.203980E+03	1.245051E-03	1.043071E-04
3.213930E+03	1.266684E-03	1.057726E-04
3.223881E+03	1.288899E-03	1.072732E-04
3.233831E+03	1.311774E-03	1.088147E-04
3.243781E+03	1.335259E-03	1.103925E-04
3.253731E+03	1.359433E-03	1.120124E-04
3.263682E+03	1.384268E-03	1.136715E-04
3.273632E+03	1.409802E-03	1.153723E-04
3.283582E+03	1.436075E-03	1.171173E-04
3.293532E+03	1.463062E-03	1.189038E-04
3.303483E+03	1.490825E-03	1.207361E-04
3.313433E+03	1.519384E-03	1.226151E-04
3.323383E+03	1.548739E-03	1.245401E-04
3.333333E+03	1.578913E-03	1.265119E-04
3.343284E+03	1.609930E-03	1.285318E-04
3.353234E+03	1.641836E-03	1.306025E-04
3.363184E+03	1.674612E-03	1.327219E-04
3.373134E+03	1.708333E-03	1.348947E-04
3.383085E+03	1.742982E-03	1.371188E-04
3.393035E+03	1.778589E-03	1.393956E-04
3.402985E+03	1.815211E-03	1.417286E-04
3.412935E+03	1.852813E-03	1.441140E-04
3.422886E+03	1.891476E-03	1.465573E-04
3.432836E+03	1.931218E-03	1.490584E-04
3.442786E+03	1.972007E-03	1.516141E-04
3.452736E+03	2.013933E-03	1.542301E-04
3.462687E+03	2.056970E-03	1.569033E-04
3.472637E+03	2.101166E-03	1.596361E-04
3.482587E+03	2.146546E-03	1.624292E-04
3.492537E+03	2.193066E-03	1.652783E-04
3.502488E+03	2.240780E-03	1.681860E-04
3.512438E+03	2.289673E-03	1.711500E-04
3.522388E+03	2.339729E-03	1.741679E-04
3.532338E+03	2.390961E-03	1.772395E-04
3.542289E+03	2.443332E-03	1.803607E-04
3.552239E+03	2.496831E-03	1.835296E-04
3.562189E+03	2.551425E-03	1.867425E-04
3.572139E+03	2.607129E-03	1.899993E-04
3.582090E+03	2.663935E-03	1.932984E-04
3.592040E+03	2.721811E-03	1.966360E-04
3.601990E+03	2.780774E-03	2.000123E-04
3.611940E+03	2.840843E-03	2.034275E-04
3.621891E+03	2.901981E-03	2.068777E-04
3.631841E+03	2.964286E-03	2.103686E-04
3.641791E+03	3.027718E-03	2.138963E-04
3.651741E+03	3.092345E-03	2.174642E-04
3.661692E+03	3.158205E-03	2.210737E-04
3.671642E+03	3.225330E-03	2.247256E-04
3.681592E+03	3.293778E-03	2.284226E-04
3.691542E+03	3.363631E-03	2.321689E-04
3.701493E+03	3.434844E-03	2.359600E-04
3.711443E+03	3.507544E-03	2.398029E-04
3.721393E+03	3.581696E-03	2.436936E-04
3.731343E+03	3.657344E-03	2.476337E-04
3.741294E+03	3.734518E-03	2.516236E-04
3.751244E+03	3.813140E-03	2.556562E-04
3.761194E+03	3.893270E-03	2.597341E-04
3.771144E+03	3.974823E-03	2.638499E-04
3.781095E+03	4.057757E-03	2.679992E-04
3.791045E+03	4.141973E-03	2.721743E-04
3.800995E+03	4.227383E-03	2.763677E-04
3.810945E+03	4.313838E-03	2.805686E-04
3.820896E+03	4.401196E-03	2.847667E-04
3.830846E+03	4.489264E-03	2.889483E-04
3.840796E+03	4.577884E-03	2.931027E-04
3.850746E+03	4.666809E-03	2.972134E-04
3.860697E+03	4.755770E-03	3.012630E-04
3.870647E+03	4.844505E-03	3.052350E-04
3.880597E+03	4.932708E-03	3.091102E-04
3.890547E+03	5.020127E-03	3.128736E-04
3.900498E+03	5.106429E-03	3.165052E-04
3.910448E+03	5.191310E-03	3.199876E-04
3.920398E+03	5.274436E-03	3.233015E-04
3.930348E+03	5.355459E-03	3.264277E-04
3.940299E+03	5.434184E-03	3.293566E-04
3.950249E+03	5.510206E-03	3.320660E-04
3.960199E+03	5.583321E-03	3.345468E-04
3.970149E+03	5.653254E-03	3.367857E-04
3.980100E+03	5.719810E-03	3.387744E-04
3.990050E+03	5.782823E-03	3.405068E-04
4.000000E+03	5.842077E-03	3.419741E-04
4.009950E+03	5.897518E-03	3.431772E-04
4.019900E+03	5.949060E-03	3.441152E-04
4.029851E+03	5.996681E-03	3.447912E-04
4.039801E+03	6.040367E-03	3.452086E-04
4.049751E+03	6.080131E-03	3.453725E-04
4.059701E+03	6.116127E-03	3.452958E-04
4.069652E+03	6.148395E-03	3.449850E-04
4.079602E+03	6.177107E-03	3.444539E-04
4.089552E+03	6.202448E-03	3.437166E-04
4.099502E+03	6.224559E-03	3.427846E-04
4.109453E+03	6.243725E-03	3.416774E-04
4.119403E+03	6.260112E-03	3.404072E-04
4.129353E+03	6.273999E-03	3.389923E-04
4.139303E+03	6.285677E-03	3.374513E-04
4.149254E+03	6.295352E-03	3.357978E-04
4.159204E+03	6.303381E-03	3.340531E-04
4.169154E+03	6.309925E-03	3.322278E-04
4.179104E+03	6.315401E-03	3.303455E-04
4.189055E+03	6.319979E-03	3.284166E-04
4.199005E+03	6.323979E-03	3.264589E-04
4.208955E+03	6.327668E-03	3.244871E-04
4.218905E+03	6.331363E-03	3.225181E-04
4.228856E+03	6.335225E-03	3.205604E-04
4.238806E+03	6.339611E-03	3.186322E-04
4.248756E+03	6.344731E-03	3.167440E-04
4.258706E+03	6.350782E-03	3.149052E-04
4.268657E+03	6.358057E-03	3.131298E-04
4.278607E+03	6.366790E-03	3.114285E-04
4.288557E+03	6.377105E-03	3.098064E-04
4.298507E+03	6.389219E-03	3.082728E-04
4.308458E+03	6.403319E-03	3.068357E-04
4.318408E+03	6.419590E-03	3.055023E-04
4.328358E+03	6.438194E-03	3.042788E-04
4.338308E+03	6.459326E-03	3.031727E-04
4.348259E+03	6.483090E-03	3.021872E-04
4.358209E+03	6.509574E-03	3.013244E-04
4.368159E+03	6.538988E-03	3.005921E-04
4.378109E+03	6.571352E-03	2.999892E-04
4.388060E+03	6.606699E-03	2.995153E-04
4.398010E+03	6.645067E-03	2.991701E-04
4.407960E+03	6.686409E-03	2.989498E-04
4.417910E+03	6.730574E-03	2.988457E-04
4.427861E+03	6.777463E-03	2.988520E-04
4.437811E+03	6.826823E-03	2.989562E-04
4.447761E+03	6.878403E-03	2.991464E-04
4.457711E+03	6.931890E-03	2.994083E-04
4.467662E+03	6.986810E-03	2.997210E-04
4.477612E+03	7.042809E-03	3.000698E-04
4.487562E+03	7.099363E-03	3.004327E-04
4.497512E+03	7.155896E-03	3.007866E-04
4.507463E+03	7.211858E-03	3.011101E-04
4.517413E+03	7.266538E-03	3.013756E-04
4.527363E+03	7.319309E-03	3.015600E-04
4.537313E+03	7.369529E-03	3.016403E-04
4.547264E+03	7.416479E-03	3.015907E-04
4.557214E+03	7.459382E-03	3.013842E-04
4.567164E+03	7.497578E-03	3.009990E-04
4.577114E+03	7.530377E-03	3.004128E-04
4.587065E+03	7.557116E-03	2.996049E-04
4.597015E+03	7.577233E-03	2.985593E-04
4.606965E+03	7.590093E-03	2.972571E-04
4.616915E+03	7.595260E-03	2.956880E-04
4.626866E+03	7.592289E-03	2.938414E-04
4.636816E+03	7.580829E-03	2.917104E-04
4.646766E+03	7.560613E-03	2.892913E-04
4.656716E+03	7.531469E-03	2.865841E-04
4.666667E+03	7.493317E-03	2.835921E-04
4.676617E+03	7.446318E-03	2.803274E-04
4.686567E+03	7.390608E-03	2.768006E-04
4.696517E+03	7.326431E-03	2.730259E-04
4.706468E+03	7.254275E-03	2.690260E-04
4.716418E+03	7.174538E-03	2.648196E-04
4.726368E+03	7.087807E-03	2.604317E-04
4.736318E+03	6.994851E-03	2.558931E-04
4.746269E+03	6.896476E-03	2.512353E-04
4.756219E+03	6.793545E-03	2.464909E-04
4.766169E+03	6.687141E-03	2.416997E-04
4.776119E+03	6.578355E-03	2.369010E-04
4.786070E+03	6.468291E-03	2.321336E-04
4.796020E+03	6.358197E-03	2.274401E-04
4.805970E+03	6.249268E-03	2.228607E-04
4.815920E+03	6.142676E-03	2.184340E-04
4.825871E+03	6.039544E-03	2.141967E-04
4.835821E+03	5.940868E-03	2.101806E-04
4.845771E+03	5.847685E-03	2.064189E-04
4.855721E+03	5.760552E-03	2.029270E-04
4.865672E+03	5.679798E-03	1.997127E-04
4.875622E+03	5.605674E-03	1.967808E-04
4.885572E+03	5.538293E-03	1.941316E-04
4.895522E+03	5.477701E-03	1.917635E-04
4.905473E+03	5.423781E-03	1.896692E-04
4.915423E+03	5.376588E-03	1.878480E-04
4.925373E+03	5.335978E-03	1.862923E-04
4.935323E+03	5.301846E-03	1.849962E-04
4.945274E+03	5.274058E-03	1.839532E-04
4.955224E+03	5.252467E-03	1.831564E-04
4.965174E+03	5.236869E-03	1.825971E-04
4.975124E+03	5.227103E-03	1.822685E-04
4.985075E+03	5.223052E-03	1.821654E-04
4.995025E+03	5.224491E-03	1.822790E-04
5.004975E+03	5.231196E-03	1.826008E-04
5.014925E+03	5.243094E-03	1.831274E-04
5.024876E+03	5.259856E-03	1.838470E-04
5.034826E+03	5.281398E-03	1.847561E-04
5.044776E+03	5.307535E-03	1.858481E-04
5.054726E+03	5.337930E-03	1.871107E-04
5.064677E+03	5.372540E-03	1.885425E-04
5.074627E+03	5.411061E-03	1.901325E-04
5.084577E+03	5.453284E-03	1.918733E-04
5.094527E+03	5.499043E-03	1.937591E-04
5.104478E+03	5.548003E-03	1.957778E-04
5.114428E+03	5.599927E-03	1.979212E-04
5.124378E+03	5.654613E-03	2.001820E-04
5.134328E+03	5.711749E-03	2.025490E-04
5.144279E+03	5.771052E-03	2.050120E-04
5.154229E+03	5.832180E-03	2.075587E-04
5.164179E+03	5.894885E-03	2.101802E-04
5.174129E+03	5.958745E-03	2.128608E-04
5.184080E+03	6.023550E-03	2.155928E-04
5.194030E+03	6.088910E-03	2.183618E-04
5.203980E+03	6.154436E-03	2.211531E-04
5.213930E+03	6.219780E-03	2.239539E-04
5.223881E+03	6.284673E-03	2.267534E-04
5.233831E+03	6.348654E-03	2.295343E-04
5.243781E+03	6.411451E-03	2.322859E-04
5.253731E+03	6.472815E-03	2.349980E-04
5.263682E+03	6.532252E-03	2.376518E-04
5.273632E+03	6.589663E-03	2.402423E-04
5.283582E+03	6.644595E-03	2.427518E-04
5.293532E+03	6.696998E-03	2.451771E-04
5.303483E+03	6.746467E-03	2.475022E-04
5.313433E+03	6.792949E-03	2.497235E-04
5.323383E+03	6.836296E-03	2.518342E-04
5.333333E+03	6.876324E-03	2.538262E-04
5.343284E+03	6.913091E-03	2.556999E-04
5.353234E+03	6.946339E-03	2.574445E-04
5.363184E+03	6.976263E-03	2.590656E-04
5.373134E+03	7.002822E-03	2.605604E-04
5.383085E+03	7.026069E-03	2.619294E-04
5.393035E+03	7.046095E-03	2.631747E-04
5.402985E+03	7.063017E-03	2.642994E-04
5.412935E+03	7.076910E-03	2.653050E-04
5.422886E+03	7.087946E-03	2.661968E-04
5.432836E+03	7.096324E-03	2.669811E-04
5.442786E+03	7.102261E-03	2.676652E-04
5.452736E+03	7.105917E-03	2.682541E-04
5.462687E+03	7.107479E-03	2.687541E-04
5.472637E+03	7.107278E-03	2.691768E-04
5.482587E+03	7.105515E-03	2.695291E-04
5.492537E+03	7.102408E-03	2.698188E-04
5.502488E+03	7.098173E-03	2.700534E-04
5.512438E+03	7.093169E-03	2.702462E-04
5.522388E+03	7.087540E-03	2.704022E-04
5.532338E+03	7.081650E-03	2.705350E-04
5.542289E+03	7.075635E-03	2.706494E-04
5.552239E+03	7.069768E-03	2.707558E-04
5.562189E+03	7.064384E-03	2.708668E-04
5.572139E+03	7.059589E-03	2.709863E-04
5.582090E+03	7.055692E-03	2.711260E-04
5.592040E+03	7.052908E-03	2.712943E-04
5.601990E+03	7.051353E-03	2.714955E-04
5.611940E+03	7.051210E-03	2.717368E-04
5.621891E+03	7.052694E-03	2.720263E-04
5.631841E+03	7.055932E-03	2.723692E-04
5.641791E+03	7.060941E-03	2.727659E-04
5.651741E+03	7.067861E-03	2.732221E-04
5.661692E+03	7.076803E-03	2.737420E-04
5.671642E+03	7.087620E-03	2.743199E-04
5.681592E+03	7.100356E-03	2.749577E-04
5.691542E+03	7.115032E-03	2.756560E-04
5.701493E+03	7.131546E-03	2.764110E-04
5.711443E+03	7.149783E-03	2.772182E-04
5.721393E+03	7.169584E-03	2.780714E-04
5.731343E+03	7.190772E-03	2.789637E-04
5.741294E+03	7.213213E-03	2.798898E-04
5.751244E+03	7.236599E-03	2.808378E-04
5.761194E+03	7.260826E-03	2.818035E-04
5.771144E+03	7.285558E-03	2.827739E-04
5.781095E+03	7.310500E-03	2.837374E-04
5.791045E+03	7.335524E-03	2.846891E-04
5.800995E+03	7.360173E-03	2.856111E-04
5.810945E+03	7.384230E-03	2.864952E-04
5.820896E+03	7.407480E-03	2.873329E-04
5.830846E+03	7.429561E-03	2.881102E-04
5.840796E+03	7.450286E-03	2.888201E-04
5.850746E+03	7.469320E-03	2.894497E-04
5.860697E+03	7.486606E-03	2.899969E-04
5.870647E+03	7.501861E-03	2.904510E-04
5.880597E+03	7.514912E-03	2.908057E-04
5.890547E+03	7.525703E-03	2.910589E-04
5.900498E+03	7.534054E-03	2.912042E-04
5.910448E+03	7.539978E-03	2.912424E-04
5.920398E+03	7.543367E-03	2.911699E-04
5.930348E+03	7.544312E-03	2.909906E-04
5.940299E+03	7.542861E-03	2.907069E-04
5.950249E+03	7.539104E-03	2.903229E-04
5.960199E+03	7.533071E-03	2.898403E-04
5.970149E+03	7.525014E-03	2.892693E-04
5.980100E+03	7.515121E-03	2.886178E-04
5.990050E+03	7.503527E-03	2.878916E-04
6.000000E+03	7.490579E-03	2.871046E-04
6.009950E+03	7.476469E-03	2.862648E-04
6.019900E+03	7.461414E-03	2.853812E-04
6.029851E+03	7.445927E-03	2.844738E-04
6.039801E+03	7.430182E-03	2.835498E-04
6.049751E+03	7.414639E-03	2.826274E-04
6.059701E+03	7.399505E-03	2.817149E-04
6.069652E+03	7.385265E-03	2.808311E-04
6.079602E+03	7.372242E-03	2.799887E-04
6.089552E+03	7.360851E-03	2.792038E-04
6.099502E+03	7.351505E-03	2.784922E-04
6.109453E+03	7.344531E-03	2.778668E-04
6.119403E+03	7.340346E-03	2.773431E-04
6.129353E+03	7.339346E-03	2.769365E-04
6.139303E+03	7.341921E-03	2.766615E-04
6.149254E+03	7.348440E-03	2.765320E-04
6.159204E+03	7.359154E-03	2.765575E-04
6.169154E+03	7.374463E-03	2.767528E-04
6.179104E+03	7.394645E-03	2.771281E-04
6.189055E+03	7.419916E-03	2.776913E-04
6.199005E+03	7.450496E-03	2.784504E-04
6.208955E+03	7.486487E-03	2.794090E-04
6.218905E+03	7.527949E-03	2.805690E-04
6.228856E+03	7.574882E-03	2.819303E-04
6.238806E+03	7.627235E-03	2.834906E-04
6.248756E+03	7.685008E-03	2.852498E-04
6.258706E+03	7.747840E-03	2.871940E-04
6.268657E+03	7.815841E-03	2.893267E-04
6.278607E+03	7.888564E-03	2.916309E-04
6.288557E+03	7.965827E-03	2.940994E-04
6.298507E+03	8.047317E-03	2.967203E-04
6.308458E+03	8.132672E-03	2.994800E-04
6.318408E+03	8.221397E-03	3.023599E-04
6.328358E+03	8.313082E-03	3.053449E-04
6.338308E+03	8.407302E-03	3.084193E-04
6.348259E+03	8.503489E-03	3.115623E-04
6.358209E+03	8.601080E-03	3.147534E-04
6.368159E+03	8.699633E-03	3.179766E-04
6.378109E+03	8.798327E-03	3.212023E-04
6.388060E+03	8.896618E-03	3.244109E-04
6.398010E+03	8.993858E-03	3.275793E-04
6.407960E+03	9.089282E-03	3.306803E-04
6.417910E+03	9.182592E-03	3.337037E-04
6.427861E+03	9.273152E-03	3.366271E-04
6.437811E+03	9.360798E-03	3.394454E-04
6.447761E+03	9.445279E-03	3.421501E-04
6.457711E+03	9.526259E-03	3.447301E-04
6.467662E+03	9.603581E-03	3.471804E-04
6.477612E+03	9.677151E-03	3.494981E-04
6.487562E+03	9.746907E-03	3.516812E-04
6.497512E+03	9.812819E-03	3.537285E-04
6.507463E+03	9.875046E-03	3.556456E-04
6.517413E+03	9.933450E-03	3.574276E-04
6.527363E+03	9.987908E-03	3.590699E-04
6.537313E+03	1.003879E-02	3.605858E-04
6.547264E+03	1.008583E-02	3.619655E-04
6.557214E+03	1.012925E-02	3.632168E-04
6.567164E+03	1.016912E-02	3.643419E-04
6.577114E+03	1.020550E-02	3.653431E-04
6.587065E+03	1.023846E-02	3.662227E-04
6.597015E+03	1.026791E-02	3.669770E-04
6.606965E+03	1.029409E-02	3.676145E-04
6.616915E+03	1.031690E-02	3.681316E-04
6.626866E+03	1.033660E-02	3.685373E-04
6.636816E+03	1.035311E-02	3.688282E-04
6.646766E+03	1.036652E-02	3.690078E-04
6.656716E+03	1.037711E-02	3.690857E-04
6.666667E+03	1.038500E-02	3.690659E-04
6.676617E+03	1.038998E-02	3.689407E-04
6.686567E+03	1.039254E-02	3.687276E-04
6.696517E+03	1.039249E-02	3.684192E-04
6.706468E+03	1.039034E-02	3.680341E-04
6.716418E+03	1.038612E-02	3.675728E-04
6.726368E+03	1.037982E-02	3.670352E-04
6.736318E+03	1.037205E-02	3.664419E-04
6.746269E+03	1.036263E-02	3.657873E-04
6.756219E+03	1.035198E-02	3.650856E-04
6.766169E+03	1.034032E-02	3.643449E-04
6.776119E+03	1.032789E-02	3.635731E-04
6.786070E+03	1.031474E-02	3.627716E-04
6.796020E+03	1.030125E-02	3.619545E-04
6.805970E+03	1.028747E-02	3.611229E-04
6.815920E+03	1.027378E-02	3.602902E-04
6.825871E+03	1.026019E-02	3.594564E-04
6.835821E+03	1.024687E-02	3.586275E-04
6.845771E+03	1.023414E-02	3.578152E-04
6.855721E+03	1.022179E-02	3.570110E-04
6.865672E+03	1.021028E-02	3.562317E-04
6.875622E+03	1.019952E-02	3.554738E-04
6.885572E+03	1.018956E-02	3.547393E-04
6.895522E+03	1.018045E-02	3.540293E-04
6.905473E+03	1.017219E-02	3.533443E-04
6.915423E+03	1.016458E-02	3.526772E-04
6.925373E+03	1.015777E-02	3.520334E-04
6.935323E+03	1.015172E-02	3.514113E-04
6.945274E+03	1.014635E-02	3.508084E-04
6.955224E+03	1.014118E-02	3.502082E-04
6.965174E+03	1.013670E-02	3.496277E-04
6.975124E+03	1.013220E-02	3.490431E-04
6.985075E+03	1.012797E-02	3.484640E-04
6.995025E+03	1.012369E-02	3.478798E-04
7.004975E+03	1.011924E-02	3.472869E-04
7.014925E+03	1.011451E-02	3.466818E-04
7.024876E+03	1.010938E-02	3.460609E-04
7.034826E+03	1.010356E-02	3.454147E-04
7.044776E+03	1.009716E-02	3.447475E-04
7.054726E+03	1.009011E-02	3.440573E-04
7.064677E+03	1.008216E-02	3.433361E-04
7.074627E+03	1.007346E-02	3.425898E-04
7.084577E+03	1.006379E-02	3.418112E-04
7.094527E+03	1.005313E-02	3.410006E-04
7.104478E+03	1.004149E-02	3.401590E-04
7.114428E+03	1.002909E-02	3.392947E-04
7.124378E+03	1.001557E-02	3.383955E-04
7.134328E+03	1.000094E-02	3.374634E-04
7.144279E+03	9.985684E-03	3.365151E-04
7.154229E+03	9.969434E-03	3.355388E-04
7.164179E+03	9.952247E-03	3.345374E-04
7.174129E+03	9.934387E-03	3.335206E-04
7.184080E+03	9.915704E-03	3.324840E-04
7.194030E+03	9.896244E-03	3.314300E-04
7.203980E+03	9.876051E-03	3.303608E-04
7.213930E+03	9.855156E-03	3.292785E-04
7.223881E+03	9.833793E-03	3.281915E-04
7.233831E+03	9.811557E-03	3.270872E-04
7.243781E+03	9.788871E-03	3.259806E-04
7.253731E+03	9.765505E-03	3.248647E-04
7.263682E+03	9.741445E-03	3.237400E-04
7.273632E+03	9.716865E-03	3.226131E-04
7.283582E+03	9.691511E-03	3.214763E-04
7.293532E+03	9.665539E-03	3.203358E-04
7.303483E+03	9.638889E-03	3.191902E-04
7.313433E+03	9.611718E-03	3.180457E-04
7.323383E+03	9.583948E-03	3.169004E-04
7.333333E+03	9.555730E-03	3.157603E-04
7.343284E+03	9.526785E-03	3.146166E-04
7.353234E+03	9.497688E-03	3.134894E-04
7.363184E+03	9.468397E-03	3.123779E-04
7.373134E+03	9.438635E-03	3.112737E-04
7.383085E+03	9.409017E-03	3.101978E-04
7.393035E+03	9.379305E-03	3.091430E-04
7.402985E+03	9.349691E-03	3.081163E-04
7.412935E+03	9.319967E-03	3.071116E-04
7.422886E+03	9.290362E-03	3.061370E-04
7.432836E+03	9.260243E-03	3.051723E-04
7.442786E+03	9.230087E-03	3.042337E-04
7.452736E+03	9.199300E-03	3.033019E-04
7.462687E+03	9.168160E-03	3.023854E-04
7.472637E+03	9.136526E-03	3.014781E-04
7.482587E+03	9.104264E-03	3.005746E-04
7.492537E+03	9.071678E-03	2.996838E-04
7.502488E+03	9.038193E-03	2.987854E-04
7.512438E+03	9.004342E-03	2.978961E-04
7.522388E+03	8.970008E-03	2.970106E-04
7.532338E+03	8.935317E-03	2.961321E-04
7.542289E+03	8.900160E-03	2.952558E-04
7.552239E+03	8.864860E-03	2.943913E-04
7.562189E+03	8.829283E-03	2.935331E-04
7.572139E+03	8.793506E-03	2.926826E-04
7.582090E+03	8.757808E-03	2.918481E-04
7.592040E+03	8.722014E-03	2.910227E-04
7.601990E+03	8.686358E-03	2.902133E-04
7.611940E+03	8.650421E-03	2.894048E-04
7.621891E+03	8.614615E-03	2.886101E-04
7.631841E+03	8.578698E-03	2.878202E-04
7.641791E+03	8.542822E-03	2.870393E-04
7.651741E+03	8.506706E-03	2.862570E-04
7.661692E+03	8.470242E-03	2.854688E-04
7.671642E+03	8.433315E-03	2.846699E-04
7.681592E+03	8.396224E-03	2.838696E-04
7.691542E+03	8.358157E-03	2.830396E-04
7.701493E+03	8.319590E-03	2.821952E-04
7.711443E+03	8.279907E-03	2.813146E-04
7.721393E+03	8.239113E-03	2.803971E-04
