#wls	flux	fluxerr
1.592040E+03	8.840883E-05	7.131972E-06
1.631841E+03	8.795972E-05	7.086932E-06
1.671642E+03	8.755371E-05	7.045200E-06
1.711443E+03	8.717404E-05	7.005412E-06
1.751244E+03	8.685390E-05	6.970221E-06
1.791045E+03	8.656020E-05	6.936951E-06
1.830846E+03	8.634207E-05	6.909521E-06
1.870647E+03	8.615027E-05	6.883965E-06
1.910448E+03	8.603362E-05	6.864164E-06
1.950249E+03	8.595946E-05	6.847482E-06
1.990050E+03	8.595992E-05	6.836451E-06
2.029851E+03	8.601878E-05	6.829748E-06
2.069652E+03	8.613594E-05	6.827332E-06
2.109453E+03	8.634309E-05	6.831678E-06
2.149254E+03	8.660828E-05	6.840214E-06
2.189055E+03	8.697876E-05	6.856628E-06
2.228856E+03	8.740726E-05	6.877140E-06
2.268657E+03	8.794063E-05	6.905391E-06
2.308458E+03	8.857867E-05	6.941297E-06
2.348259E+03	8.930585E-05	6.983579E-06
2.388060E+03	9.013764E-05	7.033378E-06
2.427861E+03	9.110476E-05	7.093012E-06
2.467662E+03	9.217653E-05	7.160004E-06
2.507463E+03	9.338362E-05	7.236650E-06
2.547264E+03	9.474134E-05	7.324027E-06
2.587065E+03	9.623455E-05	7.420855E-06
2.626866E+03	9.790906E-05	7.530540E-06
2.666667E+03	9.974968E-05	7.651773E-06
2.706468E+03	1.017869E-04	7.786742E-06
2.746269E+03	1.040360E-04	7.936440E-06
2.786070E+03	1.065121E-04	8.101839E-06
2.825871E+03	1.092305E-04	8.283878E-06
2.865672E+03	1.122213E-04	8.484612E-06
2.905473E+03	1.155146E-04	8.706052E-06
2.945274E+03	1.191403E-04	8.950151E-06
2.985075E+03	1.231283E-04	9.218810E-06
2.995025E+03	1.241955E-04	9.290784E-06
3.004975E+03	1.252786E-04	9.363765E-06
3.014925E+03	1.263778E-04	9.437751E-06
3.024876E+03	1.275230E-04	9.514978E-06
3.034826E+03	1.286842E-04	9.593193E-06
3.044776E+03	1.298763E-04	9.673510E-06
3.054726E+03	1.310844E-04	9.754799E-06
3.064677E+03	1.323385E-04	9.839292E-06
3.074627E+03	1.336236E-04	9.925860E-06
3.084577E+03	1.349245E-04	1.001337E-05
3.094527E+03	1.362713E-04	1.010405E-05
3.104478E+03	1.376489E-04	1.019678E-05
3.114428E+03	1.390574E-04	1.029153E-05
3.124378E+03	1.404966E-04	1.038831E-05
3.134328E+03	1.419817E-04	1.048820E-05
3.144279E+03	1.434824E-04	1.058898E-05
3.154229E+03	1.450438E-04	1.069396E-05
3.164179E+03	1.466208E-04	1.079981E-05
3.174129E+03	1.482584E-04	1.090982E-05
3.184080E+03	1.499115E-04	1.102066E-05
3.194030E+03	1.516251E-04	1.113565E-05
3.203980E+03	1.533691E-04	1.125254E-05
3.213930E+03	1.551585E-04	1.137244E-05
3.223881E+03	1.569931E-04	1.149531E-05
3.233831E+03	1.588729E-04	1.162114E-05
3.243781E+03	1.607979E-04	1.174992E-05
3.253731E+03	1.627679E-04	1.188162E-05
3.263682E+03	1.647828E-04	1.201622E-05
3.273632E+03	1.668576E-04	1.215480E-05
3.283582E+03	1.689772E-04	1.229624E-05
3.293532E+03	1.711413E-04	1.244051E-05
3.303483E+03	1.733649E-04	1.258868E-05
3.313433E+03	1.756329E-04	1.273964E-05
3.323383E+03	1.779602E-04	1.289445E-05
3.333333E+03	1.803465E-04	1.305309E-05
3.343284E+03	1.827919E-04	1.321552E-05
3.353234E+03	1.852960E-04	1.338171E-05
3.363184E+03	1.878738E-04	1.355273E-05
3.373134E+03	1.904949E-04	1.372635E-05
3.383085E+03	1.931742E-04	1.390364E-05
3.393035E+03	1.959418E-04	1.408673E-05
3.402985E+03	1.987519E-04	1.427233E-05
3.412935E+03	2.016498E-04	1.446366E-05
3.422886E+03	2.046049E-04	1.465850E-05
3.432836E+03	2.076322E-04	1.485789E-05
3.442786E+03	2.107312E-04	1.506180E-05
3.452736E+03	2.139017E-04	1.527017E-05
3.462687E+03	2.171435E-04	1.548297E-05
3.472637E+03	2.204711E-04	1.570121E-05
3.482587E+03	2.238694E-04	1.592378E-05
3.492537E+03	2.273528E-04	1.615170E-05
3.502488E+03	2.309061E-04	1.638383E-05
3.512438E+03	2.345588E-04	1.662226E-05
3.522388E+03	2.382956E-04	1.686586E-05
3.532338E+03	2.421010E-04	1.711352E-05
3.542289E+03	2.460045E-04	1.736728E-05
3.552239E+03	2.500058E-04	1.762710E-05
3.562189E+03	2.540892E-04	1.789184E-05
3.572139E+03	2.582693E-04	1.816249E-05
3.582090E+03	2.625456E-04	1.843898E-05
3.592040E+03	2.669025E-04	1.872018E-05
3.601990E+03	2.713693E-04	1.900812E-05
3.611940E+03	2.759306E-04	1.930167E-05
3.621891E+03	2.806006E-04	1.960181E-05
3.631841E+03	2.853637E-04	1.990739E-05
3.641791E+03	2.902342E-04	2.021938E-05
3.651741E+03	2.952114E-04	2.053769E-05
3.661692E+03	3.002946E-04	2.086223E-05
3.671642E+03	3.054830E-04	2.119290E-05
3.681592E+03	3.107907E-04	2.153065E-05
3.691542E+03	3.161872E-04	2.187330E-05
3.701493E+03	3.217163E-04	2.222387E-05
3.711443E+03	3.273473E-04	2.258017E-05
3.721393E+03	3.331093E-04	2.294417E-05
3.731343E+03	3.389714E-04	2.331369E-05
3.741294E+03	3.449476E-04	2.368966E-05
3.751244E+03	3.510520E-04	2.407299E-05
3.761194E+03	3.572685E-04	2.446252E-05
3.771144E+03	3.636112E-04	2.485918E-05
3.781095E+03	3.700640E-04	2.526183E-05
3.791045E+03	3.766410E-04	2.567135E-05
3.800995E+03	3.833409E-04	2.608762E-05
3.810945E+03	3.901627E-04	2.651052E-05
3.820896E+03	3.971053E-04	2.693992E-05
3.830846E+03	4.041676E-04	2.737570E-05
3.840796E+03	4.113487E-04	2.781773E-05
3.850746E+03	4.186619E-04	2.826687E-05
3.860697E+03	4.260916E-04	2.872199E-05
3.870647E+03	4.336365E-04	2.918297E-05
3.880597E+03	4.413104E-04	2.965068E-05
3.890547E+03	4.490973E-04	3.012397E-05
3.900498E+03	4.570108E-04	3.060372E-05
3.910448E+03	4.650351E-04	3.108881E-05
3.920398E+03	4.731693E-04	3.157911E-05
3.930348E+03	4.814267E-04	3.207546E-05
3.940299E+03	4.897919E-04	3.257678E-05
3.950249E+03	4.982782E-04	3.308389E-05
3.960199E+03	5.068556E-04	3.359476E-05
3.970149E+03	5.155523E-04	3.411118E-05
3.980100E+03	5.243524E-04	3.463205E-05
3.990050E+03	5.332412E-04	3.515635E-05
4.000000E+03	5.422322E-04	3.568491E-05
4.009950E+03	5.513100E-04	3.621667E-05
4.019900E+03	5.604737E-04	3.675150E-05
4.029851E+03	5.697371E-04	3.729028E-05
4.039801E+03	5.790711E-04	3.783104E-05
4.049751E+03	5.884750E-04	3.837368E-05
4.059701E+03	5.979630E-04	3.891908E-05
4.069652E+03	6.075056E-04	3.946528E-05
4.079602E+03	6.171034E-04	4.001227E-05
4.089552E+03	6.267693E-04	4.056084E-05
4.099502E+03	6.364761E-04	4.110918E-05
4.109453E+03	6.462227E-04	4.165720E-05
4.119403E+03	6.559963E-04	4.220402E-05
4.129353E+03	6.658102E-04	4.275047E-05
4.139303E+03	6.756372E-04	4.329477E-05
4.149254E+03	6.854773E-04	4.383689E-05
4.159204E+03	6.953315E-04	4.437685E-05
4.169154E+03	7.051730E-04	4.491294E-05
4.179104E+03	7.150017E-04	4.544511E-05
4.189055E+03	7.248197E-04	4.597350E-05
4.199005E+03	7.346131E-04	4.649719E-05
4.208955E+03	7.443705E-04	4.701545E-05
4.218905E+03	7.540784E-04	4.752742E-05
4.228856E+03	7.637389E-04	4.803323E-05
4.238806E+03	7.733535E-04	4.853297E-05
4.248756E+03	7.828972E-04	4.902508E-05
4.258706E+03	7.923568E-04	4.950871E-05
4.268657E+03	8.017495E-04	4.998497E-05
4.278607E+03	8.110631E-04	5.045310E-05
4.288557E+03	8.202861E-04	5.091238E-05
4.298507E+03	8.294080E-04	5.136219E-05
4.308458E+03	8.384444E-04	5.180351E-05
4.318408E+03	8.473837E-04	5.223563E-05
4.328358E+03	8.562300E-04	5.265884E-05
4.338308E+03	8.649849E-04	5.307323E-05
4.348259E+03	8.736513E-04	5.347900E-05
4.358209E+03	8.822329E-04	5.387640E-05
4.368159E+03	8.907451E-04	5.426638E-05
4.378109E+03	8.992044E-04	5.464994E-05
4.388060E+03	9.076138E-04	5.502729E-05
4.398010E+03	9.159900E-04	5.539940E-05
4.407960E+03	9.243619E-04	5.576803E-05
4.417910E+03	9.327191E-04	5.613254E-05
4.427861E+03	9.410912E-04	5.649466E-05
4.437811E+03	9.494672E-04	5.685374E-05
4.447761E+03	9.578379E-04	5.720917E-05
4.457711E+03	9.661912E-04	5.756023E-05
4.467662E+03	9.745307E-04	5.790712E-05
4.477612E+03	9.828057E-04	5.824680E-05
4.487562E+03	9.910466E-04	5.858109E-05
4.497512E+03	9.992025E-04	5.890699E-05
4.507463E+03	1.007291E-03	5.922550E-05
4.517413E+03	1.015273E-03	5.953445E-05
4.527363E+03	1.023167E-03	5.983482E-05
4.537313E+03	1.030949E-03	6.012528E-05
4.547264E+03	1.038635E-03	6.040681E-05
4.557214E+03	1.046201E-03	6.067805E-05
4.567164E+03	1.053651E-03	6.093924E-05
4.577114E+03	1.060988E-03	6.119053E-05
4.587065E+03	1.068213E-03	6.143213E-05
4.597015E+03	1.075329E-03	6.166421E-05
4.606965E+03	1.082326E-03	6.188622E-05
4.616915E+03	1.089221E-03	6.209909E-05
4.626866E+03	1.096013E-03	6.230293E-05
4.636816E+03	1.102694E-03	6.249722E-05
4.646766E+03	1.109264E-03	6.268205E-05
4.656716E+03	1.115740E-03	6.285834E-05
4.666667E+03	1.122108E-03	6.302547E-05
4.676617E+03	1.128386E-03	6.318435E-05
4.686567E+03	1.134574E-03	6.333504E-05
4.696517E+03	1.140660E-03	6.347696E-05
4.706468E+03	1.146646E-03	6.361017E-05
4.716418E+03	1.152546E-03	6.373554E-05
4.726368E+03	1.158348E-03	6.385239E-05
4.736318E+03	1.164053E-03	6.396085E-05
4.746269E+03	1.169688E-03	6.406245E-05
4.756219E+03	1.175227E-03	6.415574E-05
4.766169E+03	1.180698E-03	6.424228E-05
4.776119E+03	1.186087E-03	6.432137E-05
4.786070E+03	1.191409E-03	6.439378E-05
4.796020E+03	1.196662E-03	6.445953E-05
4.805970E+03	1.201849E-03	6.451867E-05
4.815920E+03	1.206981E-03	6.457191E-05
4.825871E+03	1.212072E-03	6.461999E-05
4.835821E+03	1.217135E-03	6.466361E-05
4.845771E+03	1.222158E-03	6.470207E-05
4.855721E+03	1.227179E-03	6.473750E-05
4.865672E+03	1.232173E-03	6.476843E-05
4.875622E+03	1.237165E-03	6.479631E-05
4.885572E+03	1.242156E-03	6.482107E-05
4.895522E+03	1.247159E-03	6.484342E-05
4.905473E+03	1.252173E-03	6.486332E-05
4.915423E+03	1.257213E-03	6.488144E-05
4.925373E+03	1.262263E-03	6.489700E-05
4.935323E+03	1.267339E-03	6.491071E-05
4.945274E+03	1.272451E-03	6.492313E-05
4.955224E+03	1.277586E-03	6.493356E-05
4.965174E+03	1.282757E-03	6.494260E-05
4.975124E+03	1.287963E-03	6.495019E-05
4.985075E+03	1.293204E-03	6.495622E-05
4.995025E+03	1.298492E-03	6.496135E-05
5.004975E+03	1.303812E-03	6.496473E-05
5.014925E+03	1.309164E-03	6.496632E-05
5.024876E+03	1.314560E-03	6.496673E-05
5.034826E+03	1.320013E-03	6.496649E-05
5.044776E+03	1.325494E-03	6.496418E-05
5.054726E+03	1.331001E-03	6.495968E-05
5.064677E+03	1.336563E-03	6.495427E-05
5.074627E+03	1.342176E-03	6.494783E-05
5.084577E+03	1.347813E-03	6.493891E-05
5.094527E+03	1.353499E-03	6.492876E-05
5.104478E+03	1.359221E-03	6.491663E-05
5.114428E+03	1.364989E-03	6.490305E-05
5.124378E+03	1.370790E-03	6.488729E-05
5.134328E+03	1.376622E-03	6.486923E-05
5.144279E+03	1.382512E-03	6.485011E-05
5.154229E+03	1.388431E-03	6.482854E-05
5.164179E+03	1.394391E-03	6.480504E-05
5.174129E+03	1.400393E-03	6.477959E-05
5.184080E+03	1.406421E-03	6.475140E-05
5.194030E+03	1.412502E-03	6.472171E-05
5.203980E+03	1.418622E-03	6.468983E-05
5.213930E+03	1.424779E-03	6.465565E-05
5.223881E+03	1.430974E-03	6.461911E-05
5.233831E+03	1.437220E-03	6.458078E-05
5.243781E+03	1.443502E-03	6.453999E-05
5.253731E+03	1.449835E-03	6.449732E-05
5.263682E+03	1.456204E-03	6.445206E-05
5.273632E+03	1.462623E-03	6.440479E-05
5.283582E+03	1.469078E-03	6.435486E-05
5.293532E+03	1.475599E-03	6.430352E-05
5.303483E+03	1.482155E-03	6.424941E-05
5.313433E+03	1.488762E-03	6.419319E-05
5.323383E+03	1.495422E-03	6.413481E-05
5.333333E+03	1.502149E-03	6.407492E-05
5.343284E+03	1.508914E-03	6.401220E-05
5.353234E+03	1.515749E-03	6.394792E-05
5.363184E+03	1.522655E-03	6.388210E-05
5.373134E+03	1.529601E-03	6.381341E-05
5.383085E+03	1.536621E-03	6.374319E-05
5.393035E+03	1.543701E-03	6.367079E-05
5.402985E+03	1.550858E-03	6.359688E-05
5.412935E+03	1.558077E-03	6.352082E-05
5.422886E+03	1.565378E-03	6.344328E-05
5.432836E+03	1.572745E-03	6.336364E-05
5.442786E+03	1.580183E-03	6.328198E-05
5.452736E+03	1.587708E-03	6.319893E-05
5.462687E+03	1.595309E-03	6.311393E-05
5.472637E+03	1.603003E-03	6.302767E-05
5.482587E+03	1.610763E-03	6.293893E-05
5.492537E+03	1.618621E-03	6.284902E-05
5.502488E+03	1.626569E-03	6.275742E-05
5.512438E+03	1.634623E-03	6.266479E-05
5.522388E+03	1.642756E-03	6.256998E-05
5.532338E+03	1.651004E-03	6.247431E-05
5.542289E+03	1.659356E-03	6.237726E-05
5.552239E+03	1.667816E-03	6.227891E-05
5.562189E+03	1.676388E-03	6.217936E-05
5.572139E+03	1.685078E-03	6.207873E-05
5.582090E+03	1.693890E-03	6.197710E-05
5.592040E+03	1.702831E-03	6.187461E-05
5.601990E+03	1.711904E-03	6.177136E-05
5.611940E+03	1.721117E-03	6.166747E-05
5.621891E+03	1.730459E-03	6.156246E-05
5.631841E+03	1.739935E-03	6.145649E-05
5.641791E+03	1.749570E-03	6.135028E-05
5.651741E+03	1.759351E-03	6.124335E-05
5.661692E+03	1.769305E-03	6.113649E-05
5.671642E+03	1.779403E-03	6.102862E-05
5.681592E+03	1.789670E-03	6.092050E-05
5.691542E+03	1.800114E-03	6.081229E-05
5.701493E+03	1.810724E-03	6.070354E-05
5.711443E+03	1.821510E-03	6.059446E-05
5.721393E+03	1.832496E-03	6.048579E-05
5.731343E+03	1.843655E-03	6.037651E-05
5.741294E+03	1.855032E-03	6.026800E-05
5.751244E+03	1.866600E-03	6.015925E-05
5.761194E+03	1.878385E-03	6.005104E-05
5.771144E+03	1.890379E-03	5.994296E-05
5.781095E+03	1.902610E-03	5.983579E-05
5.791045E+03	1.915050E-03	5.972856E-05
5.800995E+03	1.927745E-03	5.962262E-05
5.810945E+03	1.940669E-03	5.951701E-05
5.820896E+03	1.953850E-03	5.941251E-05
5.830846E+03	1.967279E-03	5.930873E-05
5.840796E+03	1.980985E-03	5.920643E-05
5.850746E+03	1.994960E-03	5.910527E-05
5.860697E+03	2.009213E-03	5.900540E-05
5.870647E+03	2.023755E-03	5.890707E-05
5.880597E+03	2.038596E-03	5.881044E-05
5.890547E+03	2.053727E-03	5.871514E-05
5.900498E+03	2.069176E-03	5.862193E-05
5.910448E+03	2.084954E-03	5.853100E-05
5.920398E+03	2.101052E-03	5.844199E-05
5.930348E+03	2.117478E-03	5.835505E-05
5.940299E+03	2.134263E-03	5.827094E-05
5.950249E+03	2.151415E-03	5.818986E-05
5.960199E+03	2.168902E-03	5.811081E-05
5.970149E+03	2.186772E-03	5.803509E-05
5.980100E+03	2.205036E-03	5.796288E-05
5.990050E+03	2.223679E-03	5.789376E-05
6.000000E+03	2.242729E-03	5.782842E-05
6.009950E+03	2.262192E-03	5.776704E-05
6.019900E+03	2.282073E-03	5.770971E-05
6.029851E+03	2.302401E-03	5.765714E-05
6.039801E+03	2.323178E-03	5.760944E-05
6.049751E+03	2.344385E-03	5.756613E-05
6.059701E+03	2.366093E-03	5.752905E-05
6.069652E+03	2.388256E-03	5.749711E-05
6.079602E+03	2.410922E-03	5.747155E-05
6.089552E+03	2.434063E-03	5.745187E-05
6.099502E+03	2.457702E-03	5.743870E-05
6.109453E+03	2.481833E-03	5.743209E-05
6.119403E+03	2.506448E-03	5.743209E-05
6.129353E+03	2.531514E-03	5.743815E-05
6.139303E+03	2.557017E-03	5.745031E-05
6.149254E+03	2.582891E-03	5.746742E-05
6.159204E+03	2.609194E-03	5.749122E-05
6.169154E+03	2.635854E-03	5.752056E-05
6.179104E+03	2.662899E-03	5.755657E-05
6.189055E+03	2.690303E-03	5.759927E-05
6.199005E+03	2.718009E-03	5.764805E-05
6.208955E+03	2.746013E-03	5.770349E-05
6.218905E+03	2.774248E-03	5.776497E-05
6.228856E+03	2.802647E-03	5.783188E-05
6.238806E+03	2.831163E-03	5.790420E-05
6.248756E+03	2.859774E-03	5.798241E-05
6.258706E+03	2.888338E-03	5.806471E-05
6.268657E+03	2.916854E-03	5.815216E-05
6.278607E+03	2.945227E-03	5.824407E-05
6.288557E+03	2.973356E-03	5.833970E-05
6.298507E+03	3.001198E-03	5.843950E-05
6.308458E+03	3.028673E-03	5.854328E-05
6.318408E+03	3.055665E-03	5.865023E-05
6.328358E+03	3.082088E-03	5.876014E-05
6.338308E+03	3.107914E-03	5.887398E-05
6.348259E+03	3.132987E-03	5.899029E-05
6.358209E+03	3.157243E-03	5.910945E-05
6.368159E+03	3.180625E-03	5.923188E-05
6.378109E+03	3.203008E-03	5.935681E-05
6.388060E+03	3.224374E-03	5.948539E-05
6.398010E+03	3.244649E-03	5.961774E-05
6.407960E+03	3.263803E-03	5.975468E-05
6.417910E+03	3.281751E-03	5.989606E-05
6.427861E+03	3.298563E-03	6.004440E-05
6.437811E+03	3.314220E-03	6.020054E-05
6.447761E+03	3.328749E-03	6.036606E-05
6.457711E+03	3.342190E-03	6.054267E-05
6.467662E+03	3.354587E-03	6.073206E-05
6.477612E+03	3.365885E-03	6.093394E-05
6.487562E+03	3.376175E-03	6.115008E-05
6.497512E+03	3.385372E-03	6.137878E-05
6.507463E+03	3.393569E-03	6.162148E-05
6.517413E+03	3.400682E-03	6.187624E-05
6.527363E+03	3.406772E-03	6.214368E-05
6.537313E+03	3.411788E-03	6.242229E-05
6.547264E+03	3.415829E-03	6.271319E-05
6.557214E+03	3.418846E-03	6.301470E-05
6.567164E+03	3.420899E-03	6.332707E-05
6.577114E+03	3.421974E-03	6.364915E-05
6.587065E+03	3.422095E-03	6.398037E-05
6.597015E+03	3.421285E-03	6.432011E-05
6.606965E+03	3.419604E-03	6.466842E-05
6.616915E+03	3.417038E-03	6.502389E-05
6.626866E+03	3.413608E-03	6.538577E-05
6.636816E+03	3.409374E-03	6.575399E-05
6.646766E+03	3.404359E-03	6.612780E-05
6.656716E+03	3.398545E-03	6.650562E-05
6.666667E+03	3.392031E-03	6.688815E-05
6.676617E+03	3.384763E-03	6.727306E-05
6.686567E+03	3.376797E-03	6.766028E-05
6.696517E+03	3.368194E-03	6.804976E-05
6.706468E+03	3.358937E-03	6.843993E-05
6.716418E+03	3.349083E-03	6.883081E-05
6.726368E+03	3.338654E-03	6.922162E-05
6.736318E+03	3.327631E-03	6.961084E-05
6.746269E+03	3.316110E-03	6.999933E-05
6.756219E+03	3.304074E-03	7.038562E-05
6.766169E+03	3.291541E-03	7.076905E-05
6.776119E+03	3.278532E-03	7.114898E-05
6.786070E+03	3.265104E-03	7.152565E-05
6.796020E+03	3.251275E-03	7.189849E-05
6.805970E+03	3.237028E-03	7.226616E-05
6.815920E+03	3.222456E-03	7.262983E-05
6.825871E+03	3.207504E-03	7.298740E-05
6.835821E+03	3.192226E-03	7.333927E-05
6.845771E+03	3.176680E-03	7.368592E-05
6.855721E+03	3.160810E-03	7.402531E-05
6.865672E+03	3.144707E-03	7.435885E-05
6.875622E+03	3.128390E-03	7.468630E-05
6.885572E+03	3.111840E-03	7.500653E-05
6.895522E+03	3.095073E-03	7.531935E-05
6.905473E+03	3.078146E-03	7.562550E-05
6.915423E+03	3.061076E-03	7.592486E-05
6.925373E+03	3.043842E-03	7.621641E-05
6.935323E+03	3.026500E-03	7.650104E-05
6.945274E+03	3.009065E-03	7.677869E-05
6.955224E+03	2.991518E-03	7.704845E-05
6.965174E+03	2.973949E-03	7.731224E-05
6.975124E+03	2.956301E-03	7.756825E-05
6.985075E+03	2.938627E-03	7.781748E-05
6.995025E+03	2.920979E-03	7.806105E-05
7.004975E+03	2.903301E-03	7.829718E-05
7.014925E+03	2.885680E-03	7.852798E-05
7.024876E+03	2.868061E-03	7.875171E-05
7.034826E+03	2.850530E-03	7.897055E-05
7.044776E+03	2.833066E-03	7.918377E-05
7.054726E+03	2.815684E-03	7.939165E-05
7.064677E+03	2.798399E-03	7.959447E-05
7.074627E+03	2.781261E-03	7.979354E-05
7.084577E+03	2.764249E-03	7.998821E-05
7.094527E+03	2.747376E-03	8.017884E-05
7.104478E+03	2.730692E-03	8.036679E-05
7.114428E+03	2.714174E-03	8.055143E-05
7.124378E+03	2.697871E-03	8.073419E-05
7.134328E+03	2.681796E-03	8.091552E-05
7.144279E+03	2.665926E-03	8.109479E-05
7.154229E+03	2.650309E-03	8.127350E-05
7.164179E+03	2.634922E-03	8.145105E-05
7.174129E+03	2.619846E-03	8.163001E-05
7.184080E+03	2.605024E-03	8.180879E-05
7.194030E+03	2.590535E-03	8.198995E-05
7.203980E+03	2.576357E-03	8.217298E-05
7.213930E+03	2.562500E-03	8.235836E-05
7.223881E+03	2.548975E-03	8.254665E-05
7.233831E+03	2.535825E-03	8.273939E-05
7.243781E+03	2.523027E-03	8.293611E-05
7.253731E+03	2.510591E-03	8.313728E-05
7.263682E+03	2.498592E-03	8.334567E-05
7.273632E+03	2.486973E-03	8.355963E-05
7.283582E+03	2.475745E-03	8.377973E-05
7.293532E+03	2.464979E-03	8.400872E-05
7.303483E+03	2.454620E-03	8.424496E-05
7.313433E+03	2.444676E-03	8.448899E-05
7.323383E+03	2.435188E-03	8.474251E-05
7.333333E+03	2.426130E-03	8.500492E-05
7.343284E+03	2.417543E-03	8.527793E-05
7.353234E+03	2.409370E-03	8.555985E-05
7.363184E+03	2.401617E-03	8.585116E-05
7.373134E+03	2.394324E-03	8.615360E-05
7.383085E+03	2.387433E-03	8.646533E-05
7.393035E+03	2.380983E-03	8.678808E-05
7.402985E+03	2.374915E-03	8.711997E-05
7.412935E+03	2.369332E-03	8.746504E-05
7.422886E+03	2.364176E-03	8.782146E-05
7.432836E+03	2.359483E-03	8.819085E-05
7.442786E+03	2.355257E-03	8.857370E-05
7.452736E+03	2.351535E-03	8.897172E-05
7.462687E+03	2.348322E-03	8.938540E-05
7.472637E+03	2.345590E-03	8.981399E-05
7.482587E+03	2.343373E-03	9.025918E-05
7.492537E+03	2.341644E-03	9.072020E-05
7.502488E+03	2.340405E-03	9.119749E-05
7.512438E+03	2.339692E-03	9.169274E-05
7.522388E+03	2.339474E-03	9.220508E-05
7.532338E+03	2.339785E-03	9.273622E-05
7.542289E+03	2.340565E-03	9.328401E-05
7.552239E+03	2.341846E-03	9.385010E-05
7.562189E+03	2.343628E-03	9.443481E-05
7.572139E+03	2.345914E-03	9.503854E-05
7.582090E+03	2.348673E-03	9.566032E-05
7.592040E+03	2.351903E-03	9.630043E-05
7.601990E+03	2.355638E-03	9.696048E-05
7.611940E+03	2.359845E-03	9.763949E-05
7.621891E+03	2.364524E-03	9.833767E-05
7.631841E+03	2.369707E-03	9.905670E-05
7.641791E+03	2.375328E-03	9.979406E-05
7.651741E+03	2.381419E-03	1.005514E-04
7.661692E+03	2.388011E-03	1.013302E-04
7.671642E+03	2.395037E-03	1.021281E-04
7.681592E+03	2.402528E-03	1.029465E-04
7.691542E+03	2.410484E-03	1.037857E-04
7.701493E+03	2.418902E-03	1.046459E-04
7.711443E+03	2.427813E-03	1.055287E-04
7.721393E+03	2.437149E-03	1.064313E-04
