#wls	flux	fluxerr
1.592040E+03	7.816890E-05	1.303097E-05
1.631841E+03	7.815400E-05	1.301196E-05
1.671642E+03	7.817778E-05	1.299902E-05
1.711443E+03	7.824045E-05	1.299212E-05
1.751244E+03	7.834236E-05	1.299131E-05
1.791045E+03	7.849823E-05	1.299898E-05
1.830846E+03	7.869399E-05	1.301275E-05
1.870647E+03	7.894437E-05	1.303502E-05
1.910448E+03	7.924973E-05	1.306580E-05
1.950249E+03	7.961054E-05	1.310510E-05
1.990050E+03	8.002717E-05	1.315294E-05
2.029851E+03	8.051454E-05	1.321170E-05
2.069652E+03	8.107306E-05	1.328138E-05
2.109453E+03	8.170341E-05	1.336201E-05
2.149254E+03	8.242045E-05	1.345593E-05
2.189055E+03	8.321058E-05	1.356083E-05
2.228856E+03	8.410316E-05	1.368141E-05
2.268657E+03	8.507039E-05	1.381303E-05
2.308458E+03	8.615610E-05	1.396269E-05
2.348259E+03	8.736129E-05	1.413042E-05
2.388060E+03	8.867266E-05	1.431393E-05
2.427861E+03	9.012007E-05	1.451788E-05
2.467662E+03	9.169039E-05	1.473999E-05
2.507463E+03	9.342815E-05	1.498723E-05
2.547264E+03	9.532042E-05	1.525732E-05
2.587065E+03	9.738320E-05	1.555259E-05
2.626866E+03	9.963263E-05	1.587538E-05
2.666667E+03	1.020850E-04	1.622801E-05
2.706468E+03	1.047714E-04	1.661511E-05
2.746269E+03	1.076940E-04	1.703668E-05
2.786070E+03	1.108693E-04	1.749498E-05
2.825871E+03	1.143289E-04	1.799460E-05
2.865672E+03	1.181194E-04	1.854239E-05
2.905473E+03	1.222282E-04	1.913589E-05
2.945274E+03	1.267170E-04	1.978419E-05
2.985075E+03	1.316177E-04	2.049166E-05
2.995025E+03	1.329126E-04	2.067853E-05
3.004975E+03	1.342400E-04	2.087009E-05
3.014925E+03	1.355849E-04	2.106401E-05
3.024876E+03	1.369623E-04	2.126260E-05
3.034826E+03	1.383723E-04	2.146585E-05
3.044776E+03	1.398149E-04	2.167376E-05
3.054726E+03	1.412900E-04	2.188631E-05
3.064677E+03	1.427978E-04	2.210350E-05
3.074627E+03	1.443383E-04	2.232532E-05
3.084577E+03	1.459114E-04	2.255176E-05
3.094527E+03	1.475172E-04	2.278280E-05
3.104478E+03	1.491557E-04	2.301843E-05
3.114428E+03	1.508269E-04	2.325864E-05
3.124378E+03	1.525459E-04	2.350574E-05
3.134328E+03	1.543128E-04	2.375972E-05
3.144279E+03	1.560973E-04	2.401590E-05
3.154229E+03	1.579297E-04	2.427893E-05
3.164179E+03	1.598099E-04	2.454878E-05
3.174129E+03	1.617228E-04	2.482312E-05
3.184080E+03	1.636836E-04	2.510424E-05
3.194030E+03	1.656771E-04	2.538980E-05
3.203980E+03	1.677336E-04	2.568444E-05
3.213930E+03	1.698227E-04	2.598346E-05
3.223881E+03	1.719596E-04	2.628919E-05
3.233831E+03	1.741443E-04	2.660158E-05
3.243781E+03	1.763767E-04	2.692063E-05
3.253731E+03	1.786721E-04	2.724860E-05
3.263682E+03	1.809998E-04	2.758084E-05
3.273632E+03	1.833904E-04	2.792196E-05
3.283582E+03	1.858284E-04	2.826959E-05
3.293532E+03	1.883292E-04	2.862603E-05
3.303483E+03	1.908774E-04	2.898892E-05
3.313433E+03	1.934881E-04	2.936053E-05
3.323383E+03	1.961459E-04	2.973852E-05
3.333333E+03	1.988661E-04	3.012514E-05
3.343284E+03	2.016485E-04	3.052036E-05
3.353234E+03	2.044930E-04	3.092413E-05
3.363184E+03	2.073995E-04	3.133641E-05
3.373134E+03	2.103832E-04	3.175945E-05
3.383085E+03	2.134131E-04	3.218856E-05
3.393035E+03	2.165199E-04	3.262833E-05
3.402985E+03	2.196880E-04	3.307636E-05
3.412935E+03	2.229325E-04	3.353492E-05
3.422886E+03	2.262379E-04	3.400162E-05
3.432836E+03	2.296192E-04	3.447870E-05
3.442786E+03	2.330918E-04	3.496842E-05
3.452736E+03	2.366244E-04	3.546606E-05
3.462687E+03	2.402322E-04	3.597385E-05
3.472637E+03	2.439149E-04	3.649171E-05
3.482587E+03	2.476876E-04	3.702187E-05
3.492537E+03	2.515345E-04	3.756192E-05
3.502488E+03	2.554552E-04	3.811177E-05
3.512438E+03	2.594648E-04	3.867361E-05
3.522388E+03	2.635629E-04	3.924737E-05
3.532338E+03	2.677490E-04	3.983290E-05
3.542289E+03	2.720227E-04	4.043012E-05
3.552239E+03	2.763990E-04	4.104119E-05
3.562189E+03	2.808464E-04	4.166140E-05
3.572139E+03	2.853953E-04	4.229522E-05
3.582090E+03	2.900296E-04	4.294020E-05
3.592040E+03	2.947642E-04	4.359853E-05
3.601990E+03	2.995986E-04	4.427003E-05
3.611940E+03	3.045320E-04	4.495458E-05
3.621891E+03	3.095637E-04	4.565201E-05
3.631841E+03	3.146931E-04	4.636216E-05
3.641791E+03	3.199348E-04	4.708715E-05
3.651741E+03	3.252725E-04	4.782453E-05
3.661692E+03	3.307209E-04	4.857639E-05
3.671642E+03	3.362637E-04	4.934027E-05
3.681592E+03	3.419154E-04	5.011827E-05
3.691542E+03	3.476905E-04	5.091244E-05
3.701493E+03	3.535572E-04	5.171806E-05
3.711443E+03	3.595452E-04	5.253944E-05
3.721393E+03	3.656382E-04	5.337410E-05
3.731343E+03	3.718506E-04	5.422410E-05
3.741294E+03	3.781807E-04	5.508915E-05
3.751244E+03	3.846125E-04	5.596680E-05
3.761194E+03	3.911754E-04	5.686133E-05
3.771144E+03	3.978373E-04	5.776797E-05
3.781095E+03	4.046275E-04	5.869091E-05
3.791045E+03	4.115296E-04	5.962771E-05
3.800995E+03	4.185574E-04	6.058032E-05
3.810945E+03	4.256938E-04	6.154617E-05
3.820896E+03	4.329533E-04	6.252730E-05
3.830846E+03	4.403183E-04	6.352111E-05
3.840796E+03	4.478188E-04	6.453186E-05
3.850746E+03	4.554218E-04	6.555472E-05
3.860697E+03	4.631563E-04	6.659378E-05
3.870647E+03	4.710056E-04	6.764659E-05
3.880597E+03	4.789526E-04	6.871061E-05
3.890547E+03	4.870415E-04	6.979213E-05
3.900498E+03	4.952242E-04	7.088419E-05
3.910448E+03	5.035301E-04	7.199090E-05
3.920398E+03	5.119569E-04	7.311189E-05
3.930348E+03	5.204721E-04	7.424244E-05
3.940299E+03	5.291195E-04	7.538874E-05
3.950249E+03	5.378670E-04	7.654613E-05
3.960199E+03	5.467122E-04	7.771422E-05
3.970149E+03	5.556688E-04	7.889488E-05
3.980100E+03	5.647196E-04	8.008561E-05
3.990050E+03	5.738771E-04	8.128812E-05
4.000000E+03	5.831401E-04	8.250217E-05
4.009950E+03	5.924759E-04	8.372306E-05
4.019900E+03	6.019124E-04	8.495470E-05
4.029851E+03	6.114333E-04	8.619471E-05
4.039801E+03	6.210357E-04	8.744263E-05
4.049751E+03	6.307183E-04	8.869824E-05
4.059701E+03	6.404788E-04	8.996113E-05
4.069652E+03	6.503005E-04	9.122892E-05
4.079602E+03	6.601967E-04	9.250342E-05
4.089552E+03	6.701499E-04	9.378214E-05
4.099502E+03	6.801737E-04	9.506694E-05
4.109453E+03	6.902369E-04	9.635340E-05
4.119403E+03	7.003372E-04	9.764117E-05
4.129353E+03	7.104883E-04	9.893212E-05
4.139303E+03	7.206589E-04	1.002219E-04
4.149254E+03	7.308771E-04	1.015143E-04
4.159204E+03	7.410980E-04	1.028031E-04
4.169154E+03	7.513340E-04	1.040901E-04
4.179104E+03	7.615852E-04	1.053751E-04
4.189055E+03	7.718353E-04	1.066560E-04
4.199005E+03	7.820691E-04	1.079306E-04
4.208955E+03	7.923002E-04	1.092008E-04
4.218905E+03	8.024853E-04	1.104606E-04
4.228856E+03	8.126526E-04	1.117139E-04
4.238806E+03	8.227733E-04	1.129567E-04
4.248756E+03	8.328471E-04	1.141891E-04
4.258706E+03	8.428601E-04	1.154092E-04
4.268657E+03	8.527989E-04	1.166150E-04
4.278607E+03	8.626493E-04	1.178048E-04
4.288557E+03	8.724269E-04	1.189807E-04
4.298507E+03	8.820904E-04	1.201371E-04
4.308458E+03	8.916410E-04	1.212742E-04
4.318408E+03	9.010668E-04	1.223904E-04
4.328358E+03	9.103556E-04	1.234842E-04
4.338308E+03	9.194959E-04	1.245540E-04
4.348259E+03	9.284760E-04	1.255984E-04
4.358209E+03	9.372717E-04	1.266142E-04
4.368159E+03	9.458861E-04	1.276018E-04
4.378109E+03	9.542815E-04	1.285563E-04
4.388060E+03	9.624756E-04	1.294803E-04
4.398010E+03	9.704451E-04	1.303706E-04
4.407960E+03	9.781678E-04	1.312245E-04
4.417910E+03	9.856347E-04	1.320408E-04
4.427861E+03	9.928650E-04	1.328222E-04
4.437811E+03	9.998239E-04	1.335643E-04
4.447761E+03	1.006530E-03	1.342697E-04
4.457711E+03	1.012990E-03	1.349393E-04
4.467662E+03	1.019209E-03	1.355741E-04
4.477612E+03	1.025181E-03	1.361734E-04
4.487562E+03	1.030925E-03	1.367399E-04
4.497512E+03	1.036462E-03	1.372763E-04
4.507463E+03	1.041772E-03	1.377802E-04
4.517413E+03	1.046875E-03	1.382544E-04
4.527363E+03	1.051778E-03	1.387000E-04
4.537313E+03	1.056501E-03	1.391197E-04
4.547264E+03	1.061040E-03	1.395130E-04
4.557214E+03	1.065413E-03	1.398826E-04
4.567164E+03	1.069630E-03	1.402296E-04
4.577114E+03	1.073698E-03	1.405551E-04
4.587065E+03	1.077612E-03	1.408587E-04
4.597015E+03	1.081404E-03	1.411446E-04
4.606965E+03	1.085072E-03	1.414125E-04
4.616915E+03	1.088622E-03	1.416635E-04
4.626866E+03	1.092077E-03	1.419003E-04
4.636816E+03	1.095443E-03	1.421240E-04
4.646766E+03	1.098742E-03	1.423375E-04
4.656716E+03	1.101969E-03	1.425401E-04
4.666667E+03	1.105145E-03	1.427347E-04
4.676617E+03	1.108291E-03	1.429239E-04
4.686567E+03	1.111427E-03	1.431105E-04
4.696517E+03	1.114575E-03	1.432970E-04
4.706468E+03	1.117753E-03	1.434861E-04
4.716418E+03	1.120996E-03	1.436820E-04
4.726368E+03	1.124336E-03	1.438888E-04
4.736318E+03	1.127817E-03	1.441123E-04
4.746269E+03	1.131497E-03	1.443596E-04
4.756219E+03	1.135408E-03	1.446346E-04
4.766169E+03	1.139532E-03	1.449351E-04
4.776119E+03	1.143861E-03	1.452600E-04
4.786070E+03	1.148341E-03	1.456020E-04
4.796020E+03	1.152964E-03	1.459604E-04
4.805970E+03	1.157723E-03	1.463340E-04
4.815920E+03	1.162586E-03	1.467187E-04
4.825871E+03	1.167569E-03	1.471166E-04
4.835821E+03	1.172651E-03	1.475250E-04
4.845771E+03	1.177836E-03	1.479441E-04
4.855721E+03	1.183138E-03	1.483759E-04
4.865672E+03	1.188547E-03	1.488189E-04
4.875622E+03	1.194049E-03	1.492715E-04
4.885572E+03	1.199671E-03	1.497369E-04
4.895522E+03	1.205399E-03	1.502132E-04
4.905473E+03	1.211244E-03	1.507020E-04
4.915423E+03	1.217193E-03	1.512013E-04
4.925373E+03	1.223255E-03	1.517123E-04
4.935323E+03	1.229441E-03	1.522363E-04
4.945274E+03	1.235733E-03	1.527712E-04
4.955224E+03	1.242155E-03	1.533196E-04
4.965174E+03	1.248689E-03	1.538794E-04
4.975124E+03	1.255330E-03	1.544499E-04
4.985075E+03	1.262087E-03	1.550320E-04
4.995025E+03	1.268968E-03	1.556268E-04
5.004975E+03	1.275967E-03	1.562334E-04
5.014925E+03	1.283066E-03	1.568495E-04
5.024876E+03	1.290285E-03	1.574776E-04
5.034826E+03	1.297606E-03	1.581154E-04
5.044776E+03	1.305036E-03	1.587636E-04
5.054726E+03	1.312569E-03	1.594215E-04
5.064677E+03	1.320199E-03	1.600883E-04
5.074627E+03	1.327933E-03	1.607648E-04
5.084577E+03	1.335752E-03	1.614487E-04
5.094527E+03	1.343664E-03	1.621407E-04
5.104478E+03	1.351661E-03	1.628401E-04
5.114428E+03	1.359739E-03	1.635462E-04
5.124378E+03	1.367905E-03	1.642598E-04
5.134328E+03	1.376140E-03	1.649785E-04
5.144279E+03	1.384436E-03	1.657015E-04
5.154229E+03	1.392803E-03	1.664299E-04
5.164179E+03	1.401236E-03	1.671629E-04
5.174129E+03	1.409713E-03	1.678981E-04
5.184080E+03	1.418258E-03	1.686383E-04
5.194030E+03	1.426823E-03	1.693776E-04
5.203980E+03	1.435446E-03	1.701206E-04
5.213930E+03	1.444107E-03	1.708649E-04
5.223881E+03	1.452786E-03	1.716081E-04
5.233831E+03	1.461493E-03	1.723515E-04
5.243781E+03	1.470223E-03	1.730944E-04
5.253731E+03	1.478972E-03	1.738364E-04
5.263682E+03	1.487734E-03	1.745768E-04
5.273632E+03	1.496492E-03	1.753134E-04
5.283582E+03	1.505255E-03	1.760476E-04
5.293532E+03	1.514020E-03	1.767788E-04
5.303483E+03	1.522767E-03	1.775048E-04
5.313433E+03	1.531508E-03	1.782271E-04
5.323383E+03	1.540240E-03	1.789452E-04
5.333333E+03	1.548959E-03	1.796587E-04
5.343284E+03	1.557662E-03	1.803674E-04
5.353234E+03	1.566346E-03	1.810709E-04
5.363184E+03	1.575009E-03	1.817690E-04
5.373134E+03	1.583665E-03	1.824632E-04
5.383085E+03	1.592310E-03	1.831534E-04
5.393035E+03	1.600959E-03	1.838411E-04
5.402985E+03	1.609611E-03	1.845263E-04
5.412935E+03	1.618282E-03	1.852107E-04
5.422886E+03	1.626986E-03	1.858962E-04
5.432836E+03	1.635740E-03	1.865845E-04
5.442786E+03	1.644560E-03	1.872775E-04
5.452736E+03	1.653448E-03	1.879755E-04
5.462687E+03	1.662421E-03	1.886802E-04
5.472637E+03	1.671481E-03	1.893920E-04
5.482587E+03	1.680646E-03	1.901130E-04
5.492537E+03	1.689868E-03	1.908374E-04
5.502488E+03	1.699182E-03	1.915695E-04
5.512438E+03	1.708574E-03	1.923077E-04
5.522388E+03	1.718013E-03	1.930482E-04
5.532338E+03	1.727502E-03	1.937915E-04
5.542289E+03	1.737041E-03	1.945377E-04
5.552239E+03	1.746600E-03	1.952834E-04
5.562189E+03	1.756198E-03	1.960308E-04
5.572139E+03	1.765822E-03	1.967785E-04
5.582090E+03	1.775475E-03	1.975266E-04
5.592040E+03	1.785160E-03	1.982757E-04
5.601990E+03	1.794881E-03	1.990262E-04
5.611940E+03	1.804607E-03	1.997747E-04
5.621891E+03	1.814396E-03	2.005276E-04
5.631841E+03	1.824216E-03	2.012816E-04
5.641791E+03	1.834073E-03	2.020371E-04
5.651741E+03	1.843990E-03	2.027969E-04
5.661692E+03	1.853955E-03	2.035596E-04
5.671642E+03	1.863973E-03	2.043258E-04
5.681592E+03	1.874071E-03	2.050984E-04
5.691542E+03	1.884254E-03	2.058782E-04
5.701493E+03	1.894512E-03	2.066638E-04
5.711443E+03	1.904872E-03	2.074583E-04
5.721393E+03	1.915322E-03	2.082605E-04
5.731343E+03	1.925890E-03	2.090734E-04
5.741294E+03	1.936585E-03	2.098980E-04
5.751244E+03	1.947418E-03	2.107353E-04
5.761194E+03	1.958378E-03	2.115844E-04
5.771144E+03	1.969496E-03	2.124485E-04
5.781095E+03	1.980782E-03	2.133287E-04
5.791045E+03	1.992248E-03	2.142262E-04
5.800995E+03	2.003887E-03	2.151404E-04
5.810945E+03	2.015729E-03	2.160744E-04
5.820896E+03	2.027809E-03	2.170320E-04
5.830846E+03	2.040080E-03	2.180081E-04
5.840796E+03	2.052616E-03	2.190105E-04
5.850746E+03	2.065391E-03	2.200365E-04
5.860697E+03	2.078462E-03	2.210922E-04
5.870647E+03	2.091781E-03	2.221723E-04
5.880597E+03	2.105428E-03	2.232854E-04
5.890547E+03	2.119355E-03	2.244263E-04
5.900498E+03	2.133643E-03	2.256036E-04
5.910448E+03	2.148246E-03	2.268124E-04
5.920398E+03	2.163225E-03	2.280589E-04
5.930348E+03	2.178575E-03	2.293428E-04
5.940299E+03	2.194317E-03	2.306661E-04
5.950249E+03	2.210468E-03	2.320305E-04
5.960199E+03	2.227049E-03	2.334382E-04
5.970149E+03	2.244056E-03	2.348888E-04
5.980100E+03	2.261508E-03	2.363842E-04
5.990050E+03	2.279449E-03	2.379288E-04
6.000000E+03	2.297852E-03	2.395199E-04
6.009950E+03	2.316759E-03	2.411617E-04
6.019900E+03	2.336166E-03	2.428539E-04
6.029851E+03	2.356069E-03	2.445959E-04
6.039801E+03	2.376508E-03	2.463919E-04
6.049751E+03	2.397453E-03	2.482387E-04
6.059701E+03	2.418944E-03	2.501404E-04
6.069652E+03	2.440971E-03	2.520961E-04
6.079602E+03	2.463524E-03	2.541044E-04
6.089552E+03	2.486613E-03	2.561667E-04
6.099502E+03	2.510222E-03	2.582812E-04
6.109453E+03	2.534359E-03	2.604486E-04
6.119403E+03	2.559077E-03	2.626747E-04
6.129353E+03	2.584329E-03	2.649545E-04
6.139303E+03	2.610243E-03	2.673012E-04
6.149254E+03	2.636898E-03	2.697228E-04
6.159204E+03	2.664240E-03	2.722138E-04
6.169154E+03	2.692153E-03	2.747625E-04
6.179104E+03	2.720627E-03	2.773679E-04
6.189055E+03	2.749612E-03	2.800250E-04
6.199005E+03	2.779057E-03	2.827287E-04
6.208955E+03	2.808985E-03	2.854815E-04
6.218905E+03	2.839302E-03	2.882741E-04
6.228856E+03	2.870023E-03	2.911082E-04
6.238806E+03	2.901132E-03	2.939822E-04
6.248756E+03	2.932517E-03	2.968852E-04
6.258706E+03	2.964214E-03	2.998209E-04
6.268657E+03	2.996131E-03	3.027804E-04
6.278607E+03	3.028204E-03	3.057575E-04
6.288557E+03	3.060396E-03	3.087488E-04
6.298507E+03	3.092635E-03	3.117472E-04
6.308458E+03	3.124844E-03	3.147454E-04
6.318408E+03	3.156944E-03	3.177358E-04
6.328358E+03	3.188855E-03	3.207104E-04
6.338308E+03	3.220492E-03	3.236613E-04
6.348259E+03	3.251802E-03	3.265834E-04
6.358209E+03	3.282634E-03	3.294620E-04
6.368159E+03	3.312968E-03	3.322954E-04
6.378109E+03	3.342651E-03	3.350685E-04
6.388060E+03	3.371665E-03	3.377802E-04
6.398010E+03	3.399823E-03	3.404121E-04
6.407960E+03	3.427150E-03	3.429670E-04
6.417910E+03	3.453463E-03	3.454272E-04
6.427861E+03	3.478733E-03	3.477900E-04
6.437811E+03	3.502896E-03	3.500497E-04
6.447761E+03	3.525860E-03	3.521973E-04
6.457711E+03	3.547607E-03	3.542315E-04
6.467662E+03	3.568053E-03	3.561442E-04
6.477612E+03	3.587191E-03	3.579351E-04
6.487562E+03	3.604983E-03	3.596008E-04
6.497512E+03	3.621397E-03	3.611382E-04
6.507463E+03	3.636408E-03	3.625448E-04
6.517413E+03	3.650030E-03	3.638223E-04
6.527363E+03	3.662247E-03	3.649691E-04
6.537313E+03	3.673047E-03	3.659838E-04
6.547264E+03	3.682498E-03	3.668735E-04
6.557214E+03	3.690596E-03	3.676376E-04
6.567164E+03	3.697299E-03	3.682720E-04
6.577114E+03	3.702730E-03	3.687888E-04
6.587065E+03	3.706813E-03	3.691803E-04
6.597015E+03	3.709637E-03	3.694553E-04
6.606965E+03	3.711212E-03	3.696149E-04
6.616915E+03	3.711553E-03	3.696601E-04
6.626866E+03	3.710714E-03	3.695963E-04
6.636816E+03	3.708672E-03	3.694211E-04
6.646766E+03	3.705530E-03	3.691444E-04
6.656716E+03	3.701307E-03	3.687680E-04
6.666667E+03	3.695984E-03	3.682899E-04
6.676617E+03	3.689628E-03	3.677163E-04
6.686567E+03	3.682262E-03	3.670495E-04
6.696517E+03	3.673913E-03	3.662919E-04
6.706468E+03	3.664691E-03	3.654541E-04
6.716418E+03	3.654539E-03	3.645303E-04
6.726368E+03	3.643530E-03	3.635275E-04
6.736318E+03	3.631691E-03	3.624480E-04
6.746269E+03	3.619051E-03	3.612946E-04
6.756219E+03	3.605684E-03	3.600742E-04
6.766169E+03	3.591576E-03	3.587854E-04
6.776119E+03	3.576801E-03	3.574352E-04
6.786070E+03	3.561346E-03	3.560221E-04
6.796020E+03	3.545328E-03	3.545572E-04
6.805970E+03	3.528692E-03	3.530351E-04
6.815920E+03	3.511553E-03	3.514670E-04
6.825871E+03	3.493858E-03	3.498472E-04
6.835821E+03	3.475722E-03	3.481869E-04
6.845771E+03	3.457133E-03	3.464848E-04
6.855721E+03	3.438122E-03	3.447436E-04
6.865672E+03	3.418759E-03	3.429702E-04
6.875622E+03	3.399034E-03	3.411633E-04
6.885572E+03	3.378976E-03	3.393256E-04
6.895522E+03	3.358655E-03	3.374638E-04
6.905473E+03	3.338059E-03	3.355766E-04
6.915423E+03	3.317257E-03	3.336706E-04
6.925373E+03	3.296237E-03	3.317445E-04
6.935323E+03	3.275068E-03	3.298048E-04
6.945274E+03	3.253775E-03	3.278541E-04
6.955224E+03	3.232307E-03	3.258869E-04
6.965174E+03	3.210809E-03	3.239177E-04
6.975124E+03	3.189228E-03	3.219410E-04
6.985075E+03	3.167589E-03	3.199591E-04
6.995025E+03	3.145918E-03	3.179745E-04
7.004975E+03	3.124279E-03	3.159935E-04
7.014925E+03	3.102657E-03	3.140144E-04
7.024876E+03	3.081115E-03	3.120434E-04
7.034826E+03	3.059637E-03	3.100790E-04
7.044776E+03	3.038209E-03	3.081193E-04
7.054726E+03	3.016929E-03	3.061745E-04
7.064677E+03	2.995780E-03	3.042426E-04
7.074627E+03	2.974787E-03	3.023258E-04
7.084577E+03	2.953968E-03	3.004263E-04
7.094527E+03	2.933309E-03	2.985423E-04
7.104478E+03	2.912866E-03	2.966795E-04
7.114428E+03	2.892660E-03	2.948400E-04
7.124378E+03	2.872673E-03	2.930219E-04
7.134328E+03	2.852925E-03	2.912272E-04
7.144279E+03	2.833472E-03	2.894615E-04
7.154229E+03	2.814295E-03	2.877230E-04
7.164179E+03	2.795413E-03	2.860134E-04
7.174129E+03	2.776808E-03	2.843309E-04
7.184080E+03	2.758569E-03	2.826847E-04
7.194030E+03	2.740640E-03	2.810691E-04
7.203980E+03	2.723076E-03	2.794895E-04
7.213930E+03	2.705857E-03	2.779440E-04
7.223881E+03	2.688998E-03	2.764343E-04
7.233831E+03	2.672550E-03	2.749654E-04
7.243781E+03	2.656461E-03	2.735321E-04
7.253731E+03	2.640811E-03	2.721428E-04
7.263682E+03	2.625549E-03	2.707920E-04
7.273632E+03	2.610722E-03	2.694848E-04
7.283582E+03	2.596311E-03	2.682193E-04
7.293532E+03	2.582362E-03	2.670002E-04
7.303483E+03	2.568855E-03	2.658255E-04
7.313433E+03	2.555836E-03	2.647001E-04
7.323383E+03	2.543251E-03	2.636184E-04
7.333333E+03	2.531143E-03	2.625851E-04
7.343284E+03	2.519527E-03	2.616016E-04
7.353234E+03	2.508411E-03	2.606690E-04
7.363184E+03	2.497742E-03	2.597819E-04
7.373134E+03	2.487562E-03	2.589446E-04
7.383085E+03	2.477850E-03	2.581552E-04
7.393035E+03	2.468582E-03	2.574111E-04
7.402985E+03	2.459769E-03	2.567136E-04
7.412935E+03	2.451450E-03	2.560669E-04
7.422886E+03	2.443634E-03	2.554719E-04
7.432836E+03	2.436327E-03	2.549296E-04
7.442786E+03	2.429568E-03	2.544441E-04
7.452736E+03	2.423331E-03	2.540127E-04
7.462687E+03	2.417623E-03	2.536363E-04
7.472637E+03	2.412477E-03	2.533187E-04
7.482587E+03	2.407901E-03	2.530604E-04
7.492537E+03	2.403864E-03	2.528588E-04
7.502488E+03	2.400402E-03	2.527175E-04
7.512438E+03	2.397516E-03	2.526369E-04
7.522388E+03	2.395209E-03	2.526173E-04
7.532338E+03	2.393477E-03	2.526587E-04
7.542289E+03	2.392321E-03	2.527610E-04
7.552239E+03	2.391738E-03	2.529242E-04
7.562189E+03	2.391757E-03	2.531515E-04
7.572139E+03	2.392313E-03	2.534362E-04
7.582090E+03	2.393465E-03	2.537845E-04
7.592040E+03	2.395209E-03	2.541963E-04
7.601990E+03	2.397509E-03	2.546679E-04
7.611940E+03	2.400393E-03	2.552024E-04
7.621891E+03	2.403856E-03	2.557995E-04
7.631841E+03	2.407862E-03	2.564552E-04
7.641791E+03	2.412467E-03	2.571761E-04
7.651741E+03	2.417604E-03	2.579548E-04
7.661692E+03	2.423298E-03	2.587944E-04
7.671642E+03	2.429576E-03	2.596977E-04
7.681592E+03	2.436367E-03	2.606574E-04
7.691542E+03	2.443730E-03	2.616799E-04
7.701493E+03	2.451626E-03	2.627613E-04
7.711443E+03	2.460049E-03	2.639009E-04
7.721393E+03	2.468991E-03	2.650982E-04
