#wls	flux	fluxerr
1.592040E+03	8.177249E-05	4.779325E-06
1.631841E+03	8.252033E-05	4.814285E-06
1.671642E+03	8.331046E-05	4.851331E-06
1.711443E+03	8.415871E-05	4.891361E-06
1.751244E+03	8.505237E-05	4.933606E-06
1.791045E+03	8.599316E-05	4.978138E-06
1.830846E+03	8.698270E-05	5.025024E-06
1.870647E+03	8.802281E-05	5.074338E-06
1.910448E+03	8.913033E-05	5.127017E-06
1.950249E+03	9.030768E-05	5.183160E-06
1.990050E+03	9.154199E-05	5.241990E-06
2.029851E+03	9.285094E-05	5.304480E-06
2.069652E+03	9.422175E-05	5.369852E-06
2.109453E+03	9.568817E-05	5.439985E-06
2.149254E+03	9.722211E-05	5.513227E-06
2.189055E+03	9.884230E-05	5.590589E-06
2.228856E+03	1.005521E-04	5.672206E-06
2.268657E+03	1.023552E-04	5.758217E-06
2.308458E+03	1.042717E-04	5.849695E-06
2.348259E+03	1.062896E-04	5.945882E-06
2.388060E+03	1.084132E-04	6.046948E-06
2.427861E+03	1.106639E-04	6.154011E-06
2.467662E+03	1.130297E-04	6.266312E-06
2.507463E+03	1.155333E-04	6.385018E-06
2.547264E+03	1.181806E-04	6.510347E-06
2.587065E+03	1.209598E-04	6.641553E-06
2.626866E+03	1.239134E-04	6.780852E-06
2.666667E+03	1.270306E-04	6.927526E-06
2.706468E+03	1.303188E-04	7.081853E-06
2.746269E+03	1.337860E-04	7.244119E-06
2.786070E+03	1.374597E-04	7.415674E-06
2.825871E+03	1.413298E-04	7.595812E-06
2.865672E+03	1.454258E-04	7.785943E-06
2.905473E+03	1.497584E-04	7.986459E-06
2.945274E+03	1.543183E-04	8.196668E-06
2.985075E+03	1.591586E-04	8.419190E-06
2.995025E+03	1.604028E-04	8.476206E-06
3.004975E+03	1.616589E-04	8.533676E-06
3.014925E+03	1.629484E-04	8.592732E-06
3.024876E+03	1.642502E-04	8.652259E-06
3.034826E+03	1.655644E-04	8.712257E-06
3.044776E+03	1.669130E-04	8.773877E-06
3.054726E+03	1.682746E-04	8.835990E-06
3.064677E+03	1.696492E-04	8.898599E-06
3.074627E+03	1.710371E-04	8.961708E-06
3.084577E+03	1.724605E-04	9.026484E-06
3.094527E+03	1.738976E-04	9.091778E-06
3.104478E+03	1.753487E-04	9.157595E-06
3.114428E+03	1.768139E-04	9.223944E-06
3.124378E+03	1.783158E-04	9.292001E-06
3.134328E+03	1.798324E-04	9.360610E-06
3.144279E+03	1.813638E-04	9.429772E-06
3.154229E+03	1.829101E-04	9.499492E-06
3.164179E+03	1.844946E-04	9.570974E-06
3.174129E+03	1.860947E-04	9.643036E-06
3.184080E+03	1.877104E-04	9.715682E-06
3.194030E+03	1.893654E-04	9.790126E-06
3.203980E+03	1.910367E-04	9.865176E-06
3.213930E+03	1.927245E-04	9.940839E-06
3.223881E+03	1.944291E-04	1.001712E-05
3.233831E+03	1.961743E-04	1.009525E-05
3.243781E+03	1.979369E-04	1.017403E-05
3.253731E+03	1.997170E-04	1.025345E-05
3.263682E+03	2.015390E-04	1.033477E-05
3.273632E+03	2.033793E-04	1.041675E-05
3.283582E+03	2.052379E-04	1.049941E-05
3.293532E+03	2.071152E-04	1.058276E-05
3.303483E+03	2.090360E-04	1.066805E-05
3.313433E+03	2.109762E-04	1.075406E-05
3.323383E+03	2.129359E-04	1.084078E-05
3.333333E+03	2.149405E-04	1.092949E-05
3.343284E+03	2.169653E-04	1.101895E-05
3.353234E+03	2.190107E-04	1.110915E-05
3.363184E+03	2.210769E-04	1.120011E-05
3.373134E+03	2.231896E-04	1.129312E-05
3.383085E+03	2.253240E-04	1.138692E-05
3.393035E+03	2.274801E-04	1.148151E-05
3.402985E+03	2.296843E-04	1.157821E-05
3.412935E+03	2.318850E-04	1.167441E-05
3.422886E+03	2.341608E-04	1.177406E-05
3.432836E+03	2.364337E-04	1.187324E-05
3.442786E+03	2.387565E-04	1.197459E-05
3.452736E+03	2.411034E-04	1.207680E-05
3.462687E+03	2.434746E-04	1.217989E-05
3.472637E+03	2.458703E-04	1.228386E-05
3.482587E+03	2.483181E-04	1.239007E-05
3.492537E+03	2.507914E-04	1.249720E-05
3.502488E+03	2.533180E-04	1.260662E-05
3.512438E+03	2.558433E-04	1.271560E-05
3.522388E+03	2.584229E-04	1.282691E-05
3.532338E+03	2.610296E-04	1.293918E-05
3.542289E+03	2.636917E-04	1.305382E-05
3.552239E+03	2.663819E-04	1.316946E-05
3.562189E+03	2.691005E-04	1.328610E-05
3.572139E+03	2.718477E-04	1.340376E-05
3.582090E+03	2.746240E-04	1.352245E-05
3.592040E+03	2.774588E-04	1.364361E-05
3.601990E+03	2.803237E-04	1.376583E-05
3.611940E+03	2.832484E-04	1.389056E-05
3.621891E+03	2.861748E-04	1.401495E-05
3.631841E+03	2.891621E-04	1.414190E-05
3.641791E+03	2.921814E-04	1.426997E-05
3.651741E+03	2.952630E-04	1.440064E-05
3.661692E+03	2.983476E-04	1.453100E-05
3.671642E+03	3.014958E-04	1.466401E-05
3.681592E+03	3.046779E-04	1.479821E-05
3.691542E+03	3.078944E-04	1.493362E-05
3.701493E+03	3.111766E-04	1.507173E-05
3.711443E+03	3.144944E-04	1.521110E-05
3.721393E+03	3.178482E-04	1.535173E-05
3.731343E+03	3.212385E-04	1.549363E-05
3.741294E+03	3.246975E-04	1.563835E-05
3.751244E+03	3.281623E-04	1.578285E-05
3.761194E+03	3.316971E-04	1.593021E-05
3.771144E+03	3.352706E-04	1.607892E-05
3.781095E+03	3.389159E-04	1.623055E-05
3.791045E+03	3.425685E-04	1.638201E-05
3.800995E+03	3.462942E-04	1.653645E-05
3.810945E+03	3.500610E-04	1.669230E-05
3.820896E+03	3.538694E-04	1.684960E-05
3.830846E+03	3.577535E-04	1.700997E-05
3.840796E+03	3.616468E-04	1.717022E-05
3.850746E+03	3.656173E-04	1.733358E-05
3.860697E+03	3.696319E-04	1.749846E-05
3.870647E+03	3.736912E-04	1.766489E-05
3.880597E+03	3.777956E-04	1.783289E-05
3.890547E+03	3.819459E-04	1.800247E-05
3.900498E+03	3.861776E-04	1.817531E-05
3.910448E+03	3.904567E-04	1.834978E-05
3.920398E+03	3.947480E-04	1.852424E-05
3.930348E+03	3.991232E-04	1.870204E-05
3.940299E+03	4.035476E-04	1.888153E-05
3.950249E+03	4.080579E-04	1.906443E-05
3.960199E+03	4.125823E-04	1.924737E-05
3.970149E+03	4.171945E-04	1.943379E-05
3.980100E+03	4.218215E-04	1.962028E-05
3.990050E+03	4.265379E-04	1.981029E-05
4.000000E+03	4.313074E-04	2.000213E-05
4.009950E+03	4.360929E-04	2.019408E-05
4.019900E+03	4.409703E-04	2.038964E-05
4.029851E+03	4.459028E-04	2.058709E-05
4.039801E+03	4.509295E-04	2.078824E-05
4.049751E+03	4.559740E-04	2.098956E-05
4.059701E+03	4.610754E-04	2.119283E-05
4.069652E+03	4.662343E-04	2.139808E-05
4.079602E+03	4.714909E-04	2.160715E-05
4.089552E+03	4.767667E-04	2.181642E-05
4.099502E+03	4.821018E-04	2.202773E-05
4.109453E+03	4.875373E-04	2.224295E-05
4.119403E+03	4.929930E-04	2.245841E-05
4.129353E+03	4.985508E-04	2.267783E-05
4.139303E+03	5.041293E-04	2.289751E-05
4.149254E+03	5.098117E-04	2.312121E-05
4.159204E+03	5.155153E-04	2.334519E-05
4.169154E+03	5.212821E-04	2.357133E-05
4.179104E+03	5.271551E-04	2.380158E-05
4.189055E+03	5.330500E-04	2.403212E-05
4.199005E+03	5.390528E-04	2.426682E-05
4.208955E+03	5.450776E-04	2.450182E-05
4.218905E+03	5.511679E-04	2.473906E-05
4.228856E+03	5.573238E-04	2.497854E-05
4.238806E+03	5.635464E-04	2.522031E-05
4.248756E+03	5.698351E-04	2.546435E-05
4.258706E+03	5.761905E-04	2.571066E-05
4.268657E+03	5.826123E-04	2.595923E-05
4.278607E+03	5.891017E-04	2.621012E-05
4.288557E+03	5.956581E-04	2.646329E-05
4.298507E+03	6.022350E-04	2.671669E-05
4.308458E+03	6.088788E-04	2.697235E-05
4.318408E+03	6.156356E-04	2.723234E-05
4.328358E+03	6.224122E-04	2.749252E-05
4.338308E+03	6.292543E-04	2.775492E-05
4.348259E+03	6.361624E-04	2.801954E-05
4.358209E+03	6.430869E-04	2.828422E-05
4.368159E+03	6.501240E-04	2.855320E-05
4.378109E+03	6.571751E-04	2.882212E-05
4.388060E+03	6.642892E-04	2.909316E-05
4.398010E+03	6.714645E-04	2.936624E-05
4.407960E+03	6.786998E-04	2.964130E-05
4.417910E+03	6.859940E-04	2.991831E-05
4.427861E+03	6.932952E-04	3.019501E-05
4.437811E+03	7.006512E-04	3.047348E-05
4.447761E+03	7.080604E-04	3.075368E-05
4.457711E+03	7.155216E-04	3.103554E-05
4.467662E+03	7.230313E-04	3.131894E-05
4.477612E+03	7.305351E-04	3.160151E-05
4.487562E+03	7.380823E-04	3.188542E-05
4.497512E+03	7.456690E-04	3.217051E-05
4.507463E+03	7.532392E-04	3.245436E-05
4.517413E+03	7.608422E-04	3.273913E-05
4.527363E+03	7.684734E-04	3.302464E-05
4.537313E+03	7.761286E-04	3.331071E-05
4.547264E+03	7.837482E-04	3.359481E-05
4.557214E+03	7.914371E-04	3.388146E-05
4.567164E+03	7.990227E-04	3.416329E-05
4.577114E+03	8.066660E-04	3.444720E-05
4.587065E+03	8.142483E-04	3.472815E-05
4.597015E+03	8.218183E-04	3.500824E-05
4.606965E+03	8.293684E-04	3.528718E-05
4.616915E+03	8.368326E-04	3.556218E-05
4.626866E+03	8.442591E-04	3.583534E-05
4.636816E+03	8.515806E-04	3.610382E-05
4.646766E+03	8.589027E-04	3.637213E-05
4.656716E+03	8.660972E-04	3.663488E-05
4.666667E+03	8.731525E-04	3.689162E-05
4.676617E+03	8.801738E-04	3.714683E-05
4.686567E+03	8.869689E-04	3.739244E-05
4.696517E+03	8.937031E-04	3.763546E-05
4.706468E+03	9.002412E-04	3.787025E-05
4.716418E+03	9.066287E-04	3.809876E-05
4.726368E+03	9.127879E-04	3.831777E-05
4.736318E+03	9.187631E-04	3.852920E-05
4.746269E+03	9.245375E-04	3.873239E-05
4.756219E+03	9.300335E-04	3.892415E-05
4.766169E+03	9.352954E-04	3.910638E-05
4.776119E+03	9.403080E-04	3.927850E-05
4.786070E+03	9.449955E-04	3.943740E-05
4.796020E+03	9.494077E-04	3.958521E-05
4.805970E+03	9.534710E-04	3.971893E-05
4.815920E+03	9.572408E-04	3.984092E-05
4.825871E+03	9.607112E-04	3.995099E-05
4.835821E+03	9.638168E-04	4.004646E-05
4.845771E+03	9.666228E-04	4.013012E-05
4.855721E+03	9.690732E-04	4.019967E-05
4.865672E+03	9.712423E-04	4.025825E-05
4.875622E+03	9.731478E-04	4.030661E-05
4.885572E+03	9.747439E-04	4.034289E-05
4.895522E+03	9.761143E-04	4.037058E-05
4.905473E+03	9.772158E-04	4.038791E-05
4.915423E+03	9.781327E-04	4.039838E-05
4.925373E+03	9.788202E-04	4.040016E-05
4.935323E+03	9.793615E-04	4.039668E-05
4.945274E+03	9.797740E-04	4.038867E-05
4.955224E+03	9.800127E-04	4.037426E-05
4.965174E+03	9.801563E-04	4.035669E-05
4.975124E+03	9.801585E-04	4.033407E-05
4.985075E+03	9.800952E-04	4.030949E-05
4.995025E+03	9.799816E-04	4.028358E-05
5.004975E+03	9.797668E-04	4.025424E-05
5.014925E+03	9.795264E-04	4.022456E-05
5.024876E+03	9.792094E-04	4.019243E-05
5.034826E+03	9.788887E-04	4.016085E-05
5.044776E+03	9.785731E-04	4.013014E-05
5.054726E+03	9.782109E-04	4.009819E-05
5.064677E+03	9.778117E-04	4.006537E-05
5.074627E+03	9.774442E-04	4.003448E-05
5.084577E+03	9.771156E-04	4.000581E-05
5.094527E+03	9.767727E-04	3.997715E-05
5.104478E+03	9.764829E-04	3.995126E-05
5.114428E+03	9.762520E-04	3.992835E-05
5.124378E+03	9.760248E-04	3.990615E-05
5.134328E+03	9.758680E-04	3.988737E-05
5.144279E+03	9.757251E-04	3.986970E-05
5.154229E+03	9.756619E-04	3.985579E-05
5.164179E+03	9.756223E-04	3.984335E-05
5.174129E+03	9.756709E-04	3.983500E-05
5.184080E+03	9.758103E-04	3.983082E-05
5.194030E+03	9.759848E-04	3.982854E-05
5.203980E+03	9.762576E-04	3.983071E-05
5.213930E+03	9.765714E-04	3.983498E-05
5.223881E+03	9.769887E-04	3.984389E-05
5.233831E+03	9.775123E-04	3.985753E-05
5.243781E+03	9.780849E-04	3.987357E-05
5.253731E+03	9.787685E-04	3.989450E-05
5.263682E+03	9.795052E-04	3.991796E-05
5.273632E+03	9.803566E-04	3.994644E-05
5.283582E+03	9.813253E-04	3.998004E-05
5.293532E+03	9.823518E-04	4.001632E-05
5.303483E+03	9.834982E-04	4.005779E-05
5.313433E+03	9.847061E-04	4.010207E-05
5.323383E+03	9.860961E-04	4.015405E-05
5.333333E+03	9.874900E-04	4.020646E-05
5.343284E+03	9.890684E-04	4.026666E-05
5.353234E+03	9.906523E-04	4.032732E-05
5.363184E+03	9.924232E-04	4.039585E-05
5.373134E+03	9.942617E-04	4.046735E-05
5.383085E+03	9.962279E-04	4.054428E-05
5.393035E+03	9.982633E-04	4.062422E-05
5.402985E+03	1.000488E-03	4.071209E-05
5.412935E+03	1.002722E-03	4.080050E-05
5.422886E+03	1.005148E-03	4.089689E-05
5.432836E+03	1.007644E-03	4.099629E-05
5.442786E+03	1.010210E-03	4.109874E-05
5.452736E+03	1.012970E-03	4.120917E-05
5.462687E+03	1.015738E-03	4.132012E-05
5.472637E+03	1.018700E-03	4.143905E-05
5.482587E+03	1.021733E-03	4.156100E-05
5.492537E+03	1.024899E-03	4.168844E-05
5.502488E+03	1.028196E-03	4.182134E-05
5.512438E+03	1.031564E-03	4.195719E-05
5.522388E+03	1.035064E-03	4.209849E-05
5.532338E+03	1.038696E-03	4.224522E-05
5.542289E+03	1.042397E-03	4.239483E-05
5.552239E+03	1.046229E-03	4.254981E-05
5.562189E+03	1.050128E-03	4.270757E-05
5.572139E+03	1.054221E-03	4.287324E-05
5.582090E+03	1.058380E-03	4.304160E-05
5.592040E+03	1.062605E-03	4.321265E-05
5.601990E+03	1.067021E-03	4.339146E-05
5.611940E+03	1.071499E-03	4.357283E-05
5.621891E+03	1.076104E-03	4.375931E-05
5.631841E+03	1.080769E-03	4.394821E-05
5.641791E+03	1.085557E-03	4.414206E-05
5.651741E+03	1.090468E-03	4.434085E-05
5.661692E+03	1.095498E-03	4.454444E-05
5.671642E+03	1.100581E-03	4.475016E-05
5.681592E+03	1.105781E-03	4.496051E-05
5.691542E+03	1.111096E-03	4.517543E-05
5.701493E+03	1.116456E-03	4.539212E-05
5.711443E+03	1.121992E-03	4.561588E-05
5.721393E+03	1.127570E-03	4.584118E-05
5.731343E+03	1.133184E-03	4.606785E-05
5.741294E+03	1.138967E-03	4.630122E-05
5.751244E+03	1.144780E-03	4.653569E-05
5.761194E+03	1.150688E-03	4.677383E-05
5.771144E+03	1.156616E-03	4.701267E-05
5.781095E+03	1.162701E-03	4.725768E-05
5.791045E+03	1.168799E-03	4.750303E-05
5.800995E+03	1.174974E-03	4.775133E-05
5.810945E+03	1.181223E-03	4.800238E-05
5.820896E+03	1.187468E-03	4.825310E-05
5.830846E+03	1.193776E-03	4.850611E-05
5.840796E+03	1.200140E-03	4.876117E-05
5.850746E+03	1.206555E-03	4.901804E-05
5.860697E+03	1.213014E-03	4.927645E-05
5.870647E+03	1.219438E-03	4.953316E-05
5.880597E+03	1.225893E-03	4.979084E-05
5.890547E+03	1.232370E-03	5.004915E-05
5.900498E+03	1.238864E-03	5.030780E-05
5.910448E+03	1.245291E-03	5.056344E-05
5.920398E+03	1.251792E-03	5.082174E-05
5.930348E+03	1.258209E-03	5.107633E-05
5.940299E+03	1.264609E-03	5.132987E-05
5.950249E+03	1.270906E-03	5.157886E-05
5.960199E+03	1.277243E-03	5.182912E-05
5.970149E+03	1.283458E-03	5.207406E-05
5.980100E+03	1.289618E-03	5.231639E-05
5.990050E+03	1.295713E-03	5.255568E-05
6.000000E+03	1.301733E-03	5.279154E-05
6.009950E+03	1.307669E-03	5.302357E-05
6.019900E+03	1.313431E-03	5.324815E-05
6.029851E+03	1.319168E-03	5.347128E-05
6.039801E+03	1.324711E-03	5.368611E-05
6.049751E+03	1.330129E-03	5.389545E-05
6.059701E+03	1.335413E-03	5.409890E-05
6.069652E+03	1.340474E-03	5.429284E-05
6.079602E+03	1.345461E-03	5.448336E-05
6.089552E+03	1.350206E-03	5.466361E-05
6.099502E+03	1.354780E-03	5.483648E-05
6.109453E+03	1.359176E-03	5.500166E-05
6.119403E+03	1.363386E-03	5.515885E-05
6.129353E+03	1.367404E-03	5.530776E-05
6.139303E+03	1.371222E-03	5.544813E-05
6.149254E+03	1.374753E-03	5.557642E-05
6.159204E+03	1.378158E-03	5.569910E-05
6.169154E+03	1.381266E-03	5.580931E-05
6.179104E+03	1.384156E-03	5.591026E-05
6.189055E+03	1.386828E-03	5.600187E-05
6.199005E+03	1.389280E-03	5.608410E-05
6.208955E+03	1.391511E-03	5.615694E-05
6.218905E+03	1.393521E-03	5.622040E-05
6.228856E+03	1.395228E-03	5.627113E-05
6.238806E+03	1.396804E-03	5.631609E-05
6.248756E+03	1.398081E-03	5.634852E-05
6.258706E+03	1.399148E-03	5.637204E-05
6.268657E+03	1.400011E-03	5.638684E-05
6.278607E+03	1.400760E-03	5.639656E-05
6.288557E+03	1.401230E-03	5.639461E-05
6.298507E+03	1.401427E-03	5.638124E-05
6.308458E+03	1.401531E-03	5.636360E-05
6.318408E+03	1.401462E-03	5.633860E-05
6.328358E+03	1.401229E-03	5.630654E-05
6.338308E+03	1.400754E-03	5.626432E-05
6.348259E+03	1.400217E-03	5.621918E-05
6.358209E+03	1.399455E-03	5.616457E-05
6.368159E+03	1.398563E-03	5.610430E-05
6.378109E+03	1.397634E-03	5.604213E-05
6.388060E+03	1.396507E-03	5.597159E-05
6.398010E+03	1.395275E-03	5.589642E-05
6.407960E+03	1.393945E-03	5.581692E-05
6.417910E+03	1.392525E-03	5.573342E-05
6.427861E+03	1.391022E-03	5.564623E-05
6.437811E+03	1.389444E-03	5.555560E-05
6.447761E+03	1.387711E-03	5.545837E-05
6.457711E+03	1.386000E-03	5.536161E-05
6.467662E+03	1.384230E-03	5.526210E-05
6.477612E+03	1.382322E-03	5.515669E-05
6.487562E+03	1.380452E-03	5.505236E-05
6.497512E+03	1.378453E-03	5.494253E-05
6.507463E+03	1.376502E-03	5.483415E-05
6.517413E+03	1.374433E-03	5.472065E-05
6.527363E+03	1.372418E-03	5.460893E-05
6.537313E+03	1.370294E-03	5.449244E-05
6.547264E+03	1.368149E-03	5.437469E-05
6.557214E+03	1.366072E-03	5.425921E-05
6.567164E+03	1.363897E-03	5.413944E-05
6.577114E+03	1.361713E-03	5.401888E-05
6.587065E+03	1.359523E-03	5.389767E-05
6.597015E+03	1.357331E-03	5.377598E-05
6.606965E+03	1.355141E-03	5.365391E-05
6.616915E+03	1.352956E-03	5.353163E-05
6.626866E+03	1.350780E-03	5.340927E-05
6.636816E+03	1.348616E-03	5.328694E-05
6.646766E+03	1.346467E-03	5.316479E-05
6.656716E+03	1.344337E-03	5.304297E-05
6.666667E+03	1.342229E-03	5.292157E-05
6.676617E+03	1.340146E-03	5.280072E-05
6.686567E+03	1.338093E-03	5.268058E-05
6.696517E+03	1.336070E-03	5.256124E-05
6.706468E+03	1.334000E-03	5.243956E-05
6.716418E+03	1.332051E-03	5.232221E-05
6.726368E+03	1.330143E-03	5.220604E-05
6.736318E+03	1.328196E-03	5.208789E-05
6.746269E+03	1.326380E-03	5.197441E-05
6.756219E+03	1.324615E-03	5.186247E-05
6.766169E+03	1.322820E-03	5.174889E-05
6.776119E+03	1.321164E-03	5.164033E-05
6.786070E+03	1.319568E-03	5.153362E-05
6.796020E+03	1.317952E-03	5.142565E-05
6.805970E+03	1.316484E-03	5.132301E-05
6.815920E+03	1.315002E-03	5.121934E-05
6.825871E+03	1.313673E-03	5.112117E-05
6.835821E+03	1.312336E-03	5.102220E-05
6.845771E+03	1.311160E-03	5.092898E-05
6.855721E+03	1.309980E-03	5.083515E-05
6.865672E+03	1.308966E-03	5.074725E-05
6.875622E+03	1.307955E-03	5.065897E-05
6.885572E+03	1.307033E-03	5.057362E-05
6.895522E+03	1.306285E-03	5.049450E-05
6.905473E+03	1.305548E-03	5.041530E-05
6.915423E+03	1.304908E-03	5.033932E-05
6.925373E+03	1.304450E-03	5.026985E-05
6.935323E+03	1.304012E-03	5.020060E-05
6.945274E+03	1.303680E-03	5.013488E-05
6.955224E+03	1.303455E-03	5.007274E-05
6.965174E+03	1.303340E-03	5.001427E-05
6.975124E+03	1.303338E-03	4.995960E-05
6.985075E+03	1.303452E-03	4.990877E-05
6.995025E+03	1.303767E-03	4.986506E-05
7.004975E+03	1.304119E-03	4.982221E-05
7.014925E+03	1.304595E-03	4.978347E-05
7.024876E+03	1.305112E-03	4.974572E-05
7.034826E+03	1.305840E-03	4.971540E-05
7.044776E+03	1.306698E-03	4.968940E-05
7.054726E+03	1.307689E-03	4.966781E-05
7.064677E+03	1.308813E-03	4.965066E-05
7.074627E+03	1.310074E-03	4.963802E-05
7.084577E+03	1.311388E-03	4.962676E-05
7.094527E+03	1.312926E-03	4.962330E-05
7.104478E+03	1.314606E-03	4.962453E-05
7.114428E+03	1.316344E-03	4.962724E-05
7.124378E+03	1.318312E-03	4.963791E-05
7.134328E+03	1.320340E-03	4.965014E-05
7.144279E+03	1.322514E-03	4.966715E-05
7.154229E+03	1.324922E-03	4.969216E-05
7.164179E+03	1.327392E-03	4.971878E-05
7.174129E+03	1.330010E-03	4.975018E-05
7.184080E+03	1.332777E-03	4.978639E-05
7.194030E+03	1.335779E-03	4.983057E-05
7.203980E+03	1.338843E-03	4.987627E-05
7.213930E+03	1.342054E-03	4.992665E-05
7.223881E+03	1.345412E-03	4.998167E-05
7.233831E+03	1.348828E-03	5.003800E-05
7.243781E+03	1.352474E-03	5.010205E-05
7.253731E+03	1.356261E-03	5.017046E-05
7.263682E+03	1.360099E-03	5.023987E-05
7.273632E+03	1.364160E-03	5.031667E-05
7.283582E+03	1.368264E-03	5.039416E-05
7.293532E+03	1.372584E-03	5.047874E-05
7.303483E+03	1.376938E-03	5.056365E-05
7.313433E+03	1.381410E-03	5.065196E-05
7.323383E+03	1.385993E-03	5.074345E-05
7.333333E+03	1.390680E-03	5.083785E-05
7.343284E+03	1.395467E-03	5.093494E-05
7.353234E+03	1.400344E-03	5.103440E-05
7.363184E+03	1.405303E-03	5.113592E-05
7.373134E+03	1.410243E-03	5.123581E-05
7.383085E+03	1.415340E-03	5.134049E-05
7.393035E+03	1.420398E-03	5.144282E-05
7.402985E+03	1.425594E-03	5.154921E-05
7.412935E+03	1.430730E-03	5.165248E-05
7.422886E+03	1.435887E-03	5.175565E-05
7.432836E+03	1.441057E-03	5.185833E-05
7.442786E+03	1.446226E-03	5.196011E-05
7.452736E+03	1.451385E-03	5.206062E-05
7.462687E+03	1.456426E-03	5.215604E-05
7.472637E+03	1.461531E-03	5.225289E-05
7.482587E+03	1.466498E-03	5.234399E-05
7.492537E+03	1.471416E-03	5.243247E-05
7.502488E+03	1.476277E-03	5.251818E-05
7.512438E+03	1.481081E-03	5.260103E-05
7.522388E+03	1.485825E-03	5.268101E-05
7.532338E+03	1.490513E-03	5.275828E-05
7.542289E+03	1.495152E-03	5.283308E-05
7.552239E+03	1.499648E-03	5.290216E-05
7.562189E+03	1.504213E-03	5.297297E-05
7.572139E+03	1.508654E-03	5.303880E-05
7.582090E+03	1.513086E-03	5.310361E-05
7.592040E+03	1.517518E-03	5.316784E-05
7.601990E+03	1.521964E-03	5.323192E-05
7.611940E+03	1.526334E-03	5.329271E-05
7.621891E+03	1.530845E-03	5.335786E-05
7.631841E+03	1.535305E-03	5.342057E-05
7.641791E+03	1.539827E-03	5.348490E-05
7.651741E+03	1.544426E-03	5.355130E-05
7.661692E+03	1.549114E-03	5.362015E-05
7.671642E+03	1.553901E-03	5.369189E-05
7.681592E+03	1.558694E-03	5.376322E-05
7.691542E+03	1.563715E-03	5.384184E-05
7.701493E+03	1.568762E-03	5.392078E-05
7.711443E+03	1.573952E-03	5.400402E-05
7.721393E+03	1.579294E-03	5.409190E-05
