#wls	flux	fluxerr
1.592040E+03	9.860898E-05	7.171845E-06
1.631841E+03	9.956932E-05	7.221628E-06
1.671642E+03	1.005688E-04	7.273301E-06
1.711443E+03	1.016090E-04	7.326929E-06
1.751244E+03	1.027274E-04	7.385149E-06
1.791045E+03	1.038909E-04	7.445502E-06
1.830846E+03	1.051014E-04	7.508065E-06
1.870647E+03	1.063977E-04	7.575528E-06
1.910448E+03	1.077460E-04	7.645402E-06
1.950249E+03	1.091487E-04	7.717778E-06
1.990050E+03	1.106460E-04	7.795404E-06
2.029851E+03	1.122036E-04	7.875754E-06
2.069652E+03	1.138436E-04	7.960279E-06
2.109453E+03	1.155694E-04	8.049111E-06
2.149254E+03	1.173651E-04	8.141024E-06
2.189055E+03	1.192741E-04	8.238893E-06
2.228856E+03	1.212606E-04	8.340112E-06
2.268657E+03	1.233695E-04	8.447623E-06
2.308458E+03	1.255646E-04	8.558786E-06
2.348259E+03	1.278711E-04	8.675167E-06
2.388060E+03	1.302944E-04	8.796943E-06
2.427861E+03	1.328399E-04	8.924301E-06
2.467662E+03	1.355356E-04	9.058907E-06
2.507463E+03	1.383439E-04	9.198024E-06
2.547264E+03	1.412930E-04	9.343322E-06
2.587065E+03	1.444130E-04	9.496534E-06
2.626866E+03	1.476654E-04	9.654855E-06
2.666667E+03	1.511047E-04	9.821577E-06
2.706468E+03	1.546913E-04	9.993833E-06
2.746269E+03	1.584826E-04	1.017501E-05
2.786070E+03	1.624636E-04	1.036380E-05
2.825871E+03	1.666439E-04	1.056046E-05
2.865672E+03	1.710603E-04	1.076691E-05
2.905473E+03	1.756712E-04	1.098013E-05
2.945274E+03	1.805412E-04	1.120372E-05
2.985075E+03	1.856560E-04	1.143632E-05
2.995025E+03	1.869770E-04	1.149607E-05
3.004975E+03	1.883127E-04	1.155631E-05
3.014925E+03	1.896630E-04	1.161701E-05
3.024876E+03	1.910282E-04	1.167821E-05
3.034826E+03	1.924084E-04	1.173988E-05
3.044776E+03	1.938330E-04	1.180382E-05
3.054726E+03	1.952442E-04	1.186649E-05
3.064677E+03	1.966709E-04	1.192965E-05
3.074627E+03	1.981430E-04	1.199511E-05
3.084577E+03	1.996315E-04	1.206108E-05
3.094527E+03	2.011066E-04	1.212576E-05
3.104478E+03	2.026281E-04	1.219276E-05
3.114428E+03	2.041665E-04	1.226029E-05
3.124378E+03	2.057221E-04	1.232834E-05
3.134328E+03	2.072950E-04	1.239693E-05
3.144279E+03	2.088855E-04	1.246605E-05
3.154229E+03	2.104937E-04	1.253571E-05
3.164179E+03	2.121199E-04	1.260590E-05
3.174129E+03	2.137642E-04	1.267664E-05
3.184080E+03	2.154269E-04	1.274793E-05
3.194030E+03	2.171398E-04	1.282164E-05
3.203980E+03	2.188401E-04	1.289403E-05
3.213930E+03	2.205915E-04	1.296886E-05
3.223881E+03	2.223302E-04	1.304237E-05
3.233831E+03	2.241209E-04	1.311834E-05
3.243781E+03	2.259316E-04	1.319489E-05
3.253731E+03	2.277298E-04	1.327010E-05
3.263682E+03	2.295812E-04	1.334780E-05
3.273632E+03	2.314533E-04	1.342608E-05
3.283582E+03	2.333464E-04	1.350494E-05
3.293532E+03	2.352608E-04	1.358440E-05
3.303483E+03	2.371966E-04	1.366444E-05
3.313433E+03	2.391883E-04	1.374704E-05
3.323383E+03	2.411680E-04	1.382827E-05
3.333333E+03	2.431699E-04	1.391010E-05
3.343284E+03	2.452289E-04	1.399451E-05
3.353234E+03	2.472761E-04	1.407754E-05
3.363184E+03	2.493814E-04	1.416317E-05
3.373134E+03	2.514748E-04	1.424740E-05
3.383085E+03	2.536272E-04	1.433425E-05
3.393035E+03	2.557678E-04	1.441969E-05
3.402985E+03	2.579685E-04	1.450777E-05
3.412935E+03	2.601936E-04	1.459647E-05
3.422886E+03	2.624437E-04	1.468578E-05
3.432836E+03	2.647187E-04	1.477571E-05
3.442786E+03	2.670190E-04	1.486626E-05
3.452736E+03	2.693450E-04	1.495743E-05
3.462687E+03	2.716966E-04	1.504922E-05
3.472637E+03	2.740743E-04	1.514162E-05
3.482587E+03	2.764783E-04	1.523463E-05
3.492537E+03	2.789471E-04	1.533038E-05
3.502488E+03	2.814046E-04	1.542462E-05
3.512438E+03	2.838890E-04	1.551948E-05
3.522388E+03	2.864398E-04	1.561709E-05
3.532338E+03	2.889791E-04	1.571317E-05
3.542289E+03	2.915858E-04	1.581201E-05
3.552239E+03	2.942210E-04	1.591147E-05
3.562189E+03	2.968443E-04	1.600936E-05
3.572139E+03	2.995367E-04	1.611003E-05
3.582090E+03	3.022582E-04	1.621130E-05
3.592040E+03	3.049677E-04	1.631098E-05
3.601990E+03	3.077476E-04	1.641344E-05
3.611940E+03	3.105572E-04	1.651649E-05
3.621891E+03	3.133967E-04	1.662013E-05
3.631841E+03	3.162663E-04	1.672435E-05
3.641791E+03	3.191661E-04	1.682913E-05
3.651741E+03	3.220963E-04	1.693449E-05
3.661692E+03	3.250571E-04	1.704040E-05
3.671642E+03	3.280486E-04	1.714685E-05
3.681592E+03	3.311150E-04	1.725614E-05
3.691542E+03	3.341688E-04	1.736368E-05
3.701493E+03	3.372537E-04	1.747173E-05
3.711443E+03	3.403699E-04	1.758030E-05
3.721393E+03	3.435627E-04	1.769170E-05
3.731343E+03	3.467420E-04	1.780126E-05
3.741294E+03	3.499529E-04	1.791130E-05
3.751244E+03	3.532417E-04	1.802416E-05
3.761194E+03	3.565161E-04	1.813511E-05
3.771144E+03	3.598692E-04	1.824889E-05
3.781095E+03	3.632075E-04	1.836071E-05
3.791045E+03	3.666251E-04	1.847533E-05
3.800995E+03	3.700271E-04	1.858795E-05
3.810945E+03	3.735091E-04	1.870336E-05
3.820896E+03	3.769748E-04	1.881671E-05
3.830846E+03	3.805210E-04	1.893283E-05
3.840796E+03	3.840501E-04	1.904684E-05
3.850746E+03	3.876603E-04	1.916359E-05
3.860697E+03	3.913024E-04	1.928063E-05
3.870647E+03	3.949258E-04	1.939547E-05
3.880597E+03	3.986310E-04	1.951301E-05
3.890547E+03	4.023675E-04	1.963078E-05
3.900498E+03	4.060837E-04	1.974623E-05
3.910448E+03	4.098820E-04	1.986435E-05
3.920398E+03	4.137108E-04	1.998261E-05
3.930348E+03	4.175173E-04	2.009845E-05
3.940299E+03	4.214061E-04	2.021689E-05
3.950249E+03	4.253245E-04	2.033539E-05
3.960199E+03	4.292720E-04	2.045391E-05
3.970149E+03	4.331939E-04	2.056984E-05
3.980100E+03	4.371979E-04	2.068829E-05
3.990050E+03	4.412296E-04	2.080667E-05
4.000000E+03	4.452886E-04	2.092493E-05
4.009950E+03	4.493178E-04	2.104040E-05
4.019900E+03	4.534288E-04	2.115832E-05
4.029851E+03	4.575650E-04	2.127600E-05
4.039801E+03	4.616683E-04	2.139075E-05
4.049751E+03	4.658521E-04	2.150783E-05
4.059701E+03	4.700587E-04	2.162456E-05
4.069652E+03	4.742294E-04	2.173823E-05
4.079602E+03	4.784786E-04	2.185410E-05
4.089552E+03	4.827481E-04	2.196949E-05
4.099502E+03	4.869772E-04	2.208164E-05
4.109453E+03	4.912839E-04	2.219591E-05
4.119403E+03	4.955469E-04	2.230682E-05
4.129353E+03	4.998860E-04	2.241977E-05
4.139303E+03	5.041783E-04	2.252923E-05
4.149254E+03	5.085445E-04	2.264063E-05
4.159204E+03	5.128613E-04	2.274846E-05
4.169154E+03	5.172502E-04	2.285813E-05
4.179104E+03	5.215859E-04	2.296410E-05
4.189055E+03	5.259914E-04	2.307180E-05
4.199005E+03	5.303403E-04	2.317570E-05
4.208955E+03	5.346926E-04	2.327844E-05
4.218905E+03	5.390477E-04	2.338001E-05
4.228856E+03	5.434686E-04	2.348316E-05
4.238806E+03	5.478238E-04	2.358220E-05
4.248756E+03	5.521765E-04	2.367989E-05
4.258706E+03	5.565246E-04	2.377616E-05
4.268657E+03	5.608667E-04	2.387098E-05
4.278607E+03	5.652007E-04	2.396428E-05
4.288557E+03	5.695249E-04	2.405600E-05
4.298507E+03	5.738367E-04	2.414607E-05
4.308458E+03	5.781352E-04	2.423448E-05
4.318408E+03	5.824176E-04	2.432114E-05
4.328358E+03	5.866825E-04	2.440601E-05
4.338308E+03	5.908583E-04	2.448617E-05
4.348259E+03	5.950815E-04	2.456732E-05
4.358209E+03	5.992803E-04	2.464650E-05
4.368159E+03	6.033834E-04	2.472084E-05
4.378109E+03	6.075290E-04	2.479604E-05
4.388060E+03	6.115735E-04	2.486628E-05
4.398010E+03	6.155857E-04	2.493442E-05
4.407960E+03	6.196350E-04	2.500329E-05
4.417910E+03	6.235773E-04	2.506713E-05
4.427861E+03	6.274815E-04	2.512877E-05
4.437811E+03	6.313459E-04	2.518820E-05
4.447761E+03	6.351694E-04	2.524541E-05
4.457711E+03	6.389494E-04	2.530036E-05
4.467662E+03	6.426855E-04	2.535309E-05
4.477612E+03	6.463754E-04	2.540355E-05
4.487562E+03	6.500185E-04	2.545178E-05
4.497512E+03	6.535392E-04	2.549489E-05
4.507463E+03	6.570846E-04	2.553869E-05
4.517413E+03	6.605805E-04	2.558032E-05
4.527363E+03	6.639504E-04	2.561691E-05
4.537313E+03	6.672686E-04	2.565138E-05
4.547264E+03	6.706113E-04	2.568673E-05
4.557214E+03	6.738272E-04	2.571721E-05
4.567164E+03	6.769911E-04	2.574576E-05
4.577114E+03	6.801046E-04	2.577250E-05
4.587065E+03	6.831680E-04	2.579750E-05
4.597015E+03	6.861825E-04	2.582087E-05
4.606965E+03	6.891499E-04	2.584275E-05
4.616915E+03	6.920719E-04	2.586325E-05
4.626866E+03	6.948723E-04	2.587960E-05
4.636816E+03	6.977095E-04	2.589777E-05
4.646766E+03	7.004305E-04	2.591213E-05
4.656716E+03	7.031945E-04	2.592865E-05
4.666667E+03	7.058490E-04	2.594173E-05
4.676617E+03	7.084760E-04	2.595449E-05
4.686567E+03	7.110802E-04	2.596713E-05
4.696517E+03	7.136669E-04	2.597992E-05
4.706468E+03	7.162410E-04	2.599308E-05
4.716418E+03	7.188092E-04	2.600691E-05
4.726368E+03	7.212974E-04	2.601878E-05
4.736318E+03	7.238715E-04	2.603474E-05
4.746269E+03	7.264592E-04	2.605221E-05
4.756219E+03	7.289878E-04	2.606865E-05
4.766169E+03	7.315443E-04	2.608722E-05
4.776119E+03	7.341360E-04	2.610822E-05
4.786070E+03	7.368522E-04	2.613487E-05
4.796020E+03	7.395390E-04	2.616174E-05
4.805970E+03	7.422041E-04	2.618915E-05
4.815920E+03	7.450158E-04	2.622310E-05
4.825871E+03	7.479002E-04	2.626100E-05
4.835821E+03	7.508621E-04	2.630306E-05
4.845771E+03	7.538248E-04	2.634663E-05
4.855721E+03	7.568732E-04	2.639474E-05
4.865672E+03	7.600929E-04	2.645039E-05
4.875622E+03	7.633215E-04	2.650796E-05
4.885572E+03	7.666433E-04	2.657041E-05
4.895522E+03	7.700569E-04	2.663775E-05
4.905473E+03	7.735625E-04	2.671001E-05
4.915423E+03	7.771576E-04	2.678714E-05
4.925373E+03	7.807555E-04	2.686620E-05
4.935323E+03	7.845206E-04	2.695287E-05
4.945274E+03	7.882810E-04	2.704121E-05
4.955224E+03	7.921171E-04	2.713398E-05
4.965174E+03	7.961100E-04	2.723395E-05
4.975124E+03	8.000848E-04	2.733511E-05
4.985075E+03	8.041229E-04	2.744024E-05
4.995025E+03	8.082203E-04	2.754918E-05
5.004975E+03	8.122860E-04	2.765884E-05
5.014925E+03	8.164898E-04	2.777497E-05
5.024876E+03	8.207414E-04	2.789449E-05
5.034826E+03	8.249493E-04	2.801427E-05
5.044776E+03	8.291974E-04	2.813717E-05
5.054726E+03	8.335714E-04	2.826606E-05
5.064677E+03	8.378915E-04	2.839485E-05
5.074627E+03	8.422423E-04	2.852638E-05
5.084577E+03	8.466225E-04	2.866059E-05
5.094527E+03	8.510287E-04	2.879736E-05
5.104478E+03	8.553682E-04	2.893354E-05
5.114428E+03	8.598200E-04	2.907515E-05
5.124378E+03	8.642005E-04	2.921598E-05
5.134328E+03	8.686902E-04	2.936211E-05
5.144279E+03	8.731044E-04	2.950727E-05
5.154229E+03	8.775331E-04	2.965450E-05
5.164179E+03	8.819750E-04	2.980372E-05
5.174129E+03	8.864284E-04	2.995487E-05
5.184080E+03	8.908929E-04	3.010789E-05
5.194030E+03	8.952727E-04	3.025954E-05
5.203980E+03	8.997560E-04	3.041615E-05
5.213930E+03	9.042469E-04	3.057447E-05
5.223881E+03	9.086507E-04	3.073125E-05
5.233831E+03	9.130604E-04	3.088962E-05
5.243781E+03	9.174757E-04	3.104955E-05
5.253731E+03	9.218970E-04	3.121102E-05
5.263682E+03	9.263230E-04	3.137397E-05
5.273632E+03	9.307538E-04	3.153837E-05
5.283582E+03	9.351892E-04	3.170419E-05
5.293532E+03	9.396289E-04	3.187139E-05
5.303483E+03	9.439743E-04	3.203660E-05
5.313433E+03	9.484220E-04	3.220646E-05
5.323383E+03	9.527739E-04	3.237422E-05
5.333333E+03	9.571296E-04	3.254323E-05
5.343284E+03	9.614878E-04	3.271342E-05
5.353234E+03	9.658490E-04	3.288478E-05
5.363184E+03	9.702137E-04	3.305729E-05
5.373134E+03	9.745808E-04	3.323090E-05
5.383085E+03	9.789514E-04	3.340560E-05
5.393035E+03	9.832218E-04	3.357784E-05
5.402985E+03	9.875974E-04	3.375458E-05
5.412935E+03	9.918725E-04	3.392878E-05
5.422886E+03	9.961497E-04	3.410392E-05
5.432836E+03	1.000428E-03	3.427992E-05
5.442786E+03	1.004812E-03	3.446036E-05
5.452736E+03	1.009094E-03	3.463807E-05
5.462687E+03	1.013272E-03	3.481295E-05
5.472637E+03	1.017556E-03	3.499216E-05
5.482587E+03	1.021840E-03	3.517210E-05
5.492537E+03	1.026124E-03	3.535270E-05
5.502488E+03	1.030302E-03	3.553026E-05
5.512438E+03	1.034479E-03	3.570837E-05
5.522388E+03	1.038761E-03	3.589072E-05
5.532338E+03	1.042934E-03	3.606983E-05
5.542289E+03	1.047105E-03	3.624936E-05
5.552239E+03	1.051272E-03	3.642930E-05
5.562189E+03	1.055435E-03	3.660954E-05
5.572139E+03	1.059595E-03	3.679009E-05
5.582090E+03	1.063748E-03	3.697085E-05
5.592040E+03	1.067786E-03	3.714798E-05
5.601990E+03	1.071927E-03	3.732905E-05
5.611940E+03	1.075950E-03	3.750632E-05
5.621891E+03	1.080075E-03	3.768748E-05
5.631841E+03	1.084078E-03	3.786469E-05
5.641791E+03	1.088072E-03	3.804179E-05
5.651741E+03	1.092165E-03	3.822263E-05
5.661692E+03	1.096134E-03	3.839933E-05
5.671642E+03	1.100089E-03	3.857572E-05
5.681592E+03	1.103914E-03	3.874774E-05
5.691542E+03	1.107838E-03	3.892334E-05
5.701493E+03	1.111744E-03	3.909846E-05
5.711443E+03	1.115632E-03	3.927304E-05
5.721393E+03	1.119385E-03	3.944295E-05
5.731343E+03	1.123233E-03	3.961625E-05
5.741294E+03	1.126943E-03	3.978473E-05
5.751244E+03	1.130630E-03	3.995240E-05
5.761194E+03	1.134408E-03	4.012331E-05
5.771144E+03	1.138045E-03	4.028918E-05
5.781095E+03	1.141654E-03	4.045405E-05
5.791045E+03	1.145235E-03	4.061786E-05
5.800995E+03	1.148787E-03	4.078057E-05
5.810945E+03	1.152308E-03	4.094210E-05
5.820896E+03	1.155679E-03	4.109817E-05
5.830846E+03	1.159136E-03	4.125719E-05
5.840796E+03	1.162559E-03	4.141486E-05
5.850746E+03	1.165828E-03	4.156690E-05
5.860697E+03	1.169181E-03	4.172176E-05
5.870647E+03	1.172376E-03	4.187084E-05
5.880597E+03	1.175534E-03	4.201835E-05
5.890547E+03	1.178774E-03	4.216862E-05
5.900498E+03	1.181853E-03	4.231293E-05
5.910448E+03	1.184892E-03	4.245559E-05
5.920398E+03	1.187890E-03	4.259654E-05
5.930348E+03	1.190846E-03	4.273574E-05
5.940299E+03	1.193760E-03	4.287318E-05
5.950249E+03	1.196632E-03	4.300884E-05
5.960199E+03	1.199460E-03	4.314268E-05
5.970149E+03	1.202122E-03	4.327026E-05
5.980100E+03	1.204863E-03	4.340041E-05
5.990050E+03	1.207560E-03	4.352871E-05
6.000000E+03	1.210089E-03	4.365064E-05
6.009950E+03	1.212698E-03	4.377518E-05
6.019900E+03	1.215138E-03	4.389333E-05
6.029851E+03	1.217659E-03	4.401410E-05
6.039801E+03	1.220011E-03	4.412847E-05
6.049751E+03	1.222319E-03	4.424094E-05
6.059701E+03	1.224584E-03	4.435155E-05
6.069652E+03	1.226806E-03	4.446030E-05
6.079602E+03	1.229111E-03	4.457179E-05
6.089552E+03	1.231250E-03	4.467693E-05
6.099502E+03	1.233346E-03	4.478026E-05
6.109453E+03	1.235277E-03	4.487726E-05
6.119403E+03	1.237295E-03	4.497715E-05
6.129353E+03	1.239275E-03	4.507537E-05
6.139303E+03	1.241218E-03	4.517199E-05
6.149254E+03	1.243126E-03	4.526702E-05
6.159204E+03	1.244871E-03	4.535587E-05
6.169154E+03	1.246709E-03	4.544786E-05
6.179104E+03	1.248386E-03	4.553371E-05
6.189055E+03	1.250158E-03	4.562275E-05
6.199005E+03	1.251765E-03	4.570557E-05
6.208955E+03	1.253465E-03	4.579154E-05
6.218905E+03	1.254996E-03	4.587109E-05
6.228856E+03	1.256485E-03	4.594886E-05
6.238806E+03	1.258058E-03	4.602945E-05
6.248756E+03	1.259453E-03	4.610323E-05
6.258706E+03	1.260796E-03	4.617481E-05
6.268657E+03	1.262084E-03	4.624407E-05
6.278607E+03	1.263314E-03	4.631085E-05
6.288557E+03	1.264482E-03	4.637506E-05
6.298507E+03	1.265586E-03	4.643653E-05
6.308458E+03	1.266624E-03	4.649518E-05
6.318408E+03	1.267591E-03	4.655089E-05
6.328358E+03	1.268486E-03	4.660354E-05
6.338308E+03	1.269307E-03	4.665302E-05
6.348259E+03	1.270049E-03	4.669923E-05
6.358209E+03	1.270581E-03	4.673727E-05
6.368159E+03	1.271163E-03	4.677669E-05
6.378109E+03	1.271662E-03	4.681260E-05
6.388060E+03	1.271945E-03	4.684008E-05
6.398010E+03	1.272273E-03	4.686876E-05
6.407960E+03	1.272515E-03	4.689380E-05
6.417910E+03	1.272537E-03	4.691025E-05
6.427861E+03	1.272606E-03	4.692787E-05
6.437811E+03	1.272455E-03	4.693692E-05
6.447761E+03	1.272219E-03	4.694229E-05
6.457711E+03	1.272029E-03	4.694888E-05
6.467662E+03	1.271625E-03	4.694698E-05
6.477612E+03	1.271138E-03	4.694150E-05
6.487562E+03	1.270703E-03	4.693739E-05
6.497512E+03	1.270059E-03	4.692497E-05
6.507463E+03	1.269337E-03	4.690916E-05
6.517413E+03	1.268540E-03	4.689002E-05
6.527363E+03	1.267671E-03	4.686763E-05
6.537313E+03	1.266863E-03	4.684696E-05
6.547264E+03	1.265855E-03	4.681831E-05
6.557214E+03	1.264782E-03	4.678667E-05
6.567164E+03	1.263644E-03	4.675210E-05
6.577114E+03	1.262445E-03	4.671469E-05
6.587065E+03	1.261187E-03	4.667454E-05
6.597015E+03	1.259741E-03	4.662688E-05
6.606965E+03	1.258372E-03	4.658149E-05
6.616915E+03	1.256951E-03	4.653364E-05
6.626866E+03	1.255481E-03	4.648340E-05
6.636816E+03	1.253963E-03	4.643088E-05
6.646766E+03	1.252270E-03	4.637132E-05
6.656716E+03	1.250666E-03	4.631452E-05
6.666667E+03	1.249021E-03	4.625569E-05
6.676617E+03	1.247339E-03	4.619495E-05
6.686567E+03	1.245491E-03	4.612760E-05
6.696517E+03	1.243741E-03	4.606334E-05
6.706468E+03	1.241830E-03	4.599266E-05
6.716418E+03	1.240021E-03	4.592527E-05
6.726368E+03	1.238056E-03	4.585164E-05
6.736318E+03	1.236197E-03	4.578149E-05
6.746269E+03	1.234187E-03	4.570530E-05
6.756219E+03	1.232288E-03	4.563278E-05
6.766169E+03	1.230242E-03	4.555441E-05
6.776119E+03	1.228310E-03	4.547986E-05
6.786070E+03	1.226237E-03	4.539970E-05
6.796020E+03	1.224152E-03	4.531876E-05
6.805970E+03	1.222188E-03	4.524192E-05
6.815920E+03	1.220088E-03	4.515972E-05
6.825871E+03	1.217984E-03	4.507704E-05
6.835821E+03	1.215878E-03	4.499395E-05
6.845771E+03	1.213770E-03	4.491056E-05
6.855721E+03	1.211791E-03	4.483165E-05
6.865672E+03	1.209687E-03	4.474789E-05
6.875622E+03	1.207588E-03	4.466406E-05
6.885572E+03	1.205496E-03	4.458026E-05
6.895522E+03	1.203411E-03	4.449658E-05
6.905473E+03	1.201337E-03	4.441311E-05
6.915423E+03	1.199274E-03	4.432990E-05
6.925373E+03	1.197224E-03	4.424706E-05
6.935323E+03	1.195189E-03	4.416469E-05
6.945274E+03	1.193170E-03	4.408282E-05
6.955224E+03	1.191045E-03	4.399695E-05
6.965174E+03	1.189064E-03	4.391640E-05
6.975124E+03	1.187105E-03	4.383663E-05
6.985075E+03	1.185168E-03	4.375771E-05
6.995025E+03	1.183255E-03	4.367973E-05
7.004975E+03	1.181244E-03	4.359816E-05
7.014925E+03	1.179385E-03	4.352232E-05
7.024876E+03	1.177554E-03	4.344765E-05
7.034826E+03	1.175630E-03	4.336966E-05
7.044776E+03	1.173862E-03	4.329763E-05
7.054726E+03	1.172004E-03	4.322247E-05
7.064677E+03	1.170306E-03	4.315341E-05
7.074627E+03	1.168644E-03	4.308598E-05
7.084577E+03	1.166898E-03	4.301569E-05
7.094527E+03	1.165192E-03	4.294722E-05
7.104478E+03	1.163652E-03	4.288521E-05
7.114428E+03	1.162033E-03	4.282065E-05
7.124378E+03	1.160583E-03	4.276276E-05
7.134328E+03	1.159059E-03	4.270253E-05
7.144279E+03	1.157584E-03	4.264462E-05
7.154229E+03	1.156163E-03	4.258916E-05
7.164179E+03	1.154919E-03	4.254079E-05
7.174129E+03	1.153610E-03	4.249057E-05
7.184080E+03	1.152361E-03	4.244315E-05
7.194030E+03	1.151175E-03	4.239867E-05
7.203980E+03	1.150054E-03	4.235727E-05
7.213930E+03	1.149002E-03	4.231911E-05
7.223881E+03	1.148022E-03	4.228433E-05
7.233831E+03	1.147117E-03	4.225309E-05
7.243781E+03	1.146292E-03	4.222558E-05
7.253731E+03	1.145549E-03	4.220196E-05
7.263682E+03	1.144893E-03	4.218242E-05
7.273632E+03	1.144329E-03	4.216717E-05
7.283582E+03	1.143860E-03	4.215641E-05
7.293532E+03	1.143493E-03	4.215037E-05
7.303483E+03	1.143109E-03	4.214476E-05
7.313433E+03	1.142960E-03	4.214887E-05
7.323383E+03	1.142928E-03	4.215841E-05
7.333333E+03	1.142896E-03	4.216916E-05
7.343284E+03	1.143119E-03	4.219046E-05
7.353234E+03	1.143354E-03	4.221352E-05
7.363184E+03	1.143858E-03	4.224773E-05
7.373134E+03	1.144390E-03	4.228436E-05
7.383085E+03	1.145205E-03	4.233283E-05
7.393035E+03	1.146064E-03	4.238439E-05
7.402985E+03	1.147223E-03	4.244852E-05
7.412935E+03	1.148443E-03	4.251645E-05
7.422886E+03	1.149856E-03	4.259310E-05
7.432836E+03	1.151595E-03	4.268349E-05
7.442786E+03	1.153418E-03	4.277874E-05
7.452736E+03	1.155459E-03	4.288380E-05
7.462687E+03	1.157722E-03	4.299897E-05
7.472637E+03	1.160214E-03	4.312452E-05
7.482587E+03	1.162937E-03	4.326064E-05
7.492537E+03	1.165894E-03	4.340749E-05
7.502488E+03	1.169087E-03	4.356521E-05
7.512438E+03	1.172515E-03	4.373390E-05
7.522388E+03	1.176182E-03	4.391374E-05
7.532338E+03	1.180089E-03	4.410487E-05
7.542289E+03	1.184238E-03	4.430750E-05
7.552239E+03	1.188502E-03	4.451689E-05
7.562189E+03	1.193138E-03	4.474276E-05
7.572139E+03	1.198016E-03	4.498029E-05
7.582090E+03	1.203000E-03	4.522439E-05
7.592040E+03	1.208348E-03	4.548478E-05
7.601990E+03	1.213791E-03	4.575139E-05
7.611940E+03	1.219588E-03	4.603398E-05
7.621891E+03	1.225466E-03	4.632233E-05
7.631841E+03	1.231687E-03	4.662632E-05
7.641791E+03	1.237974E-03	4.693555E-05
7.651741E+03	1.244456E-03	4.725490E-05
7.661692E+03	1.251264E-03	4.758937E-05
7.671642E+03	1.258117E-03	4.792837E-05
7.681592E+03	1.265145E-03	4.827685E-05
7.691542E+03	1.272344E-03	4.863464E-05
7.701493E+03	1.279707E-03	4.900154E-05
7.711443E+03	1.287228E-03	4.937740E-05
7.721393E+03	1.294904E-03	4.976206E-05
