#wls	flux	fluxerr
1.592040E+03	9.158318E-05	9.157024E-06
1.631841E+03	9.254619E-05	9.229514E-06
1.671642E+03	9.354855E-05	9.304783E-06
1.711443E+03	9.460849E-05	9.384574E-06
1.751244E+03	9.571165E-05	9.467382E-06
1.791045E+03	9.687680E-05	9.554987E-06
1.830846E+03	9.808937E-05	9.645862E-06
1.870647E+03	9.936885E-05	9.741832E-06
1.910448E+03	1.007005E-04	9.841354E-06
1.950249E+03	1.020868E-04	9.944571E-06
1.990050E+03	1.035480E-04	1.005336E-05
2.029851E+03	1.050874E-04	1.016790E-05
2.069652E+03	1.066901E-04	1.028663E-05
2.109453E+03	1.083777E-04	1.041151E-05
2.149254E+03	1.101351E-04	1.054093E-05
2.189055E+03	1.119848E-04	1.067691E-05
2.228856E+03	1.139310E-04	1.081968E-05
2.268657E+03	1.159586E-04	1.096762E-05
2.308458E+03	1.180713E-04	1.112093E-05
2.348259E+03	1.203139E-04	1.128362E-05
2.388060E+03	1.226515E-04	1.145219E-05
2.427861E+03	1.250885E-04	1.162685E-05
2.467662E+03	1.276724E-04	1.181178E-05
2.507463E+03	1.303672E-04	1.200338E-05
2.547264E+03	1.331783E-04	1.220189E-05
2.587065E+03	1.361338E-04	1.240961E-05
2.626866E+03	1.392409E-04	1.262690E-05
2.666667E+03	1.425075E-04	1.285410E-05
2.706468E+03	1.459177E-04	1.308946E-05
2.746269E+03	1.495271E-04	1.333760E-05
2.786070E+03	1.532720E-04	1.359241E-05
2.825871E+03	1.572345E-04	1.386078E-05
2.865672E+03	1.613743E-04	1.413871E-05
2.905473E+03	1.657268E-04	1.442881E-05
2.945274E+03	1.702756E-04	1.472915E-05
2.985075E+03	1.750857E-04	1.504483E-05
2.995025E+03	1.763081E-04	1.512427E-05
3.004975E+03	1.775721E-04	1.520680E-05
3.014925E+03	1.788220E-04	1.528762E-05
3.024876E+03	1.801143E-04	1.537156E-05
3.034826E+03	1.813926E-04	1.545379E-05
3.044776E+03	1.827138E-04	1.553916E-05
3.054726E+03	1.840498E-04	1.562527E-05
3.064677E+03	1.853718E-04	1.570964E-05
3.074627E+03	1.867378E-04	1.579721E-05
3.084577E+03	1.881192E-04	1.588552E-05
3.094527E+03	1.895160E-04	1.597458E-05
3.104478E+03	1.909286E-04	1.606440E-05
3.114428E+03	1.923570E-04	1.615497E-05
3.124378E+03	1.938014E-04	1.624631E-05
3.134328E+03	1.952621E-04	1.633841E-05
3.144279E+03	1.967392E-04	1.643129E-05
3.154229E+03	1.982329E-04	1.652494E-05
3.164179E+03	1.997434E-04	1.661937E-05
3.174129E+03	2.012708E-04	1.671459E-05
3.184080E+03	2.028153E-04	1.681059E-05
3.194030E+03	2.044088E-04	1.690999E-05
3.203980E+03	2.059885E-04	1.700760E-05
3.213930E+03	2.075858E-04	1.710600E-05
3.223881E+03	2.092333E-04	1.720786E-05
3.233831E+03	2.108669E-04	1.730788E-05
3.243781E+03	2.125188E-04	1.740872E-05
3.253731E+03	2.142220E-04	1.751305E-05
3.263682E+03	2.159113E-04	1.761554E-05
3.273632E+03	2.176527E-04	1.772154E-05
3.283582E+03	2.194136E-04	1.782840E-05
3.293532E+03	2.211606E-04	1.793337E-05
3.303483E+03	2.229610E-04	1.804191E-05
3.313433E+03	2.247814E-04	1.815131E-05
3.323383E+03	2.265878E-04	1.825880E-05
3.333333E+03	2.284489E-04	1.836990E-05
3.343284E+03	2.303307E-04	1.848186E-05
3.353234E+03	2.322334E-04	1.859468E-05
3.363184E+03	2.341573E-04	1.870837E-05
3.373134E+03	2.360669E-04	1.882009E-05
3.383085E+03	2.380334E-04	1.893550E-05
3.393035E+03	2.400215E-04	1.905177E-05
3.402985E+03	2.420316E-04	1.916890E-05
3.412935E+03	2.440638E-04	1.928691E-05
3.422886E+03	2.461183E-04	1.940578E-05
3.432836E+03	2.482323E-04	1.952843E-05
3.442786E+03	2.503323E-04	1.964904E-05
3.452736E+03	2.524551E-04	1.977051E-05
3.462687E+03	2.546010E-04	1.989285E-05
3.472637E+03	2.567701E-04	2.001604E-05
3.482587E+03	2.589627E-04	2.014009E-05
3.492537E+03	2.612176E-04	2.026800E-05
3.502488E+03	2.634578E-04	2.039377E-05
3.512438E+03	2.657221E-04	2.052038E-05
3.522388E+03	2.680499E-04	2.065088E-05
3.532338E+03	2.703628E-04	2.077919E-05
3.542289E+03	2.727002E-04	2.090833E-05
3.552239E+03	2.751026E-04	2.104138E-05
3.562189E+03	2.774896E-04	2.117218E-05
3.572139E+03	2.799425E-04	2.130691E-05
3.582090E+03	2.823798E-04	2.143935E-05
3.592040E+03	2.848839E-04	2.157573E-05
3.601990E+03	2.873720E-04	2.170976E-05
3.611940E+03	2.899278E-04	2.184776E-05
3.621891E+03	2.924672E-04	2.198336E-05
3.631841E+03	2.950751E-04	2.212293E-05
3.641791E+03	2.976662E-04	2.226005E-05
3.651741E+03	3.003267E-04	2.240115E-05
3.661692E+03	3.030138E-04	2.254301E-05
3.671642E+03	3.056834E-04	2.268233E-05
3.681592E+03	3.084236E-04	2.282564E-05
3.691542E+03	3.111906E-04	2.296967E-05
3.701493E+03	3.139392E-04	2.311107E-05
3.711443E+03	3.167596E-04	2.325645E-05
3.721393E+03	3.196069E-04	2.340251E-05
3.731343E+03	3.224812E-04	2.354920E-05
3.741294E+03	3.253358E-04	2.369314E-05
3.751244E+03	3.282636E-04	2.384105E-05
3.761194E+03	3.312183E-04	2.398955E-05
3.771144E+03	3.341999E-04	2.413861E-05
3.781095E+03	3.371604E-04	2.428476E-05
3.791045E+03	3.401952E-04	2.443486E-05
3.800995E+03	3.432567E-04	2.458546E-05
3.810945E+03	3.463448E-04	2.473652E-05
3.820896E+03	3.494593E-04	2.488801E-05
3.830846E+03	3.526002E-04	2.503992E-05
3.840796E+03	3.557171E-04	2.518866E-05
3.850746E+03	3.589098E-04	2.534128E-05
3.860697E+03	3.621284E-04	2.549422E-05
3.870647E+03	3.653725E-04	2.564745E-05
3.880597E+03	3.686421E-04	2.580092E-05
3.890547E+03	3.719368E-04	2.595462E-05
3.900498E+03	3.752038E-04	2.610484E-05
3.910448E+03	3.785475E-04	2.625884E-05
3.920398E+03	3.819155E-04	2.641294E-05
3.930348E+03	3.853073E-04	2.656710E-05
3.940299E+03	3.887227E-04	2.672129E-05
3.950249E+03	3.921612E-04	2.687545E-05
3.960199E+03	3.956224E-04	2.702955E-05
3.970149E+03	3.990506E-04	2.717977E-05
3.980100E+03	4.025554E-04	2.733358E-05
3.990050E+03	4.060815E-04	2.748719E-05
4.000000E+03	4.096284E-04	2.764054E-05
4.009950E+03	4.131955E-04	2.779359E-05
4.019900E+03	4.167249E-04	2.794244E-05
4.029851E+03	4.203302E-04	2.809471E-05
4.039801E+03	4.239539E-04	2.824652E-05
4.049751E+03	4.275953E-04	2.839781E-05
4.059701E+03	4.311946E-04	2.854461E-05
4.069652E+03	4.348689E-04	2.869469E-05
4.079602E+03	4.385586E-04	2.884406E-05
4.089552E+03	4.422629E-04	2.899269E-05
4.099502E+03	4.459205E-04	2.913655E-05
4.109453E+03	4.496515E-04	2.928349E-05
4.119403E+03	4.533945E-04	2.942949E-05
4.129353E+03	4.570869E-04	2.957049E-05
4.139303E+03	4.608511E-04	2.971442E-05
4.149254E+03	4.645618E-04	2.985320E-05
4.159204E+03	4.683433E-04	2.999481E-05
4.169154E+03	4.721322E-04	3.013517E-05
4.179104E+03	4.758633E-04	3.027014E-05
4.189055E+03	4.796633E-04	3.040779E-05
4.199005E+03	4.834025E-04	3.053988E-05
4.208955E+03	4.872094E-04	3.067456E-05
4.218905E+03	4.909523E-04	3.080352E-05
4.228856E+03	4.946952E-04	3.093082E-05
4.238806E+03	4.985036E-04	3.106053E-05
4.248756E+03	5.022434E-04	3.118431E-05
4.258706E+03	5.060475E-04	3.131043E-05
4.268657E+03	5.097793E-04	3.143043E-05
4.278607E+03	5.135053E-04	3.154846E-05
4.288557E+03	5.172245E-04	3.166447E-05
4.298507E+03	5.210041E-04	3.178257E-05
4.308458E+03	5.247062E-04	3.189435E-05
4.318408E+03	5.283970E-04	3.200389E-05
4.328358E+03	5.320766E-04	3.211121E-05
4.338308E+03	5.357430E-04	3.221621E-05
4.348259E+03	5.393956E-04	3.231888E-05
4.358209E+03	5.430331E-04	3.241915E-05
4.368159E+03	5.466544E-04	3.251699E-05
4.378109E+03	5.502591E-04	3.261240E-05
4.388060E+03	5.538453E-04	3.270529E-05
4.398010E+03	5.574123E-04	3.279566E-05
4.407960E+03	5.609599E-04	3.288350E-05
4.417910E+03	5.644126E-04	3.296446E-05
4.427861E+03	5.679178E-04	3.304717E-05
4.437811E+03	5.714006E-04	3.312729E-05
4.447761E+03	5.748610E-04	3.320484E-05
4.457711E+03	5.782229E-04	3.327548E-05
4.467662E+03	5.816362E-04	3.334789E-05
4.477612E+03	5.849497E-04	3.341341E-05
4.487562E+03	5.883147E-04	3.348074E-05
4.497512E+03	5.915795E-04	3.354126E-05
4.507463E+03	5.948964E-04	3.360367E-05
4.517413E+03	5.981117E-04	3.365929E-05
4.527363E+03	6.013031E-04	3.371259E-05
4.537313E+03	6.045486E-04	3.376794E-05
4.547264E+03	6.076928E-04	3.381669E-05
4.557214E+03	6.108147E-04	3.386332E-05
4.567164E+03	6.139144E-04	3.390785E-05
4.577114E+03	6.169935E-04	3.395041E-05
4.587065E+03	6.200524E-04	3.399108E-05
4.597015E+03	6.230928E-04	3.402997E-05
4.606965E+03	6.261161E-04	3.406721E-05
4.616915E+03	6.291229E-04	3.410286E-05
4.626866E+03	6.321158E-04	3.413709E-05
4.636816E+03	6.350146E-04	3.416563E-05
4.646766E+03	6.379832E-04	3.419735E-05
4.656716E+03	6.409424E-04	3.422801E-05
4.666667E+03	6.438118E-04	3.425336E-05
4.676617E+03	6.467574E-04	3.428229E-05
4.686567E+03	6.496158E-04	3.430615E-05
4.696517E+03	6.525545E-04	3.433383E-05
4.706468E+03	6.554090E-04	3.435670E-05
4.716418E+03	6.582638E-04	3.437924E-05
4.726368E+03	6.612029E-04	3.440587E-05
4.736318E+03	6.640610E-04	3.442799E-05
4.746269E+03	6.669221E-04	3.445002E-05
4.756219E+03	6.697861E-04	3.447199E-05
4.766169E+03	6.726530E-04	3.449393E-05
4.776119E+03	6.755220E-04	3.451582E-05
4.786070E+03	6.783921E-04	3.453766E-05
4.796020E+03	6.812672E-04	3.455967E-05
4.805970E+03	6.841553E-04	3.458230E-05
4.815920E+03	6.869773E-04	3.460157E-05
4.825871E+03	6.899128E-04	3.462658E-05
4.835821E+03	6.928821E-04	3.465332E-05
4.845771E+03	6.958042E-04	3.467776E-05
4.855721E+03	6.988575E-04	3.470884E-05
4.865672E+03	7.018721E-04	3.473809E-05
4.875622E+03	7.049379E-04	3.476998E-05
4.885572E+03	7.081474E-04	3.480901E-05
4.895522E+03	7.113249E-04	3.484651E-05
4.905473E+03	7.145613E-04	3.488693E-05
4.915423E+03	7.178573E-04	3.493025E-05
4.925373E+03	7.212145E-04	3.497653E-05
4.935323E+03	7.246319E-04	3.502567E-05
4.945274E+03	7.281101E-04	3.507766E-05
4.955224E+03	7.316479E-04	3.513239E-05
4.965174E+03	7.352445E-04	3.518978E-05
4.975124E+03	7.388992E-04	3.524975E-05
4.985075E+03	7.425181E-04	3.530779E-05
4.995025E+03	7.462837E-04	3.537254E-05
5.004975E+03	7.501015E-04	3.543945E-05
5.014925E+03	7.538771E-04	3.550403E-05
5.024876E+03	7.577009E-04	3.557053E-05
5.034826E+03	7.616644E-04	3.564319E-05
5.044776E+03	7.655779E-04	3.571305E-05
5.054726E+03	7.695327E-04	3.578439E-05
5.064677E+03	7.736222E-04	3.586147E-05
5.074627E+03	7.776528E-04	3.593529E-05
5.084577E+03	7.817184E-04	3.601015E-05
5.094527E+03	7.858160E-04	3.608589E-05
5.104478E+03	7.899432E-04	3.616235E-05
5.114428E+03	7.940009E-04	3.623498E-05
5.124378E+03	7.981814E-04	3.631253E-05
5.134328E+03	8.023852E-04	3.639040E-05
5.144279E+03	8.066107E-04	3.646850E-05
5.154229E+03	8.107556E-04	3.654217E-05
5.164179E+03	8.150179E-04	3.662032E-05
5.174129E+03	8.191952E-04	3.669380E-05
5.184080E+03	8.234860E-04	3.677150E-05
5.194030E+03	8.276880E-04	3.684432E-05
5.203980E+03	8.318997E-04	3.691666E-05
5.213930E+03	8.361196E-04	3.698840E-05
5.223881E+03	8.403459E-04	3.705945E-05
5.233831E+03	8.446802E-04	3.713424E-05
5.243781E+03	8.489157E-04	3.720363E-05
5.253731E+03	8.531533E-04	3.727204E-05
5.263682E+03	8.572878E-04	3.733486E-05
5.273632E+03	8.615260E-04	3.740110E-05
5.283582E+03	8.657629E-04	3.746613E-05
5.293532E+03	8.699970E-04	3.752986E-05
5.303483E+03	8.741215E-04	3.758767E-05
5.313433E+03	8.783473E-04	3.764863E-05
5.323383E+03	8.824602E-04	3.770350E-05
5.333333E+03	8.866729E-04	3.776138E-05
5.343284E+03	8.907704E-04	3.781306E-05
5.353234E+03	8.949668E-04	3.786763E-05
5.363184E+03	8.990447E-04	3.791585E-05
5.373134E+03	9.031118E-04	3.796227E-05
5.383085E+03	9.071663E-04	3.800681E-05
5.393035E+03	9.112086E-04	3.804945E-05
5.402985E+03	9.152370E-04	3.809011E-05
5.412935E+03	9.192509E-04	3.812874E-05
5.422886E+03	9.232499E-04	3.816532E-05
5.432836E+03	9.272326E-04	3.819977E-05
5.442786E+03	9.311985E-04	3.823206E-05
5.452736E+03	9.351472E-04	3.826215E-05
5.462687E+03	9.389638E-04	3.828536E-05
5.472637E+03	9.428743E-04	3.831090E-05
5.482587E+03	9.466504E-04	3.832947E-05
5.492537E+03	9.505204E-04	3.835032E-05
5.502488E+03	9.542532E-04	3.836412E-05
5.512438E+03	9.580791E-04	3.838012E-05
5.522388E+03	9.617660E-04	3.838901E-05
5.532338E+03	9.654282E-04	3.839539E-05
5.542289E+03	9.691821E-04	3.840387E-05
5.552239E+03	9.727937E-04	3.840515E-05
5.562189E+03	9.763780E-04	3.840383E-05
5.572139E+03	9.799348E-04	3.839989E-05
5.582090E+03	9.834634E-04	3.839332E-05
5.592040E+03	9.869632E-04	3.838409E-05
5.601990E+03	9.904329E-04	3.837218E-05
5.611940E+03	9.937520E-04	3.835294E-05
5.621891E+03	9.971597E-04	3.833563E-05
5.631841E+03	1.000535E-03	3.831559E-05
5.641791E+03	1.003877E-03	3.829282E-05
5.651741E+03	1.007065E-03	3.826272E-05
5.661692E+03	1.010340E-03	3.823449E-05
5.671642E+03	1.013458E-03	3.819892E-05
5.681592E+03	1.016662E-03	3.816522E-05
5.691542E+03	1.019707E-03	3.812420E-05
5.701493E+03	1.022715E-03	3.808050E-05
5.711443E+03	1.025809E-03	3.803869E-05
5.721393E+03	1.028741E-03	3.798962E-05
5.731343E+03	1.031635E-03	3.793790E-05
5.741294E+03	1.034490E-03	3.788358E-05
5.751244E+03	1.037305E-03	3.782667E-05
5.761194E+03	1.040082E-03	3.776723E-05
5.771144E+03	1.042818E-03	3.770529E-05
5.781095E+03	1.045515E-03	3.764090E-05
5.791045E+03	1.048171E-03	3.757412E-05
5.800995E+03	1.050788E-03	3.750499E-05
5.810945E+03	1.053366E-03	3.743360E-05
5.820896E+03	1.055904E-03	3.736001E-05
5.830846E+03	1.058276E-03	3.727984E-05
5.840796E+03	1.060736E-03	3.720211E-05
5.850746E+03	1.063159E-03	3.712242E-05
5.860697E+03	1.065416E-03	3.703645E-05
5.870647E+03	1.067765E-03	3.695318E-05
5.880597E+03	1.069949E-03	3.686385E-05
5.890547E+03	1.072228E-03	3.677745E-05
5.900498E+03	1.074344E-03	3.668522E-05
5.910448E+03	1.076427E-03	3.659175E-05
5.920398E+03	1.078609E-03	3.650157E-05
5.930348E+03	1.080632E-03	3.640601E-05
5.940299E+03	1.082627E-03	3.630963E-05
5.950249E+03	1.084596E-03	3.621258E-05
5.960199E+03	1.086672E-03	3.611938E-05
5.970149E+03	1.088594E-03	3.602147E-05
5.980100E+03	1.090497E-03	3.592338E-05
5.990050E+03	1.092381E-03	3.582529E-05
6.000000E+03	1.094249E-03	3.572739E-05
6.009950E+03	1.096102E-03	3.562982E-05
6.019900E+03	1.097813E-03	3.552854E-05
6.029851E+03	1.099645E-03	3.543224E-05
6.039801E+03	1.101470E-03	3.533687E-05
6.049751E+03	1.103289E-03	3.524257E-05
6.059701E+03	1.105105E-03	3.514954E-05
6.069652E+03	1.106785E-03	3.505374E-05
6.079602E+03	1.108598E-03	3.496381E-05
6.089552E+03	1.110412E-03	3.487566E-05
6.099502E+03	1.112093E-03	3.478527E-05
6.109453E+03	1.113911E-03	3.470120E-05
6.119403E+03	1.115597E-03	3.461524E-05
6.129353E+03	1.117420E-03	3.453585E-05
6.139303E+03	1.119110E-03	3.445485E-05
6.149254E+03	1.120936E-03	3.438065E-05
6.159204E+03	1.122626E-03	3.430506E-05
6.169154E+03	1.124314E-03	3.423236E-05
6.179104E+03	1.126130E-03	3.416670E-05
6.189055E+03	1.127804E-03	3.409994E-05
6.199005E+03	1.129467E-03	3.403631E-05
6.208955E+03	1.131119E-03	3.397599E-05
6.218905E+03	1.132898E-03	3.392320E-05
6.228856E+03	1.134530E-03	3.386996E-05
6.238806E+03	1.136150E-03	3.382046E-05
6.248756E+03	1.137756E-03	3.377480E-05
6.258706E+03	1.139345E-03	3.373312E-05
6.268657E+03	1.140914E-03	3.369545E-05
6.278607E+03	1.142460E-03	3.366191E-05
6.288557E+03	1.143979E-03	3.363253E-05
6.298507E+03	1.145467E-03	3.360735E-05
6.308458E+03	1.146918E-03	3.358642E-05
6.318408E+03	1.148327E-03	3.356973E-05
6.328358E+03	1.149688E-03	3.355731E-05
6.338308E+03	1.150858E-03	3.354512E-05
6.348259E+03	1.152107E-03	3.354122E-05
6.358209E+03	1.153291E-03	3.354155E-05
6.368159E+03	1.154403E-03	3.354611E-05
6.378109E+03	1.155298E-03	3.355081E-05
6.388060E+03	1.156247E-03	3.356369E-05
6.398010E+03	1.157106E-03	3.358070E-05
6.407960E+03	1.157730E-03	3.359773E-05
6.417910E+03	1.158393E-03	3.362293E-05
6.427861E+03	1.158818E-03	3.364825E-05
6.437811E+03	1.159289E-03	3.368182E-05
6.447761E+03	1.159527E-03	3.371544E-05
6.457711E+03	1.159816E-03	3.375719E-05
6.467662E+03	1.159878E-03	3.379886E-05
6.477612E+03	1.159997E-03	3.384856E-05
6.487562E+03	1.159896E-03	3.389806E-05
6.497512E+03	1.159858E-03	3.395546E-05
6.507463E+03	1.159606E-03	3.401249E-05
6.517413E+03	1.159283E-03	3.407320E-05
6.527363E+03	1.159034E-03	3.414159E-05
6.537313E+03	1.158581E-03	3.420938E-05
6.547264E+03	1.158067E-03	3.428056E-05
6.557214E+03	1.157495E-03	3.435506E-05
6.567164E+03	1.156868E-03	3.443280E-05
6.577114E+03	1.156331E-03	3.451784E-05
6.587065E+03	1.155605E-03	3.460177E-05
6.597015E+03	1.154833E-03	3.468863E-05
6.606965E+03	1.154018E-03	3.477832E-05
6.616915E+03	1.153163E-03	3.487076E-05
6.626866E+03	1.152271E-03	3.496584E-05
6.636816E+03	1.151344E-03	3.506346E-05
6.646766E+03	1.150385E-03	3.516352E-05
6.656716E+03	1.149395E-03	3.526591E-05
6.666667E+03	1.148378E-03	3.537055E-05
6.676617E+03	1.147336E-03	3.547731E-05
6.686567E+03	1.146272E-03	3.558615E-05
6.696517E+03	1.145186E-03	3.569692E-05
6.706468E+03	1.144083E-03	3.580956E-05
6.716418E+03	1.142963E-03	3.592396E-05
6.726368E+03	1.141690E-03	3.603566E-05
6.736318E+03	1.140543E-03	3.615332E-05
6.746269E+03	1.139387E-03	3.627251E-05
6.756219E+03	1.138223E-03	3.639313E-05
6.766169E+03	1.137052E-03	3.651511E-05
6.776119E+03	1.135739E-03	3.663392E-05
6.786070E+03	1.134562E-03	3.675839E-05
6.796020E+03	1.133385E-03	3.688402E-05
6.805970E+03	1.132071E-03	3.700624E-05
6.815920E+03	1.130899E-03	3.713400E-05
6.825871E+03	1.129731E-03	3.726274E-05
6.835821E+03	1.128434E-03	3.738787E-05
6.845771E+03	1.127282E-03	3.751842E-05
6.855721E+03	1.126005E-03	3.764525E-05
6.865672E+03	1.124876E-03	3.777746E-05
6.875622E+03	1.123625E-03	3.790584E-05
6.885572E+03	1.122528E-03	3.803960E-05
6.895522E+03	1.121312E-03	3.816943E-05
6.905473E+03	1.120253E-03	3.830464E-05
6.915423E+03	1.119079E-03	3.843585E-05
6.925373E+03	1.117929E-03	3.856775E-05
6.935323E+03	1.116941E-03	3.870504E-05
6.945274E+03	1.115844E-03	3.883827E-05
6.955224E+03	1.114914E-03	3.897697E-05
6.965174E+03	1.113879E-03	3.911161E-05
6.975124E+03	1.112877E-03	3.924693E-05
6.985075E+03	1.111912E-03	3.938302E-05
6.995025E+03	1.111121E-03	3.952469E-05
7.004975E+03	1.110234E-03	3.966234E-05
7.014925E+03	1.109390E-03	3.980080E-05
7.024876E+03	1.108590E-03	3.994016E-05
7.034826E+03	1.107837E-03	4.008042E-05
7.044776E+03	1.107134E-03	4.022169E-05
7.054726E+03	1.106618E-03	4.036893E-05
7.064677E+03	1.106021E-03	4.051235E-05
7.074627E+03	1.105480E-03	4.065693E-05
7.084577E+03	1.104999E-03	4.080278E-05
7.094527E+03	1.104580E-03	4.094996E-05
7.104478E+03	1.104226E-03	4.109856E-05
7.114428E+03	1.103939E-03	4.124868E-05
7.124378E+03	1.103721E-03	4.140039E-05
7.134328E+03	1.103578E-03	4.155384E-05
7.144279E+03	1.103510E-03	4.170909E-05
7.154229E+03	1.103385E-03	4.186111E-05
7.164179E+03	1.103477E-03	4.202032E-05
7.174129E+03	1.103655E-03	4.218169E-05
7.184080E+03	1.103920E-03	4.234534E-05
7.194030E+03	1.104275E-03	4.251140E-05
7.203980E+03	1.104588E-03	4.267473E-05
7.213930E+03	1.105135E-03	4.284598E-05
7.223881E+03	1.105780E-03	4.302003E-05
7.233831E+03	1.106528E-03	4.319699E-05
7.243781E+03	1.107245E-03	4.337167E-05
7.253731E+03	1.108206E-03	4.355487E-05
7.263682E+03	1.109278E-03	4.374138E-05
7.273632E+03	1.110326E-03	4.392591E-05
7.283582E+03	1.111627E-03	4.411938E-05
7.293532E+03	1.112907E-03	4.431104E-05
7.303483E+03	1.114444E-03	4.451193E-05
7.313433E+03	1.115964E-03	4.471114E-05
7.323383E+03	1.117743E-03	4.491978E-05
7.333333E+03	1.119508E-03	4.512687E-05
7.343284E+03	1.121534E-03	4.534357E-05
7.353234E+03	1.123544E-03	4.555869E-05
7.363184E+03	1.125677E-03	4.577789E-05
7.373134E+03	1.128071E-03	4.600684E-05
7.383085E+03	1.130446E-03	4.623411E-05
7.393035E+03	1.132939E-03	4.646535E-05
7.402985E+03	1.135688E-03	4.670628E-05
7.412935E+03	1.138408E-03	4.694521E-05
7.422886E+03	1.141237E-03	4.718779E-05
7.432836E+03	1.144169E-03	4.743388E-05
7.442786E+03	1.147201E-03	4.768330E-05
7.452736E+03	1.150470E-03	4.794185E-05
7.462687E+03	1.153685E-03	4.819741E-05
7.472637E+03	1.156983E-03	4.845571E-05
7.482587E+03	1.160358E-03	4.871652E-05
7.492537E+03	1.163806E-03	4.897968E-05
7.502488E+03	1.167321E-03	4.924493E-05
7.512438E+03	1.170898E-03	4.951216E-05
7.522388E+03	1.174537E-03	4.978132E-05
7.532338E+03	1.178243E-03	5.005269E-05
7.542289E+03	1.182022E-03	5.032650E-05
7.552239E+03	1.185729E-03	5.059662E-05
7.562189E+03	1.189668E-03	5.087602E-05
7.572139E+03	1.193697E-03	5.115865E-05
7.582090E+03	1.197822E-03	5.144475E-05
7.592040E+03	1.202047E-03	5.173458E-05
7.601990E+03	1.206227E-03	5.202186E-05
7.611940E+03	1.210670E-03	5.231988E-05
7.621891E+03	1.215230E-03	5.262236E-05
7.631841E+03	1.219757E-03	5.292279E-05
7.641791E+03	1.224561E-03	5.323469E-05
7.651741E+03	1.229492E-03	5.355156E-05
7.661692E+03	1.234397E-03	5.386672E-05
7.671642E+03	1.239589E-03	5.419387E-05
7.681592E+03	1.244756E-03	5.451940E-05
7.691542E+03	1.250214E-03	5.485714E-05
7.701493E+03	1.255648E-03	5.519328E-05
7.711443E+03	1.261214E-03	5.553477E-05
7.721393E+03	1.267073E-03	5.588860E-05
