#wls	flux	fluxerr
1.592040E+03	9.411175E-05	3.941550E-06
1.631841E+03	9.533396E-05	3.980817E-06
1.671642E+03	9.660415E-05	4.021475E-06
1.711443E+03	9.794180E-05	4.064297E-06
1.751244E+03	9.931452E-05	4.107897E-06
1.791045E+03	1.007596E-04	4.153779E-06
1.830846E+03	1.022622E-04	4.201278E-06
1.870647E+03	1.038247E-04	4.250451E-06
1.910448E+03	1.054497E-04	4.301357E-06
1.950249E+03	1.071402E-04	4.354059E-06
1.990050E+03	1.089182E-04	4.409399E-06
2.029851E+03	1.107487E-04	4.465893E-06
2.069652E+03	1.126736E-04	4.525176E-06
2.109453E+03	1.146772E-04	4.586540E-06
2.149254E+03	1.167630E-04	4.650058E-06
2.189055E+03	1.189556E-04	4.716635E-06
2.228856E+03	1.212177E-04	4.784699E-06
2.268657E+03	1.235954E-04	4.855999E-06
2.308458E+03	1.260723E-04	4.929786E-06
2.348259E+03	1.286529E-04	5.006147E-06
2.388060E+03	1.313421E-04	5.085166E-06
2.427861E+03	1.341682E-04	5.167831E-06
2.467662E+03	1.371142E-04	5.253361E-06
2.507463E+03	1.401855E-04	5.341844E-06
2.547264E+03	1.433879E-04	5.433373E-06
2.587065E+03	1.467277E-04	5.528048E-06
2.626866E+03	1.502372E-04	5.626932E-06
2.666667E+03	1.538715E-04	5.728194E-06
2.706468E+03	1.576904E-04	5.833892E-06
2.746269E+03	1.616750E-04	5.943153E-06
2.786070E+03	1.658332E-04	6.056074E-06
2.825871E+03	1.702020E-04	6.173810E-06
2.865672E+03	1.747320E-04	6.294354E-06
2.905473E+03	1.794912E-04	6.419944E-06
2.945274E+03	1.844591E-04	6.549606E-06
2.985075E+03	1.896452E-04	6.683432E-06
2.995025E+03	1.909933E-04	6.718122E-06
3.004975E+03	1.923232E-04	6.751932E-06
3.014925E+03	1.937004E-04	6.787161E-06
3.024876E+03	1.950592E-04	6.821503E-06
3.034826E+03	1.964663E-04	6.857277E-06
3.044776E+03	1.978886E-04	6.893331E-06
3.054726E+03	1.992923E-04	6.928481E-06
3.064677E+03	2.007453E-04	6.965085E-06
3.074627E+03	2.021797E-04	7.000778E-06
3.084577E+03	2.036642E-04	7.037939E-06
3.094527E+03	2.051648E-04	7.075384E-06
3.104478E+03	2.066464E-04	7.111901E-06
3.114428E+03	2.081794E-04	7.149908E-06
3.124378E+03	2.097290E-04	7.188201E-06
3.134328E+03	2.112595E-04	7.225553E-06
3.144279E+03	2.128425E-04	7.264414E-06
3.154229E+03	2.144426E-04	7.303562E-06
3.164179E+03	2.160235E-04	7.341758E-06
3.174129E+03	2.176581E-04	7.381481E-06
3.184080E+03	2.193104E-04	7.421494E-06
3.194030E+03	2.209805E-04	7.461799E-06
3.203980E+03	2.226310E-04	7.501129E-06
3.213930E+03	2.243371E-04	7.542014E-06
3.223881E+03	2.260616E-04	7.583193E-06
3.233831E+03	2.278046E-04	7.624666E-06
3.243781E+03	2.295276E-04	7.665140E-06
3.253731E+03	2.313080E-04	7.707196E-06
3.263682E+03	2.331076E-04	7.749549E-06
3.273632E+03	2.349264E-04	7.792199E-06
3.283582E+03	2.367249E-04	7.833824E-06
3.293532E+03	2.385826E-04	7.877057E-06
3.303483E+03	2.404602E-04	7.920589E-06
3.313433E+03	2.423579E-04	7.964419E-06
3.323383E+03	2.442759E-04	8.008546E-06
3.333333E+03	2.462143E-04	8.052970E-06
3.343284E+03	2.481316E-04	8.096329E-06
3.353234E+03	2.501112E-04	8.141340E-06
3.363184E+03	2.521118E-04	8.186649E-06
3.373134E+03	2.541337E-04	8.232254E-06
3.383085E+03	2.561770E-04	8.278156E-06
3.393035E+03	2.582419E-04	8.324355E-06
3.402985E+03	2.603287E-04	8.370849E-06
3.412935E+03	2.623935E-04	8.416228E-06
3.422886E+03	2.645241E-04	8.463307E-06
3.432836E+03	2.666772E-04	8.510679E-06
3.442786E+03	2.688529E-04	8.558346E-06
3.452736E+03	2.710514E-04	8.606305E-06
3.462687E+03	2.732730E-04	8.654557E-06
3.472637E+03	2.755177E-04	8.703100E-06
3.482587E+03	2.777859E-04	8.751935E-06
3.492537E+03	2.800777E-04	8.801059E-06
3.502488E+03	2.823932E-04	8.850471E-06
3.512438E+03	2.846854E-04	8.898688E-06
3.522388E+03	2.870489E-04	8.948668E-06
3.532338E+03	2.894369E-04	8.998933E-06
3.542289E+03	2.918494E-04	9.049481E-06
3.552239E+03	2.942867E-04	9.100312E-06
3.562189E+03	2.967491E-04	9.151425E-06
3.572139E+03	2.992367E-04	9.202816E-06
3.582090E+03	3.017497E-04	9.254486E-06
3.592040E+03	3.042884E-04	9.306431E-06
3.601990E+03	3.068529E-04	9.358651E-06
3.611940E+03	3.094434E-04	9.411144E-06
3.621891E+03	3.120601E-04	9.463908E-06
3.631841E+03	3.147033E-04	9.516942E-06
3.641791E+03	3.173731E-04	9.570241E-06
3.651741E+03	3.200698E-04	9.623807E-06
3.661692E+03	3.227934E-04	9.677634E-06
3.671642E+03	3.255443E-04	9.731722E-06
3.681592E+03	3.283227E-04	9.786069E-06
3.691542E+03	3.311286E-04	9.840672E-06
3.701493E+03	3.339624E-04	9.895527E-06
3.711443E+03	3.368241E-04	9.950634E-06
3.721393E+03	3.397141E-04	1.000599E-05
3.731343E+03	3.426325E-04	1.006159E-05
3.741294E+03	3.455796E-04	1.011744E-05
3.751244E+03	3.484980E-04	1.017185E-05
3.761194E+03	3.515023E-04	1.022817E-05
3.771144E+03	3.545359E-04	1.028472E-05
3.781095E+03	3.575989E-04	1.034151E-05
3.791045E+03	3.606914E-04	1.039853E-05
3.800995E+03	3.638137E-04	1.045577E-05
3.810945E+03	3.669660E-04	1.051324E-05
3.820896E+03	3.701484E-04	1.057093E-05
3.830846E+03	3.733613E-04	1.062884E-05
3.840796E+03	3.766046E-04	1.068697E-05
3.850746E+03	3.798788E-04	1.074531E-05
3.860697E+03	3.831838E-04	1.080386E-05
3.870647E+03	3.865200E-04	1.086262E-05
3.880597E+03	3.898876E-04	1.092159E-05
3.890547E+03	3.932867E-04	1.098076E-05
3.900498E+03	3.967175E-04	1.104013E-05
3.910448E+03	4.001803E-04	1.109970E-05
3.920398E+03	4.036751E-04	1.115946E-05
3.930348E+03	4.072024E-04	1.121941E-05
3.940299E+03	4.107621E-04	1.127956E-05
3.950249E+03	4.143545E-04	1.133989E-05
3.960199E+03	4.179799E-04	1.140041E-05
3.970149E+03	4.216384E-04	1.146111E-05
3.980100E+03	4.252610E-04	1.152011E-05
3.990050E+03	4.289857E-04	1.158116E-05
4.000000E+03	4.327442E-04	1.164239E-05
4.009950E+03	4.365367E-04	1.170379E-05
4.019900E+03	4.403634E-04	1.176537E-05
4.029851E+03	4.442244E-04	1.182712E-05
4.039801E+03	4.481199E-04	1.188903E-05
4.049751E+03	4.520504E-04	1.195112E-05
4.059701E+03	4.560158E-04	1.201338E-05
4.069652E+03	4.600165E-04	1.207580E-05
4.079602E+03	4.639774E-04	1.213643E-05
4.089552E+03	4.680486E-04	1.219918E-05
4.099502E+03	4.721558E-04	1.226209E-05
4.109453E+03	4.762991E-04	1.232517E-05
4.119403E+03	4.804788E-04	1.238842E-05
4.129353E+03	4.846952E-04	1.245183E-05
4.139303E+03	4.889485E-04	1.251542E-05
4.149254E+03	4.931592E-04	1.257713E-05
4.159204E+03	4.974864E-04	1.264105E-05
4.169154E+03	5.018512E-04	1.270513E-05
4.179104E+03	5.062540E-04	1.276939E-05
4.189055E+03	5.106949E-04	1.283382E-05
4.199005E+03	5.150912E-04	1.289635E-05
4.208955E+03	5.196087E-04	1.296113E-05
4.218905E+03	5.241652E-04	1.302610E-05
4.228856E+03	5.287610E-04	1.309126E-05
4.238806E+03	5.333965E-04	1.315660E-05
4.248756E+03	5.379851E-04	1.322002E-05
4.258706E+03	5.426995E-04	1.328574E-05
4.268657E+03	5.474544E-04	1.335167E-05
4.278607E+03	5.521619E-04	1.341567E-05
4.288557E+03	5.569978E-04	1.348201E-05
4.298507E+03	5.618758E-04	1.354860E-05
4.308458E+03	5.667948E-04	1.361539E-05
4.318408E+03	5.716641E-04	1.368023E-05
4.328358E+03	5.766672E-04	1.374750E-05
4.338308E+03	5.817123E-04	1.381501E-05
4.348259E+03	5.867067E-04	1.388056E-05
4.358209E+03	5.918369E-04	1.394857E-05
4.368159E+03	5.970112E-04	1.401687E-05
4.378109E+03	6.021325E-04	1.408319E-05
4.388060E+03	6.073934E-04	1.415204E-05
4.398010E+03	6.126008E-04	1.421892E-05
4.407960E+03	6.179498E-04	1.428837E-05
4.417910E+03	6.233434E-04	1.435813E-05
4.427861E+03	6.286818E-04	1.442591E-05
4.437811E+03	6.341649E-04	1.449632E-05
4.447761E+03	6.395908E-04	1.456474E-05
4.457711E+03	6.451635E-04	1.463583E-05
4.467662E+03	6.506783E-04	1.470494E-05
4.477612E+03	6.563410E-04	1.477674E-05
4.487562E+03	6.619436E-04	1.484654E-05
4.497512E+03	6.676967E-04	1.491909E-05
4.507463E+03	6.733877E-04	1.498964E-05
4.517413E+03	6.792295E-04	1.506294E-05
4.527363E+03	6.850076E-04	1.513425E-05
4.537313E+03	6.909376E-04	1.520834E-05
4.547264E+03	6.968006E-04	1.528039E-05
4.557214E+03	7.027047E-04	1.535282E-05
4.567164E+03	7.087617E-04	1.542808E-05
4.577114E+03	7.147463E-04	1.550125E-05
4.587065E+03	7.208834E-04	1.557725E-05
4.597015E+03	7.269437E-04	1.565113E-05
4.606965E+03	7.330386E-04	1.572533E-05
4.616915E+03	7.392832E-04	1.580232E-05
4.626866E+03	7.454425E-04	1.587710E-05
4.636816E+03	7.516289E-04	1.595210E-05
4.646766E+03	7.578403E-04	1.602729E-05
4.656716E+03	7.641929E-04	1.610516E-05
4.666667E+03	7.704425E-04	1.618058E-05
4.676617E+03	7.767038E-04	1.625600E-05
4.686567E+03	7.829714E-04	1.633134E-05
4.696517E+03	7.893636E-04	1.640909E-05
4.706468E+03	7.956252E-04	1.648397E-05
4.716418E+03	8.018714E-04	1.655842E-05
4.726368E+03	8.080936E-04	1.663232E-05
4.736318E+03	8.142822E-04	1.670549E-05
4.746269E+03	8.205551E-04	1.678039E-05
4.756219E+03	8.266442E-04	1.685159E-05
4.766169E+03	8.326648E-04	1.692149E-05
4.776119E+03	8.386067E-04	1.698994E-05
4.786070E+03	8.444598E-04	1.705678E-05
4.796020E+03	8.502166E-04	1.712194E-05
4.805970E+03	8.558719E-04	1.718534E-05
4.815920E+03	8.614229E-04	1.724700E-05
4.825871E+03	8.668674E-04	1.730692E-05
4.835821E+03	8.722054E-04	1.736517E-05
4.845771E+03	8.774373E-04	1.742181E-05
4.855721E+03	8.825647E-04	1.747693E-05
4.865672E+03	8.875918E-04	1.753065E-05
4.875622E+03	8.925216E-04	1.758311E-05
4.885572E+03	8.973600E-04	1.763445E-05
4.895522E+03	9.021106E-04	1.768481E-05
4.905473E+03	9.067809E-04	1.773437E-05
4.915423E+03	9.113750E-04	1.778326E-05
4.925373E+03	9.157550E-04	1.782883E-05
4.935323E+03	9.202132E-04	1.787682E-05
4.945274E+03	9.246122E-04	1.792459E-05
4.955224E+03	9.289561E-04	1.797223E-05
4.965174E+03	9.332504E-04	1.801985E-05
4.975124E+03	9.373521E-04	1.806470E-05
4.985075E+03	9.415596E-04	1.811253E-05
4.995025E+03	9.457296E-04	1.816056E-05
5.004975E+03	9.498667E-04	1.820890E-05
5.014925E+03	9.538247E-04	1.825473E-05
5.024876E+03	9.579053E-04	1.830383E-05
5.034826E+03	9.619627E-04	1.835339E-05
5.044776E+03	9.658488E-04	1.840060E-05
5.054726E+03	9.698682E-04	1.845123E-05
5.064677E+03	9.738723E-04	1.850246E-05
5.074627E+03	9.777115E-04	1.855143E-05
5.084577E+03	9.816925E-04	1.860396E-05
5.094527E+03	9.855118E-04	1.865427E-05
5.104478E+03	9.894776E-04	1.870820E-05
5.114428E+03	9.934388E-04	1.876285E-05
5.124378E+03	9.972420E-04	1.881534E-05
5.134328E+03	1.001198E-03	1.887151E-05
5.144279E+03	1.004998E-03	1.892552E-05
5.154229E+03	1.008954E-03	1.898324E-05
5.164179E+03	1.012756E-03	1.903880E-05
5.174129E+03	1.016559E-03	1.909514E-05
5.184080E+03	1.020524E-03	1.915523E-05
5.194030E+03	1.024335E-03	1.921313E-05
5.203980E+03	1.028310E-03	1.927481E-05
5.213930E+03	1.032131E-03	1.933426E-05
5.223881E+03	1.035957E-03	1.939448E-05
5.233831E+03	1.039952E-03	1.945848E-05
5.243781E+03	1.043792E-03	1.952020E-05
5.253731E+03	1.047639E-03	1.958267E-05
5.263682E+03	1.051656E-03	1.964890E-05
5.273632E+03	1.055518E-03	1.971280E-05
5.283582E+03	1.059388E-03	1.977739E-05
5.293532E+03	1.063265E-03	1.984265E-05
5.303483E+03	1.067316E-03	1.991168E-05
5.313433E+03	1.071209E-03	1.997825E-05
5.323383E+03	1.075110E-03	2.004544E-05
5.333333E+03	1.079018E-03	2.011323E-05
5.343284E+03	1.082933E-03	2.018159E-05
5.353234E+03	1.086855E-03	2.025052E-05
5.363184E+03	1.090954E-03	2.032313E-05
5.373134E+03	1.094889E-03	2.039310E-05
5.383085E+03	1.098832E-03	2.046357E-05
5.393035E+03	1.102779E-03	2.053449E-05
5.402985E+03	1.106732E-03	2.060585E-05
5.412935E+03	1.110691E-03	2.067762E-05
5.422886E+03	1.114653E-03	2.074977E-05
5.432836E+03	1.118620E-03	2.082229E-05
5.442786E+03	1.122590E-03	2.089514E-05
5.452736E+03	1.126563E-03	2.096828E-05
5.462687E+03	1.130538E-03	2.104171E-05
5.472637E+03	1.134515E-03	2.111538E-05
5.482587E+03	1.138493E-03	2.118927E-05
5.492537E+03	1.142471E-03	2.126334E-05
5.502488E+03	1.146449E-03	2.133759E-05
5.512438E+03	1.150248E-03	2.140865E-05
5.522388E+03	1.154222E-03	2.148312E-05
5.532338E+03	1.158194E-03	2.155766E-05
5.542289E+03	1.162164E-03	2.163226E-05
5.552239E+03	1.166129E-03	2.170686E-05
5.562189E+03	1.170089E-03	2.178146E-05
5.572139E+03	1.173862E-03	2.185264E-05
5.582090E+03	1.177810E-03	2.192710E-05
5.592040E+03	1.181751E-03	2.200147E-05
5.601990E+03	1.185683E-03	2.207571E-05
5.611940E+03	1.189423E-03	2.214637E-05
5.621891E+03	1.193336E-03	2.222024E-05
5.631841E+03	1.197239E-03	2.229390E-05
5.641791E+03	1.200944E-03	2.236384E-05
5.651741E+03	1.204822E-03	2.243696E-05
5.661692E+03	1.208685E-03	2.250976E-05
5.671642E+03	1.212348E-03	2.257874E-05
5.681592E+03	1.216181E-03	2.265083E-05
5.691542E+03	1.219810E-03	2.271902E-05
5.701493E+03	1.223609E-03	2.279028E-05
5.711443E+03	1.227389E-03	2.286108E-05
5.721393E+03	1.230960E-03	2.292785E-05
5.731343E+03	1.234699E-03	2.299765E-05
5.741294E+03	1.238226E-03	2.306334E-05
5.751244E+03	1.241920E-03	2.313201E-05
5.761194E+03	1.245399E-03	2.319650E-05
5.771144E+03	1.249044E-03	2.326393E-05
5.781095E+03	1.252468E-03	2.332709E-05
5.791045E+03	1.256059E-03	2.339316E-05
5.800995E+03	1.259426E-03	2.345489E-05
5.810945E+03	1.262761E-03	2.351585E-05
5.820896E+03	1.266260E-03	2.357965E-05
5.830846E+03	1.269530E-03	2.363899E-05
5.840796E+03	1.272961E-03	2.370113E-05
5.850746E+03	1.276160E-03	2.375873E-05
5.860697E+03	1.279320E-03	2.381540E-05
5.870647E+03	1.282638E-03	2.387481E-05
5.880597E+03	1.285717E-03	2.392953E-05
5.890547E+03	1.288752E-03	2.398324E-05
5.900498E+03	1.291742E-03	2.403588E-05
5.910448E+03	1.294885E-03	2.409114E-05
5.920398E+03	1.297779E-03	2.414155E-05
5.930348E+03	1.300621E-03	2.419076E-05
5.940299E+03	1.303610E-03	2.424248E-05
5.950249E+03	1.306342E-03	2.428919E-05
5.960199E+03	1.309014E-03	2.433458E-05
5.970149E+03	1.311623E-03	2.437857E-05
5.980100E+03	1.314166E-03	2.442111E-05
5.990050E+03	1.316640E-03	2.446216E-05
6.000000E+03	1.319243E-03	2.450539E-05
6.009950E+03	1.321564E-03	2.454318E-05
6.019900E+03	1.323804E-03	2.457924E-05
6.029851E+03	1.325954E-03	2.461346E-05
6.039801E+03	1.328011E-03	2.464573E-05
6.049751E+03	1.329968E-03	2.467595E-05
6.059701E+03	1.331818E-03	2.470401E-05
6.069652E+03	1.333552E-03	2.472975E-05
6.079602E+03	1.335163E-03	2.475302E-05
6.089552E+03	1.336642E-03	2.477369E-05
6.099502E+03	1.337978E-03	2.479155E-05
6.109453E+03	1.339160E-03	2.480642E-05
6.119403E+03	1.340178E-03	2.481810E-05
6.129353E+03	1.341019E-03	2.482638E-05
6.139303E+03	1.341670E-03	2.483102E-05
6.149254E+03	1.342119E-03	2.483183E-05
6.159204E+03	1.342354E-03	2.482857E-05
6.169154E+03	1.342365E-03	2.482109E-05
6.179104E+03	1.342145E-03	2.480926E-05
6.189055E+03	1.341693E-03	2.479307E-05
6.199005E+03	1.341010E-03	2.477259E-05
6.208955E+03	1.340108E-03	2.474801E-05
6.218905E+03	1.339001E-03	2.471958E-05
6.228856E+03	1.337707E-03	2.468764E-05
6.238806E+03	1.336244E-03	2.465252E-05
6.248756E+03	1.334427E-03	2.461079E-05
6.258706E+03	1.332688E-03	2.457040E-05
6.268657E+03	1.330838E-03	2.452790E-05
6.278607E+03	1.328898E-03	2.448363E-05
6.288557E+03	1.326884E-03	2.443790E-05
6.298507E+03	1.324609E-03	2.438725E-05
6.308458E+03	1.322499E-03	2.433953E-05
6.318408E+03	1.320363E-03	2.429122E-05
6.328358E+03	1.318218E-03	2.424261E-05
6.338308E+03	1.315874E-03	2.419019E-05
6.348259E+03	1.313750E-03	2.414170E-05
6.358209E+03	1.311656E-03	2.409361E-05
6.368159E+03	1.309603E-03	2.404613E-05
6.378109E+03	1.307402E-03	2.399578E-05
6.388060E+03	1.305467E-03	2.395014E-05
6.398010E+03	1.303604E-03	2.390567E-05
6.407960E+03	1.301619E-03	2.385879E-05
6.417910E+03	1.299920E-03	2.381699E-05
6.427861E+03	1.298306E-03	2.377657E-05
6.437811E+03	1.296580E-03	2.373390E-05
6.447761E+03	1.295139E-03	2.369627E-05
6.457711E+03	1.293783E-03	2.365998E-05
6.467662E+03	1.292308E-03	2.362131E-05
6.477612E+03	1.291112E-03	2.358753E-05
6.487562E+03	1.289793E-03	2.355129E-05
6.497512E+03	1.288748E-03	2.351983E-05
6.507463E+03	1.287775E-03	2.348943E-05
6.517413E+03	1.286671E-03	2.345644E-05
6.527363E+03	1.285832E-03	2.342804E-05
6.537313E+03	1.284859E-03	2.339696E-05
6.547264E+03	1.284146E-03	2.337038E-05
6.557214E+03	1.283295E-03	2.334103E-05
6.567164E+03	1.282700E-03	2.331610E-05
6.577114E+03	1.281962E-03	2.328832E-05
6.587065E+03	1.281476E-03	2.326487E-05
6.597015E+03	1.280845E-03	2.323852E-05
6.606965E+03	1.280461E-03	2.321643E-05
6.616915E+03	1.279929E-03	2.319138E-05
6.626866E+03	1.279641E-03	2.317053E-05
6.636816E+03	1.279202E-03	2.314667E-05
6.646766E+03	1.278807E-03	2.312338E-05
6.656716E+03	1.278654E-03	2.310421E-05
6.666667E+03	1.278345E-03	2.308199E-05
6.676617E+03	1.278275E-03	2.306385E-05
6.686567E+03	1.278048E-03	2.304263E-05
6.696517E+03	1.277861E-03	2.302190E-05
6.706468E+03	1.277910E-03	2.300520E-05
6.716418E+03	1.277799E-03	2.298540E-05
6.726368E+03	1.277725E-03	2.296606E-05
6.736318E+03	1.277886E-03	2.295072E-05
6.746269E+03	1.277885E-03	2.293228E-05
6.756219E+03	1.277921E-03	2.291429E-05
6.766169E+03	1.278189E-03	2.290028E-05
6.776119E+03	1.278293E-03	2.288316E-05
6.786070E+03	1.278433E-03	2.286651E-05
6.796020E+03	1.278804E-03	2.285383E-05
6.805970E+03	1.279011E-03	2.283807E-05
6.815920E+03	1.279252E-03	2.282277E-05
6.825871E+03	1.279724E-03	2.281147E-05
6.835821E+03	1.280031E-03	2.279711E-05
6.845771E+03	1.280371E-03	2.278322E-05
6.855721E+03	1.280743E-03	2.276984E-05
6.865672E+03	1.281148E-03	2.275695E-05
6.875622E+03	1.281784E-03	2.274810E-05
6.885572E+03	1.282255E-03	2.273626E-05
6.895522E+03	1.282756E-03	2.272494E-05
6.905473E+03	1.283291E-03	2.271419E-05
6.915423E+03	1.283857E-03	2.270400E-05
6.925373E+03	1.284654E-03	2.269792E-05
6.935323E+03	1.285285E-03	2.268892E-05
6.945274E+03	1.285947E-03	2.268054E-05
6.955224E+03	1.286641E-03	2.267279E-05
6.965174E+03	1.287367E-03	2.266571E-05
6.975124E+03	1.288124E-03	2.265928E-05
6.985075E+03	1.288914E-03	2.265357E-05
6.995025E+03	1.289935E-03	2.265208E-05
7.004975E+03	1.290788E-03	2.264781E-05
7.014925E+03	1.291672E-03	2.264431E-05
7.024876E+03	1.292587E-03	2.264158E-05
7.034826E+03	1.293534E-03	2.263967E-05
7.044776E+03	1.294512E-03	2.263858E-05
7.054726E+03	1.295522E-03	2.263836E-05
7.064677E+03	1.296563E-03	2.263900E-05
7.074627E+03	1.297635E-03	2.264057E-05
7.084577E+03	1.298738E-03	2.264307E-05
7.094527E+03	1.299871E-03	2.264652E-05
7.104478E+03	1.301036E-03	2.265098E-05
7.114428E+03	1.302231E-03	2.265645E-05
7.124378E+03	1.303458E-03	2.266297E-05
7.134328E+03	1.304715E-03	2.267058E-05
7.144279E+03	1.306002E-03	2.267930E-05
7.154229E+03	1.307320E-03	2.268918E-05
7.164179E+03	1.308668E-03	2.270023E-05
7.174129E+03	1.310047E-03	2.271250E-05
7.184080E+03	1.311456E-03	2.272602E-05
7.194030E+03	1.312897E-03	2.274084E-05
7.203980E+03	1.314367E-03	2.275698E-05
7.213930E+03	1.315868E-03	2.277450E-05
7.223881E+03	1.317400E-03	2.279343E-05
7.233831E+03	1.318757E-03	2.281026E-05
7.243781E+03	1.320352E-03	2.283215E-05
7.253731E+03	1.321978E-03	2.285558E-05
7.263682E+03	1.323637E-03	2.288062E-05
7.273632E+03	1.325328E-03	2.290731E-05
7.283582E+03	1.327053E-03	2.293571E-05
7.293532E+03	1.328812E-03	2.296589E-05
7.303483E+03	1.330607E-03	2.299788E-05
7.313433E+03	1.332230E-03	2.302819E-05
7.323383E+03	1.334099E-03	2.306403E-05
7.333333E+03	1.336007E-03	2.310193E-05
7.343284E+03	1.337956E-03	2.314193E-05
7.353234E+03	1.339948E-03	2.318412E-05
7.363184E+03	1.341776E-03	2.322497E-05
7.373134E+03	1.343861E-03	2.327182E-05
7.383085E+03	1.345995E-03	2.332112E-05
7.393035E+03	1.348182E-03	2.337298E-05
7.402985E+03	1.350215E-03	2.342386E-05
7.412935E+03	1.352516E-03	2.348114E-05
7.422886E+03	1.354879E-03	2.354130E-05
7.432836E+03	1.357305E-03	2.360441E-05
7.442786E+03	1.359585E-03	2.366688E-05
7.452736E+03	1.362145E-03	2.373617E-05
7.462687E+03	1.364772E-03	2.380865E-05
7.472637E+03	1.367251E-03	2.388061E-05
7.482587E+03	1.370007E-03	2.395951E-05
7.492537E+03	1.372821E-03	2.404162E-05
7.502488E+03	1.375474E-03	2.412313E-05
7.512438E+03	1.378394E-03	2.421158E-05
7.522388E+03	1.381364E-03	2.430328E-05
7.532338E+03	1.384171E-03	2.439447E-05
7.542289E+03	1.387251E-03	2.449292E-05
7.552239E+03	1.390390E-03	2.459487E-05
7.562189E+03	1.393373E-03	2.469646E-05
7.572139E+03	1.396636E-03	2.480543E-05
7.582090E+03	1.399740E-03	2.491399E-05
7.592040E+03	1.403124E-03	2.502990E-05
7.601990E+03	1.406341E-03	2.514523E-05
7.611940E+03	1.409832E-03	2.526780E-05
7.621891E+03	1.413371E-03	2.539359E-05
7.631841E+03	1.416731E-03	2.551850E-05
7.641791E+03	1.420354E-03	2.565045E-05
7.651741E+03	1.423789E-03	2.578131E-05
7.661692E+03	1.427481E-03	2.591908E-05
7.671642E+03	1.430974E-03	2.605552E-05
7.681592E+03	1.434718E-03	2.619876E-05
7.691542E+03	1.438256E-03	2.634046E-05
7.701493E+03	1.442039E-03	2.648884E-05
7.711443E+03	1.445609E-03	2.663550E-05
7.721393E+03	1.449419E-03	2.678873E-05
