#wls	flux	fluxerr
1.588055E+03	1.861339E-03	9.626509E-06
1.627756E+03	1.874674E-03	9.688872E-06
1.667457E+03	1.888469E-03	9.753322E-06
1.707159E+03	1.903018E-03	9.821370E-06
1.746860E+03	1.918305E-03	9.892914E-06
1.786561E+03	1.934629E-03	9.969467E-06
1.826263E+03	1.951968E-03	1.005090E-05
1.865964E+03	1.970300E-03	1.013708E-05
1.905666E+03	1.990554E-03	1.023275E-05
1.945367E+03	2.012709E-03	1.033777E-05
1.985068E+03	2.036736E-03	1.045195E-05
2.024770E+03	2.063240E-03	1.057835E-05
2.064471E+03	2.092509E-03	1.071839E-05
2.104172E+03	2.125462E-03	1.087673E-05
2.143874E+03	2.161727E-03	1.105138E-05
2.183575E+03	2.202534E-03	1.124856E-05
2.223277E+03	2.247489E-03	1.146616E-05
2.262978E+03	2.296508E-03	1.170365E-05
2.302679E+03	2.349811E-03	1.196207E-05
2.342381E+03	2.406642E-03	1.223747E-05
2.382082E+03	2.467188E-03	1.253069E-05
2.421783E+03	2.531300E-03	1.284089E-05
2.461485E+03	2.598487E-03	1.316546E-05
2.501186E+03	2.668564E-03	1.350337E-05
2.540887E+03	2.741322E-03	1.385348E-05
2.580589E+03	2.816850E-03	1.421612E-05
2.620290E+03	2.894264E-03	1.458673E-05
2.659992E+03	2.973924E-03	1.496704E-05
2.699693E+03	3.055526E-03	1.535541E-05
2.739394E+03	3.139057E-03	1.575169E-05
2.779096E+03	3.224775E-03	1.615706E-05
2.818797E+03	3.312282E-03	1.656942E-05
2.858498E+03	3.400847E-03	1.698501E-05
2.898200E+03	3.488817E-03	1.739551E-05
2.937901E+03	3.576344E-03	1.780161E-05
2.977602E+03	3.662355E-03	1.819793E-05
2.987528E+03	3.683335E-03	1.829405E-05
2.997453E+03	3.704531E-03	1.839111E-05
3.007378E+03	3.725640E-03	1.848759E-05
3.017304E+03	3.746653E-03	1.858346E-05
3.027229E+03	3.767563E-03	1.867866E-05
3.037155E+03	3.788361E-03	1.877316E-05
3.047080E+03	3.809036E-03	1.886692E-05
3.057005E+03	3.829582E-03	1.895988E-05
3.066931E+03	3.850274E-03	1.905342E-05
3.076856E+03	3.870816E-03	1.914607E-05
3.086781E+03	3.891199E-03	1.923778E-05
3.096707E+03	3.911697E-03	1.932991E-05
3.106632E+03	3.932014E-03	1.942099E-05
3.116557E+03	3.952424E-03	1.951239E-05
3.126483E+03	3.972913E-03	1.960401E-05
3.136408E+03	3.993189E-03	1.969444E-05
3.146333E+03	4.013521E-03	1.978498E-05
3.156259E+03	4.034171E-03	1.987694E-05
3.166184E+03	4.054574E-03	1.996752E-05
3.176109E+03	4.075267E-03	2.005937E-05
3.186035E+03	4.095686E-03	2.014971E-05
3.195960E+03	4.116640E-03	2.024252E-05
3.205885E+03	4.137562E-03	2.033501E-05
3.215811E+03	4.158442E-03	2.042713E-05
3.225736E+03	4.179801E-03	2.052143E-05
3.235661E+03	4.201082E-03	2.061518E-05
3.245587E+03	4.222806E-03	2.071092E-05
3.255512E+03	4.244683E-03	2.080725E-05
3.265437E+03	4.266960E-03	2.090536E-05
3.275363E+03	4.289351E-03	2.100385E-05
3.285288E+03	4.312098E-03	2.110390E-05
3.295213E+03	4.335440E-03	2.120667E-05
3.305139E+03	4.359090E-03	2.131076E-05
3.315064E+03	4.383282E-03	2.141731E-05
3.324989E+03	4.407990E-03	2.152618E-05
3.334915E+03	4.433185E-03	2.163722E-05
3.344840E+03	4.459093E-03	2.175154E-05
3.354765E+03	4.485681E-03	2.186897E-05
3.364691E+03	4.512920E-03	2.198935E-05
3.374616E+03	4.541023E-03	2.211372E-05
3.384541E+03	4.569955E-03	2.224191E-05
3.394467E+03	4.600172E-03	2.237610E-05
3.404392E+03	4.631141E-03	2.251371E-05
3.414318E+03	4.663310E-03	2.265691E-05
3.424243E+03	4.696880E-03	2.280665E-05
3.434168E+03	4.731803E-03	2.296269E-05
3.444094E+03	4.768271E-03	2.312596E-05
3.454019E+03	4.806474E-03	2.329734E-05
3.463944E+03	4.846125E-03	2.347544E-05
3.473870E+03	4.888116E-03	2.366457E-05
3.483795E+03	4.931923E-03	2.386215E-05
3.493720E+03	4.977959E-03	2.407018E-05
3.503646E+03	5.026171E-03	2.428836E-05
3.513571E+03	5.076961E-03	2.451863E-05
3.523496E+03	5.130046E-03	2.475959E-05
3.533422E+03	5.185377E-03	2.501098E-05
3.543347E+03	5.242686E-03	2.527149E-05
3.553272E+03	5.302152E-03	2.554195E-05
3.563198E+03	5.363297E-03	2.582005E-05
3.573123E+03	5.426311E-03	2.610667E-05
3.583048E+03	5.490948E-03	2.640062E-05
3.592974E+03	5.557186E-03	2.670177E-05
3.602899E+03	5.624583E-03	2.700798E-05
3.612824E+03	5.693557E-03	2.732124E-05
3.622750E+03	5.763469E-03	2.763847E-05
3.632675E+03	5.834540E-03	2.796071E-05
3.642600E+03	5.906574E-03	2.828702E-05
3.652526E+03	5.979593E-03	2.861747E-05
3.662451E+03	6.053216E-03	2.895025E-05
3.672376E+03	6.127886E-03	2.928745E-05
3.682302E+03	6.203236E-03	2.962731E-05
3.692227E+03	6.279310E-03	2.997003E-05
3.702152E+03	6.355956E-03	3.031487E-05
3.712078E+03	6.433222E-03	3.066205E-05
3.722003E+03	6.510963E-03	3.101087E-05
3.731928E+03	6.589421E-03	3.136247E-05
3.741854E+03	6.668258E-03	3.171524E-05
3.751779E+03	6.747524E-03	3.206940E-05
3.761704E+03	6.827268E-03	3.242517E-05
3.771630E+03	6.907535E-03	3.278277E-05
3.781555E+03	6.987995E-03	3.314062E-05
3.791480E+03	7.069070E-03	3.350071E-05
3.801406E+03	7.150244E-03	3.386058E-05
3.811331E+03	7.231747E-03	3.422133E-05
3.821257E+03	7.313439E-03	3.458228E-05
3.831182E+03	7.395359E-03	3.494360E-05
3.841107E+03	7.477544E-03	3.530547E-05
3.851033E+03	7.559848E-03	3.566719E-05
3.860958E+03	7.642127E-03	3.602807E-05
3.870883E+03	7.724586E-03	3.638908E-05
3.880809E+03	7.807077E-03	3.674952E-05
3.890734E+03	7.889443E-03	3.710864E-05
3.900659E+03	7.971707E-03	3.746654E-05
3.910585E+03	8.053883E-03	3.782329E-05
3.920510E+03	8.135811E-03	3.817813E-05
3.930435E+03	8.217327E-03	3.853030E-05
3.940361E+03	8.298612E-03	3.888064E-05
3.950286E+03	8.379497E-03	3.922836E-05
3.960211E+03	8.459986E-03	3.957348E-05
3.970137E+03	8.539909E-03	3.991521E-05
3.980062E+03	8.619101E-03	4.025276E-05
3.989987E+03	8.697562E-03	4.058616E-05
3.999913E+03	8.775465E-03	4.091621E-05
4.009838E+03	8.852475E-03	4.124135E-05
4.019763E+03	8.928433E-03	4.156085E-05
4.029689E+03	9.003677E-03	4.187629E-05
4.039614E+03	9.077885E-03	4.218618E-05
4.049539E+03	9.150908E-03	4.248983E-05
4.059465E+03	9.222930E-03	4.278810E-05
4.069390E+03	9.293818E-03	4.308040E-05
4.079315E+03	9.363610E-03	4.336690E-05
4.089241E+03	9.432360E-03	4.364786E-05
4.099166E+03	9.499808E-03	4.392210E-05
4.109091E+03	9.566199E-03	4.419075E-05
4.119017E+03	9.631625E-03	4.445425E-05
4.128942E+03	9.696036E-03	4.471238E-05
4.138867E+03	9.759393E-03	4.496496E-05
4.148793E+03	9.822138E-03	4.521405E-05
4.158718E+03	9.884088E-03	4.545880E-05
4.168643E+03	9.945529E-03	4.570053E-05
4.178569E+03	1.000643E-02	4.593909E-05
4.188494E+03	1.006705E-02	4.617574E-05
4.198419E+03	1.012719E-02	4.640947E-05
4.208345E+03	1.018739E-02	4.664283E-05
4.218270E+03	1.024740E-02	4.687464E-05
4.228196E+03	1.030741E-02	4.710578E-05
4.238121E+03	1.036728E-02	4.733557E-05
4.248046E+03	1.042745E-02	4.756606E-05
4.257972E+03	1.048756E-02	4.779563E-05
4.267897E+03	1.054787E-02	4.802539E-05
4.277822E+03	1.060827E-02	4.825486E-05
4.287748E+03	1.066898E-02	4.848506E-05
4.297673E+03	1.072956E-02	4.871397E-05
4.307598E+03	1.079050E-02	4.894383E-05
4.317524E+03	1.085167E-02	4.917402E-05
4.327449E+03	1.091295E-02	4.940397E-05
4.337374E+03	1.097467E-02	4.963524E-05
4.347300E+03	1.103687E-02	4.986791E-05
4.357225E+03	1.109946E-02	5.010165E-05
4.367150E+03	1.116280E-02	5.033806E-05
4.377076E+03	1.122684E-02	5.057684E-05
4.387001E+03	1.129167E-02	5.081846E-05
4.396926E+03	1.135775E-02	5.106489E-05
4.406852E+03	1.142486E-02	5.131521E-05
4.416777E+03	1.149317E-02	5.157016E-05
4.426702E+03	1.156254E-02	5.182903E-05
4.436628E+03	1.163281E-02	5.209112E-05
4.446553E+03	1.170385E-02	5.235586E-05
4.456478E+03	1.177555E-02	5.262272E-05
4.466404E+03	1.184780E-02	5.289122E-05
4.476329E+03	1.192053E-02	5.316098E-05
4.486254E+03	1.199364E-02	5.343160E-05
4.496180E+03	1.206692E-02	5.370216E-05
4.506105E+03	1.214034E-02	5.397245E-05
4.516030E+03	1.221402E-02	5.424304E-05
4.525956E+03	1.228780E-02	5.451321E-05
4.535881E+03	1.236183E-02	5.478363E-05
4.545806E+03	1.243612E-02	5.505437E-05
4.555732E+03	1.251055E-02	5.532482E-05
4.565657E+03	1.258547E-02	5.559652E-05
4.575582E+03	1.266058E-02	5.586826E-05
4.585508E+03	1.273638E-02	5.614211E-05
4.595433E+03	1.281260E-02	5.641690E-05
4.605358E+03	1.288938E-02	5.669328E-05
4.615284E+03	1.296701E-02	5.697253E-05
4.625209E+03	1.304532E-02	5.725380E-05
4.635135E+03	1.312453E-02	5.753811E-05
4.645060E+03	1.320468E-02	5.782562E-05
4.654985E+03	1.328562E-02	5.811562E-05
4.664911E+03	1.336741E-02	5.840843E-05
4.674836E+03	1.345014E-02	5.870435E-05
4.684761E+03	1.353359E-02	5.900250E-05
4.694687E+03	1.361757E-02	5.930195E-05
4.704612E+03	1.370225E-02	5.960347E-05
4.714537E+03	1.378732E-02	5.990568E-05
4.724463E+03	1.387272E-02	6.020835E-05
4.734388E+03	1.395822E-02	6.051047E-05
4.744313E+03	1.404359E-02	6.081103E-05
4.754239E+03	1.412875E-02	6.110973E-05
4.764164E+03	1.421320E-02	6.140434E-05
4.774089E+03	1.429630E-02	6.169214E-05
4.784015E+03	1.437777E-02	6.197195E-05
4.793940E+03	1.445741E-02	6.224296E-05
4.803865E+03	1.453477E-02	6.250323E-05
4.813791E+03	1.460981E-02	6.275264E-05
4.823716E+03	1.468255E-02	6.299130E-05
4.833641E+03	1.475294E-02	6.321904E-05
4.843567E+03	1.482117E-02	6.343668E-05
4.853492E+03	1.488746E-02	6.364524E-05
4.863417E+03	1.495209E-02	6.384597E-05
4.873343E+03	1.501522E-02	6.403952E-05
4.883268E+03	1.507752E-02	6.422878E-05
4.893193E+03	1.513898E-02	6.441376E-05
4.903119E+03	1.520026E-02	6.459722E-05
4.913044E+03	1.526133E-02	6.477911E-05
4.922969E+03	1.532278E-02	6.496189E-05
4.932895E+03	1.538469E-02	6.514596E-05
4.942820E+03	1.544724E-02	6.533198E-05
4.952745E+03	1.551072E-02	6.552123E-05
4.962671E+03	1.557523E-02	6.571410E-05
4.972596E+03	1.564079E-02	6.591068E-05
4.982521E+03	1.570719E-02	6.611010E-05
4.992447E+03	1.577471E-02	6.631346E-05
5.002372E+03	1.584286E-02	6.651877E-05
5.012297E+03	1.591179E-02	6.672660E-05
5.022223E+03	1.598129E-02	6.693606E-05
5.032148E+03	1.605090E-02	6.714525E-05
5.042074E+03	1.612049E-02	6.735365E-05
5.051999E+03	1.618976E-02	6.755996E-05
5.061924E+03	1.625837E-02	6.776279E-05
5.071850E+03	1.632594E-02	6.796062E-05
5.081775E+03	1.639197E-02	6.815134E-05
5.091700E+03	1.645659E-02	6.833559E-05
5.101626E+03	1.651895E-02	6.850978E-05
5.111551E+03	1.657903E-02	6.867391E-05
5.121476E+03	1.663632E-02	6.882595E-05
5.131402E+03	1.669069E-02	6.896537E-05
5.141327E+03	1.674165E-02	6.909020E-05
5.151252E+03	1.678911E-02	6.920016E-05
5.161178E+03	1.683266E-02	6.929361E-05
5.171103E+03	1.687228E-02	6.937050E-05
5.181028E+03	1.690779E-02	6.943026E-05
5.190954E+03	1.693892E-02	6.947174E-05
5.200879E+03	1.696575E-02	6.949543E-05
5.210804E+03	1.698828E-02	6.950134E-05
5.220730E+03	1.700634E-02	6.948887E-05
5.230655E+03	1.702015E-02	6.945904E-05
5.240580E+03	1.702982E-02	6.941232E-05
5.250506E+03	1.703547E-02	6.934928E-05
5.260431E+03	1.703706E-02	6.926984E-05
5.270356E+03	1.703475E-02	6.917474E-05
5.280282E+03	1.702893E-02	6.906559E-05
5.290207E+03	1.701960E-02	6.894249E-05
5.300132E+03	1.700716E-02	6.880708E-05
5.310058E+03	1.699165E-02	6.865963E-05
5.319983E+03	1.697347E-02	6.850176E-05
5.329908E+03	1.695269E-02	6.833383E-05
5.339834E+03	1.692937E-02	6.815613E-05
5.349759E+03	1.690410E-02	6.797107E-05
5.359684E+03	1.687696E-02	6.777899E-05
5.369610E+03	1.684803E-02	6.758031E-05
5.379535E+03	1.681792E-02	6.737746E-05
5.389460E+03	1.678655E-02	6.717014E-05
5.399386E+03	1.675435E-02	6.696013E-05
5.409311E+03	1.672146E-02	6.674799E-05
5.419237E+03	1.668831E-02	6.653548E-05
5.429162E+03	1.665505E-02	6.632318E-05
5.439087E+03	1.662217E-02	6.611307E-05
5.449013E+03	1.658982E-02	6.590574E-05
5.458938E+03	1.655836E-02	6.570264E-05
5.468863E+03	1.652833E-02	6.550587E-05
5.478789E+03	1.650011E-02	6.531697E-05
5.488714E+03	1.647378E-02	6.513620E-05
5.498639E+03	1.645024E-02	6.496713E-05
5.508565E+03	1.642975E-02	6.481074E-05
5.518490E+03	1.641255E-02	6.466799E-05
5.528415E+03	1.639938E-02	6.454169E-05
5.538341E+03	1.639028E-02	6.443196E-05
5.548266E+03	1.638607E-02	6.434206E-05
5.558191E+03	1.638677E-02	6.427193E-05
5.568117E+03	1.639285E-02	6.422338E-05
5.578042E+03	1.640458E-02	6.419745E-05
5.587967E+03	1.642224E-02	6.419511E-05
5.597893E+03	1.644607E-02	6.421733E-05
5.607818E+03	1.647635E-02	6.426505E-05
5.617743E+03	1.651351E-02	6.433989E-05
5.627669E+03	1.655764E-02	6.444216E-05
5.637594E+03	1.660932E-02	6.457406E-05
5.647519E+03	1.666827E-02	6.473442E-05
5.657445E+03	1.673520E-02	6.492590E-05
5.667370E+03	1.681010E-02	6.514843E-05
5.677295E+03	1.689285E-02	6.540144E-05
5.687221E+03	1.698378E-02	6.568612E-05
5.697146E+03	1.708237E-02	6.600046E-05
5.707071E+03	1.718869E-02	6.634460E-05
5.716997E+03	1.730207E-02	6.671598E-05
5.726922E+03	1.742186E-02	6.711195E-05
5.736847E+03	1.754720E-02	6.752921E-05
5.746773E+03	1.767704E-02	6.796373E-05
5.756698E+03	1.781032E-02	6.841137E-05
5.766623E+03	1.794546E-02	6.886607E-05
5.776549E+03	1.808092E-02	6.932198E-05
5.786474E+03	1.821508E-02	6.977292E-05
5.796399E+03	1.834629E-02	7.021264E-05
5.806325E+03	1.847292E-02	7.063495E-05
5.816250E+03	1.859339E-02	7.103389E-05
5.826176E+03	1.870627E-02	7.140416E-05
5.836101E+03	1.881027E-02	7.174091E-05
5.846026E+03	1.890409E-02	7.203936E-05
5.855952E+03	1.898706E-02	7.229699E-05
5.865877E+03	1.905845E-02	7.251128E-05
5.875802E+03	1.911738E-02	7.267894E-05
5.885728E+03	1.916389E-02	7.280032E-05
5.895653E+03	1.919762E-02	7.287415E-05
5.905578E+03	1.921833E-02	7.289966E-05
5.915504E+03	1.922630E-02	7.287807E-05
5.925429E+03	1.922154E-02	7.280949E-05
5.935354E+03	1.920451E-02	7.269589E-05
5.945280E+03	1.917527E-02	7.253748E-05
5.955205E+03	1.913448E-02	7.233697E-05
5.965130E+03	1.908277E-02	7.209678E-05
5.975056E+03	1.902086E-02	7.181973E-05
5.984981E+03	1.894916E-02	7.150745E-05
5.994906E+03	1.886898E-02	7.116495E-05
6.004832E+03	1.878093E-02	7.079455E-05
6.014757E+03	1.868644E-02	7.040174E-05
6.024682E+03	1.858623E-02	6.998926E-05
6.034608E+03	1.848177E-02	6.956264E-05
6.044533E+03	1.837381E-02	6.912473E-05
6.054458E+03	1.826361E-02	6.868030E-05
6.064384E+03	1.815240E-02	6.823400E-05
6.074309E+03	1.804122E-02	6.778966E-05
6.084234E+03	1.793107E-02	6.735110E-05
6.094160E+03	1.782297E-02	6.692211E-05
6.104085E+03	1.771814E-02	6.650724E-05
6.114010E+03	1.761784E-02	6.611121E-05
6.123936E+03	1.752339E-02	6.573898E-05
6.133861E+03	1.743598E-02	6.539494E-05
6.143786E+03	1.735705E-02	6.508453E-05
6.153712E+03	1.728776E-02	6.481200E-05
6.163637E+03	1.722962E-02	6.458300E-05
6.173562E+03	1.718363E-02	6.440132E-05
6.183488E+03	1.715113E-02	6.427191E-05
6.193413E+03	1.713319E-02	6.419882E-05
6.203338E+03	1.713102E-02	6.418652E-05
6.213264E+03	1.714547E-02	6.423826E-05
6.223189E+03	1.717771E-02	6.435842E-05
6.233115E+03	1.722838E-02	6.454937E-05
6.243040E+03	1.729804E-02	6.481329E-05
6.252965E+03	1.738756E-02	6.515341E-05
6.262891E+03	1.749733E-02	6.557124E-05
6.272816E+03	1.762815E-02	6.606977E-05
6.282741E+03	1.778037E-02	6.665038E-05
6.292667E+03	1.795431E-02	6.731436E-05
6.302592E+03	1.815085E-02	6.806504E-05
6.312517E+03	1.836999E-02	6.890255E-05
6.322443E+03	1.861207E-02	6.982821E-05
6.332368E+03	1.887723E-02	7.084272E-05
6.342293E+03	1.916545E-02	7.194610E-05
6.352219E+03	1.947644E-02	7.313737E-05
6.362144E+03	1.980938E-02	7.441361E-05
6.372069E+03	2.016328E-02	7.577127E-05
6.381995E+03	2.053676E-02	7.720534E-05
6.391920E+03	2.092799E-02	7.870901E-05
6.401845E+03	2.133463E-02	8.027375E-05
6.411771E+03	2.175392E-02	8.188923E-05
6.421696E+03	2.218255E-02	8.354317E-05
6.431621E+03	2.261733E-02	8.522367E-05
6.441547E+03	2.305416E-02	8.691538E-05
6.451472E+03	2.348883E-02	8.860253E-05
6.461397E+03	2.391688E-02	9.026835E-05
6.471323E+03	2.433369E-02	9.189537E-05
6.481248E+03	2.473394E-02	9.346357E-05
6.491173E+03	2.511319E-02	9.495600E-05
6.501099E+03	2.546656E-02	9.635419E-05
6.511024E+03	2.578943E-02	9.764048E-05
6.520949E+03	2.607755E-02	9.879856E-05
6.530875E+03	2.632782E-02	9.981644E-05
6.540800E+03	2.653655E-02	1.006798E-04
6.550725E+03	2.670232E-02	1.013831E-04
6.560651E+03	2.682329E-02	1.019188E-04
6.570576E+03	2.689874E-02	1.022838E-04
6.580501E+03	2.692875E-02	1.024781E-04
6.590427E+03	2.691462E-02	1.025061E-04
6.600352E+03	2.685829E-02	1.023749E-04
6.610277E+03	2.676178E-02	1.020916E-04
6.620203E+03	2.662793E-02	1.016667E-04
6.630128E+03	2.646072E-02	1.011150E-04
6.640054E+03	2.626314E-02	1.004476E-04
6.649979E+03	2.603940E-02	9.968010E-05
6.659904E+03	2.579382E-02	9.882887E-05
6.669830E+03	2.552977E-02	9.790651E-05
6.679755E+03	2.525220E-02	9.693169E-05
6.689680E+03	2.496426E-02	9.591639E-05
6.699606E+03	2.466962E-02	9.487444E-05
6.709531E+03	2.437228E-02	9.382119E-05
6.719456E+03	2.407472E-02	9.276604E-05
6.729382E+03	2.378005E-02	9.172095E-05
6.739307E+03	2.349074E-02	9.069539E-05
6.749232E+03	2.320893E-02	8.969768E-05
6.759158E+03	2.293645E-02	8.873487E-05
6.769083E+03	2.267512E-02	8.781406E-05
6.779008E+03	2.242555E-02	8.693772E-05
6.788934E+03	2.218928E-02	8.611194E-05
6.798859E+03	2.196672E-02	8.533836E-05
6.808784E+03	2.175836E-02	8.461904E-05
6.818710E+03	2.156449E-02	8.395528E-05
6.828635E+03	2.138529E-02	8.334782E-05
6.838560E+03	2.122105E-02	8.279805E-05
6.848486E+03	2.107144E-02	8.230475E-05
6.858411E+03	2.093628E-02	8.186744E-05
6.868336E+03	2.081566E-02	8.148656E-05
6.878262E+03	2.070871E-02	8.115890E-05
6.888187E+03	2.061568E-02	8.088555E-05
6.898112E+03	2.053587E-02	8.066397E-05
6.908038E+03	2.046882E-02	8.049248E-05
6.917963E+03	2.041403E-02	8.036930E-05
6.927888E+03	2.037098E-02	8.029246E-05
6.937814E+03	2.033937E-02	8.026090E-05
6.947739E+03	2.031799E-02	8.027009E-05
6.957664E+03	2.030648E-02	8.031864E-05
6.967590E+03	2.030446E-02	8.040515E-05
6.977515E+03	2.031061E-02	8.052457E-05
6.987440E+03	2.032419E-02	8.067405E-05
6.997366E+03	2.034504E-02	8.085297E-05
7.007291E+03	2.037172E-02	8.105577E-05
7.017216E+03	2.040375E-02	8.128062E-05
7.027142E+03	2.044030E-02	8.152418E-05
7.037067E+03	2.048024E-02	8.178206E-05
7.046993E+03	2.052277E-02	8.205111E-05
7.056918E+03	2.056741E-02	8.232939E-05
7.066843E+03	2.061314E-02	8.261282E-05
7.076769E+03	2.065926E-02	8.289864E-05
7.086694E+03	2.070514E-02	8.318430E-05
7.096619E+03	2.075056E-02	8.346892E-05
7.106545E+03	2.079443E-02	8.374802E-05
7.116470E+03	2.083667E-02	8.402132E-05
7.126395E+03	2.087665E-02	8.428619E-05
7.136321E+03	2.091475E-02	8.454417E-05
7.146246E+03	2.094989E-02	8.479078E-05
7.156171E+03	2.098257E-02	8.502807E-05
7.166097E+03	2.101244E-02	8.525453E-05
7.176022E+03	2.103986E-02	8.547156E-05
7.185947E+03	2.106425E-02	8.567675E-05
7.195873E+03	2.108607E-02	8.587194E-05
7.205798E+03	2.110516E-02	8.605643E-05
7.215723E+03	2.112206E-02	8.623234E-05
7.225649E+03	2.113670E-02	8.639935E-05
7.235574E+03	2.114969E-02	8.655992E-05
7.245499E+03	2.116068E-02	8.671258E-05
7.255425E+03	2.117029E-02	8.685984E-05
7.265350E+03	2.117888E-02	8.700312E-05
7.275275E+03	2.118643E-02	8.714234E-05
7.285201E+03	2.119327E-02	8.727881E-05
7.295126E+03	2.120003E-02	8.741515E-05
7.305051E+03	2.120638E-02	8.754992E-05
7.314977E+03	2.121292E-02	8.768562E-05
7.324902E+03	2.121961E-02	8.782207E-05
7.334827E+03	2.122702E-02	8.796161E-05
7.344753E+03	2.123472E-02	8.810250E-05
7.354678E+03	2.124323E-02	8.824687E-05
7.364603E+03	2.125242E-02	8.839417E-05
7.374529E+03	2.126242E-02	8.854495E-05
7.384454E+03	2.127337E-02	8.869983E-05
7.394379E+03	2.128574E-02	8.886071E-05
7.404305E+03	2.129894E-02	8.902519E-05
7.414230E+03	2.131408E-02	8.919793E-05
7.424156E+03	2.133059E-02	8.937652E-05
7.434081E+03	2.134890E-02	8.956279E-05
7.444006E+03	2.136910E-02	8.975716E-05
7.453932E+03	2.139165E-02	8.996155E-05
7.463857E+03	2.141632E-02	9.017505E-05
7.473782E+03	2.144357E-02	9.039960E-05
7.483708E+03	2.147354E-02	9.063581E-05
7.493633E+03	2.150633E-02	9.088419E-05
7.503558E+03	2.154209E-02	9.114536E-05
7.513484E+03	2.158094E-02	9.141990E-05
7.523409E+03	2.162333E-02	9.170976E-05
7.533334E+03	2.166902E-02	9.201392E-05
7.543260E+03	2.171845E-02	9.233434E-05
7.553185E+03	2.177133E-02	9.266982E-05
7.563110E+03	2.182807E-02	9.302216E-05
7.573036E+03	2.188872E-02	9.339157E-05
7.582961E+03	2.195330E-02	9.377826E-05
7.592886E+03	2.202182E-02	9.418232E-05
7.602812E+03	2.209429E-02	9.460381E-05
7.612737E+03	2.217068E-02	9.504263E-05
7.622662E+03	2.225095E-02	9.549871E-05
7.632588E+03	2.233538E-02	9.597332E-05
7.642513E+03	2.242314E-02	9.646290E-05
7.652438E+03	2.251481E-02	9.696998E-05
7.662364E+03	2.260982E-02	9.749216E-05
7.672289E+03	2.270787E-02	9.802827E-05
7.682214E+03	2.280864E-02	9.857684E-05
7.692140E+03	2.291169E-02	9.913608E-05
7.702065E+03	2.301657E-02	9.970402E-05
