#wls	flux	fluxerr
1.588055E+03	5.927070E-04	6.012583E-05
1.627756E+03	5.943205E-04	6.005441E-05
1.667457E+03	5.960509E-04	5.998797E-05
1.707159E+03	5.978937E-04	5.992575E-05
1.746860E+03	5.998438E-04	5.986694E-05
1.786561E+03	6.020011E-04	5.982117E-05
1.826263E+03	6.042551E-04	5.977707E-05
1.865964E+03	6.067044E-04	5.974404E-05
1.905666E+03	6.093429E-04	5.972103E-05
1.945367E+03	6.121636E-04	5.970689E-05
1.985068E+03	6.151595E-04	5.970049E-05
2.024770E+03	6.184268E-04	5.971065E-05
2.064471E+03	6.219568E-04	5.973592E-05
2.104172E+03	6.257407E-04	5.977480E-05
2.143874E+03	6.297690E-04	5.982577E-05
2.183575E+03	6.341343E-04	5.989692E-05
2.223277E+03	6.388252E-04	5.998637E-05
2.262978E+03	6.438300E-04	6.009219E-05
2.302679E+03	6.492375E-04	6.022179E-05
2.342381E+03	6.550339E-04	6.037288E-05
2.382082E+03	6.613045E-04	6.055224E-05
2.421783E+03	6.680328E-04	6.075718E-05
2.461485E+03	6.753008E-04	6.099386E-05
2.501186E+03	6.829912E-04	6.125034E-05
2.540887E+03	6.913790E-04	6.154988E-05
2.580589E+03	7.002462E-04	6.187139E-05
2.620290E+03	7.098616E-04	6.223700E-05
2.659992E+03	7.201987E-04	6.264235E-05
2.699693E+03	7.312297E-04	6.308301E-05
2.739394E+03	7.431158E-04	6.357072E-05
2.779096E+03	7.559184E-04	6.410820E-05
2.818797E+03	7.696023E-04	6.468982E-05
2.858498E+03	7.843169E-04	6.532532E-05
2.898200E+03	8.001132E-04	6.601581E-05
2.937901E+03	8.170396E-04	6.676192E-05
2.977602E+03	8.353210E-04	6.757829E-05
2.987528E+03	8.400717E-04	6.779033E-05
2.997453E+03	8.448750E-04	6.800388E-05
3.007378E+03	8.498200E-04	6.822602E-05
3.017304E+03	8.548159E-04	6.844938E-05
3.027229E+03	8.599513E-04	6.868101E-05
3.037155E+03	8.651362E-04	6.891361E-05
3.047080E+03	8.704586E-04	6.915413E-05
3.057005E+03	8.758286E-04	6.939536E-05
3.066931E+03	8.813342E-04	6.964420E-05
3.076856E+03	8.868858E-04	6.989347E-05
3.086781E+03	8.925708E-04	7.015002E-05
3.096707E+03	8.983881E-04	7.041364E-05
3.106632E+03	9.042487E-04	7.067728E-05
3.116557E+03	9.102396E-04	7.094767E-05
3.126483E+03	9.163594E-04	7.122460E-05
3.136408E+03	9.226070E-04	7.150789E-05
3.146333E+03	9.288945E-04	7.179063E-05
3.156259E+03	9.353078E-04	7.207940E-05
3.166184E+03	9.418457E-04	7.237401E-05
3.176109E+03	9.485931E-04	7.268086E-05
3.186035E+03	9.553764E-04	7.298653E-05
3.195960E+03	9.622809E-04	7.329747E-05
3.205885E+03	9.693052E-04	7.361348E-05
3.215811E+03	9.764484E-04	7.393437E-05
3.225736E+03	9.837092E-04	7.425995E-05
3.235661E+03	9.911712E-04	7.459643E-05
3.245587E+03	9.986636E-04	7.493081E-05
3.255512E+03	1.006355E-03	7.527563E-05
3.265437E+03	1.014158E-03	7.562435E-05
3.275363E+03	1.022158E-03	7.598300E-05
3.285288E+03	1.030183E-03	7.633890E-05
3.295213E+03	1.038486E-03	7.671049E-05
3.305139E+03	1.046812E-03	7.707896E-05
3.315064E+03	1.055413E-03	7.746259E-05
3.324989E+03	1.064034E-03	7.784267E-05
3.334915E+03	1.072926E-03	7.823736E-05
3.344840E+03	1.081921E-03	7.863429E-05
3.354765E+03	1.091100E-03	7.903915E-05
3.364691E+03	1.100379E-03	7.944585E-05
3.374616E+03	1.109839E-03	7.985997E-05
3.384541E+03	1.119479E-03	8.028138E-05
3.394467E+03	1.129379E-03	8.071560E-05
3.404392E+03	1.139294E-03	8.114491E-05
3.414318E+03	1.149464E-03	8.158649E-05
3.424243E+03	1.159808E-03	8.203419E-05
3.434168E+03	1.170406E-03	8.249361E-05
3.444094E+03	1.181094E-03	8.295295E-05
3.454019E+03	1.191952E-03	8.341775E-05
3.463944E+03	1.203057E-03	8.389326E-05
3.473870E+03	1.214330E-03	8.437373E-05
3.483795E+03	1.225848E-03	8.486431E-05
3.493720E+03	1.237530E-03	8.535920E-05
3.503646E+03	1.249374E-03	8.585821E-05
3.513571E+03	1.261459E-03	8.636645E-05
3.523496E+03	1.273783E-03	8.688366E-05
3.533422E+03	1.286265E-03	8.740413E-05
3.543347E+03	1.298983E-03	8.793297E-05
3.553272E+03	1.311936E-03	8.846982E-05
3.563198E+03	1.325121E-03	8.901442E-05
3.573123E+03	1.338461E-03	8.956124E-05
3.583048E+03	1.352108E-03	9.012036E-05
3.592974E+03	1.365907E-03	9.068117E-05
3.602899E+03	1.380010E-03	9.125362E-05
3.612824E+03	1.394340E-03	9.183232E-05
3.622750E+03	1.408896E-03	9.241698E-05
3.632675E+03	1.423676E-03	9.300727E-05
3.642600E+03	1.438754E-03	9.360784E-05
3.652526E+03	1.454055E-03	9.421354E-05
3.662451E+03	1.469577E-03	9.482399E-05
3.672376E+03	1.485394E-03	9.544377E-05
3.682302E+03	1.501507E-03	9.607262E-05
3.692227E+03	1.517836E-03	9.670528E-05
3.702152E+03	1.534460E-03	9.734638E-05
3.712078E+03	1.551301E-03	9.799085E-05
3.722003E+03	1.568432E-03	9.864309E-05
3.731928E+03	1.585855E-03	9.930286E-05
3.741854E+03	1.603569E-03	9.996981E-05
3.751779E+03	1.621571E-03	1.006436E-04
3.761704E+03	1.639863E-03	1.013240E-04
3.771630E+03	1.658444E-03	1.020106E-04
3.781555E+03	1.677315E-03	1.027033E-04
3.791480E+03	1.696401E-03	1.033973E-04
3.801406E+03	1.715849E-03	1.041012E-04
3.811331E+03	1.735661E-03	1.048148E-04
3.821257E+03	1.755689E-03	1.055289E-04
3.831182E+03	1.776081E-03	1.062521E-04
3.841107E+03	1.796691E-03	1.069754E-04
3.851033E+03	1.817739E-03	1.077115E-04
3.860958E+03	1.839007E-03	1.084474E-04
3.870883E+03	1.860643E-03	1.091913E-04
3.880809E+03	1.882574E-03	1.099388E-04
3.890734E+03	1.904804E-03	1.106896E-04
3.900659E+03	1.927403E-03	1.114478E-04
3.910585E+03	1.950235E-03	1.122049E-04
3.920510E+03	1.973512E-03	1.129730E-04
3.930435E+03	1.997026E-03	1.137398E-04
3.940361E+03	2.020918E-03	1.145131E-04
3.950286E+03	2.045124E-03	1.152888E-04
3.960211E+03	2.069646E-03	1.160668E-04
3.970137E+03	2.094557E-03	1.168510E-04
3.980062E+03	2.119721E-03	1.176333E-04
3.989987E+03	2.145283E-03	1.184216E-04
3.999913E+03	2.171177E-03	1.192118E-04
4.009838E+03	2.197337E-03	1.200000E-04
4.019763E+03	2.223909E-03	1.207940E-04
4.029689E+03	2.250760E-03	1.215861E-04
4.039614E+03	2.277963E-03	1.223800E-04
4.049539E+03	2.305525E-03	1.231759E-04
4.059465E+03	2.333385E-03	1.239700E-04
4.069390E+03	2.361617E-03	1.247660E-04
4.079315E+03	2.390092E-03	1.255570E-04
4.089241E+03	2.418954E-03	1.263500E-04
4.099166E+03	2.448214E-03	1.271454E-04
4.109091E+03	2.477672E-03	1.279325E-04
4.119017E+03	2.507543E-03	1.287223E-04
4.128942E+03	2.537701E-03	1.295077E-04
4.138867E+03	2.568225E-03	1.302927E-04
4.148793E+03	2.599055E-03	1.310740E-04
4.158718E+03	2.630135E-03	1.318483E-04
4.168643E+03	2.661614E-03	1.326231E-04
4.178569E+03	2.693366E-03	1.333916E-04
4.188494E+03	2.725474E-03	1.341578E-04
4.198419E+03	2.757813E-03	1.349152E-04
4.208345E+03	2.790535E-03	1.356712E-04
4.218270E+03	2.823515E-03	1.364193E-04
4.228196E+03	2.856837E-03	1.371635E-04
4.238121E+03	2.890451E-03	1.379009E-04
4.248046E+03	2.924369E-03	1.386321E-04
4.257972E+03	2.958542E-03	1.393546E-04
4.267897E+03	2.993054E-03	1.400720E-04
4.277822E+03	3.027855E-03	1.407818E-04
4.287748E+03	3.062895E-03	1.414816E-04
4.297673E+03	3.098327E-03	1.421782E-04
4.307598E+03	3.133969E-03	1.428631E-04
4.317524E+03	3.169974E-03	1.435431E-04
4.327449E+03	3.206227E-03	1.442128E-04
4.337374E+03	3.242817E-03	1.448761E-04
4.347300E+03	3.279696E-03	1.455307E-04
4.357225E+03	3.316886E-03	1.461774E-04
4.367150E+03	3.354340E-03	1.468140E-04
4.377076E+03	3.392151E-03	1.474445E-04
4.387001E+03	3.430201E-03	1.480635E-04
4.396926E+03	3.468652E-03	1.486781E-04
4.406852E+03	3.507389E-03	1.492831E-04
4.416777E+03	3.546436E-03	1.498795E-04
4.426702E+03	3.585816E-03	1.504680E-04
4.436628E+03	3.625621E-03	1.510526E-04
4.446553E+03	3.665670E-03	1.516254E-04
4.456478E+03	3.706121E-03	1.521930E-04
4.466404E+03	3.746931E-03	1.527536E-04
4.476329E+03	3.788122E-03	1.533078E-04
4.486254E+03	3.829716E-03	1.538567E-04
4.496180E+03	3.871667E-03	1.543981E-04
4.506105E+03	3.914065E-03	1.549357E-04
4.516030E+03	3.956861E-03	1.554674E-04
4.525956E+03	4.000006E-03	1.559912E-04
4.535881E+03	4.043659E-03	1.565133E-04
4.545806E+03	4.087767E-03	1.570316E-04
4.555732E+03	4.132275E-03	1.575440E-04
4.565657E+03	4.177268E-03	1.580537E-04
4.575582E+03	4.222688E-03	1.585583E-04
4.585508E+03	4.268544E-03	1.590584E-04
4.595433E+03	4.314916E-03	1.595569E-04
4.605358E+03	4.361734E-03	1.600513E-04
4.615284E+03	4.409077E-03	1.605443E-04
4.625209E+03	4.456794E-03	1.610308E-04
4.635135E+03	4.505024E-03	1.615157E-04
4.645060E+03	4.553612E-03	1.619936E-04
4.654985E+03	4.602688E-03	1.624694E-04
4.664911E+03	4.652159E-03	1.629400E-04
4.674836E+03	4.701923E-03	1.634019E-04
4.684761E+03	4.752099E-03	1.638597E-04
4.694687E+03	4.802573E-03	1.643097E-04
4.704612E+03	4.853378E-03	1.647534E-04
4.714537E+03	4.904308E-03	1.651843E-04
4.724463E+03	4.955460E-03	1.656061E-04
4.734388E+03	5.006693E-03	1.660147E-04
4.744313E+03	5.058014E-03	1.664109E-04
4.754239E+03	5.109268E-03	1.667903E-04
4.764164E+03	5.160375E-03	1.671511E-04
4.774089E+03	5.211409E-03	1.674965E-04
4.784015E+03	5.262129E-03	1.678197E-04
4.793940E+03	5.312529E-03	1.681215E-04
4.803865E+03	5.362531E-03	1.684004E-04
4.813791E+03	5.412066E-03	1.686554E-04
4.823716E+03	5.461159E-03	1.688885E-04
4.833641E+03	5.509690E-03	1.690971E-04
4.843567E+03	5.557637E-03	1.692818E-04
4.853492E+03	5.605087E-03	1.694464E-04
4.863417E+03	5.652145E-03	1.695952E-04
4.873343E+03	5.698598E-03	1.697232E-04
4.883268E+03	5.744840E-03	1.698432E-04
4.893193E+03	5.790684E-03	1.699506E-04
4.903119E+03	5.836374E-03	1.700539E-04
4.913044E+03	5.881903E-03	1.701536E-04
4.922969E+03	5.927443E-03	1.702559E-04
4.932895E+03	5.972990E-03	1.703614E-04
4.942820E+03	6.018804E-03	1.704782E-04
4.952745E+03	6.064880E-03	1.706071E-04
4.962671E+03	6.111213E-03	1.707486E-04
4.972596E+03	6.158145E-03	1.709128E-04
4.982521E+03	6.205484E-03	1.710951E-04
4.992447E+03	6.253479E-03	1.713021E-04
5.002372E+03	6.302197E-03	1.715350E-04
5.012297E+03	6.351702E-03	1.717950E-04
5.022223E+03	6.401961E-03	1.720804E-04
5.032148E+03	6.453121E-03	1.723943E-04
5.042074E+03	6.505326E-03	1.727399E-04
5.051999E+03	6.558439E-03	1.731125E-04
5.061924E+03	6.612689E-03	1.735172E-04
5.071850E+03	6.668026E-03	1.739518E-04
5.081775E+03	6.724486E-03	1.744162E-04
5.091700E+03	6.782102E-03	1.749102E-04
5.101626E+03	6.841003E-03	1.754361E-04
5.111551E+03	6.901123E-03	1.759909E-04
5.121476E+03	6.962486E-03	1.765743E-04
5.131402E+03	7.025214E-03	1.771880E-04
5.141327E+03	7.089332E-03	1.778316E-04
5.151252E+03	7.154760E-03	1.785017E-04
5.161178E+03	7.221515E-03	1.791975E-04
5.171103E+03	7.289612E-03	1.799180E-04
5.181028E+03	7.359168E-03	1.806650E-04
5.190954E+03	7.430195E-03	1.814372E-04
5.200879E+03	7.502500E-03	1.822286E-04
5.210804E+03	7.576297E-03	1.830430E-04
5.220730E+03	7.651493E-03	1.838767E-04
5.230655E+03	7.728092E-03	1.847284E-04
5.240580E+03	7.806208E-03	1.855993E-04
5.250506E+03	7.885629E-03	1.864828E-04
5.260431E+03	7.966466E-03	1.873802E-04
5.270356E+03	8.048721E-03	1.882898E-04
5.280282E+03	8.132392E-03	1.892102E-04
5.290207E+03	8.217482E-03	1.901397E-04
5.300132E+03	8.303990E-03	1.910766E-04
5.310058E+03	8.391797E-03	1.920167E-04
5.319983E+03	8.481013E-03	1.929608E-04
5.329908E+03	8.571521E-03	1.939046E-04
5.339834E+03	8.663427E-03	1.948487E-04
5.349759E+03	8.756609E-03	1.957888E-04
5.359684E+03	8.851055E-03	1.967227E-04
5.369610E+03	8.946878E-03	1.976513E-04
5.379535E+03	9.043948E-03	1.985699E-04
5.389460E+03	9.142252E-03	1.994763E-04
5.399386E+03	9.241778E-03	2.003687E-04
5.409311E+03	9.342638E-03	2.012475E-04
5.419237E+03	9.444693E-03	2.021078E-04
5.429162E+03	9.547800E-03	2.029449E-04
5.439087E+03	9.652198E-03	2.037618E-04
5.449013E+03	9.757877E-03	2.045565E-04
5.458938E+03	9.864555E-03	2.053212E-04
5.468863E+03	9.972478E-03	2.060589E-04
5.478789E+03	1.008150E-02	2.067648E-04
5.488714E+03	1.019173E-02	2.074392E-04
5.498639E+03	1.030288E-02	2.080742E-04
5.508565E+03	1.041534E-02	2.086759E-04
5.518490E+03	1.052882E-02	2.092361E-04
5.528415E+03	1.064343E-02	2.097554E-04
5.538341E+03	1.075902E-02	2.102285E-04
5.548266E+03	1.087585E-02	2.106587E-04
5.558191E+03	1.099361E-02	2.110378E-04
5.568117E+03	1.111257E-02	2.113690E-04
5.578042E+03	1.123256E-02	2.116472E-04
5.587967E+03	1.135356E-02	2.118698E-04
5.597893E+03	1.147571E-02	2.120372E-04
5.607818E+03	1.159881E-02	2.121441E-04
5.617743E+03	1.172302E-02	2.121909E-04
5.627669E+03	1.184830E-02	2.121752E-04
5.637594E+03	1.197463E-02	2.120944E-04
5.647519E+03	1.210199E-02	2.119462E-04
5.657445E+03	1.223052E-02	2.117309E-04
5.667370E+03	1.235986E-02	2.114404E-04
5.677295E+03	1.249032E-02	2.110779E-04
5.687221E+03	1.262188E-02	2.106411E-04
5.697146E+03	1.275433E-02	2.101247E-04
5.707071E+03	1.288782E-02	2.095290E-04
5.716997E+03	1.302232E-02	2.088517E-04
5.726922E+03	1.315781E-02	2.080906E-04
5.736847E+03	1.329423E-02	2.072430E-04
5.746773E+03	1.343158E-02	2.063071E-04
5.756698E+03	1.356977E-02	2.052800E-04
5.766623E+03	1.370881E-02	2.041599E-04
5.776549E+03	1.384861E-02	2.029443E-04
5.786474E+03	1.398935E-02	2.016342E-04
5.796399E+03	1.413075E-02	2.002242E-04
5.806325E+03	1.427275E-02	1.987125E-04
5.816250E+03	1.441552E-02	1.971001E-04
5.826176E+03	1.455875E-02	1.953821E-04
5.836101E+03	1.470258E-02	1.935594E-04
5.846026E+03	1.484673E-02	1.916278E-04
5.855952E+03	1.499108E-02	1.895856E-04
5.865877E+03	1.513574E-02	1.874340E-04
5.875802E+03	1.528039E-02	1.851694E-04
5.885728E+03	1.542489E-02	1.827907E-04
5.895653E+03	1.556931E-02	1.802997E-04
5.905578E+03	1.571329E-02	1.776932E-04
5.915504E+03	1.585687E-02	1.749738E-04
5.925429E+03	1.599941E-02	1.721366E-04
5.935354E+03	1.614115E-02	1.691871E-04
5.945280E+03	1.628164E-02	1.661241E-04
5.955205E+03	1.642063E-02	1.629494E-04
5.965130E+03	1.655785E-02	1.596655E-04
5.975056E+03	1.669299E-02	1.562755E-04
5.984981E+03	1.682597E-02	1.527857E-04
5.994906E+03	1.695598E-02	1.491971E-04
6.004832E+03	1.708266E-02	1.455161E-04
6.014757E+03	1.720604E-02	1.417546E-04
6.024682E+03	1.732552E-02	1.379203E-04
6.034608E+03	1.744036E-02	1.340222E-04
6.044533E+03	1.755012E-02	1.300742E-04
6.054458E+03	1.765480E-02	1.260959E-04
6.064384E+03	1.775338E-02	1.221024E-04
6.074309E+03	1.784540E-02	1.181157E-04
6.084234E+03	1.793055E-02	1.141630E-04
6.094160E+03	1.800811E-02	1.102721E-04
6.104085E+03	1.807759E-02	1.064767E-04
6.114010E+03	1.813877E-02	1.028160E-04
6.123936E+03	1.819099E-02	9.933119E-05
6.133861E+03	1.823418E-02	9.607036E-05
6.143786E+03	1.826750E-02	9.308083E-05
6.153712E+03	1.829129E-02	9.041811E-05
6.163637E+03	1.830520E-02	8.813419E-05
6.173562E+03	1.830920E-02	8.628040E-05
6.183488E+03	1.830341E-02	8.490353E-05
6.193413E+03	1.828804E-02	8.404210E-05
6.203338E+03	1.826367E-02	8.372457E-05
6.213264E+03	1.823016E-02	8.395161E-05
6.223189E+03	1.818856E-02	8.469958E-05
6.233115E+03	1.813914E-02	8.592853E-05
6.243040E+03	1.808252E-02	8.759166E-05
6.252965E+03	1.801931E-02	8.963733E-05
6.262891E+03	1.795020E-02	9.201255E-05
6.272816E+03	1.787608E-02	9.466652E-05
6.282741E+03	1.779737E-02	9.754893E-05
6.292667E+03	1.771471E-02	1.006147E-04
6.302592E+03	1.762870E-02	1.038232E-04
6.312517E+03	1.754023E-02	1.071409E-04
6.322443E+03	1.744957E-02	1.105352E-04
6.332368E+03	1.735727E-02	1.139799E-04
6.342293E+03	1.726408E-02	1.174544E-04
6.352219E+03	1.717043E-02	1.209399E-04
6.362144E+03	1.707647E-02	1.244190E-04
6.372069E+03	1.698288E-02	1.278809E-04
6.381995E+03	1.688992E-02	1.313145E-04
6.391920E+03	1.679771E-02	1.347097E-04
6.401845E+03	1.670671E-02	1.380611E-04
6.411771E+03	1.661717E-02	1.413632E-04
6.421696E+03	1.652928E-02	1.446116E-04
6.431621E+03	1.644346E-02	1.478049E-04
6.441547E+03	1.635933E-02	1.509359E-04
6.451472E+03	1.627753E-02	1.540072E-04
6.461397E+03	1.619787E-02	1.570147E-04
6.471323E+03	1.612067E-02	1.599598E-04
6.481248E+03	1.604575E-02	1.628394E-04
6.491173E+03	1.597337E-02	1.656552E-04
6.501099E+03	1.590353E-02	1.684070E-04
6.511024E+03	1.583602E-02	1.710922E-04
6.520949E+03	1.577128E-02	1.737157E-04
6.530875E+03	1.570884E-02	1.762726E-04
6.540800E+03	1.564913E-02	1.787682E-04
6.550725E+03	1.559187E-02	1.811999E-04
6.560651E+03	1.553701E-02	1.835678E-04
6.570576E+03	1.548477E-02	1.858751E-04
6.580501E+03	1.543506E-02	1.881220E-04
6.590427E+03	1.538762E-02	1.903059E-04
6.600352E+03	1.534260E-02	1.924298E-04
6.610277E+03	1.529995E-02	1.944938E-04
6.620203E+03	1.525959E-02	1.964980E-04
6.630128E+03	1.522149E-02	1.984429E-04
6.640054E+03	1.518557E-02	2.003284E-04
6.649979E+03	1.515200E-02	2.021578E-04
6.659904E+03	1.512047E-02	2.039280E-04
6.669830E+03	1.509095E-02	2.056393E-04
6.679755E+03	1.506359E-02	2.072947E-04
6.689680E+03	1.503834E-02	2.088945E-04
6.699606E+03	1.501493E-02	2.104355E-04
6.709531E+03	1.499374E-02	2.119244E-04
6.719456E+03	1.497428E-02	2.133548E-04
6.729382E+03	1.495671E-02	2.147297E-04
6.739307E+03	1.494123E-02	2.160530E-04
6.749232E+03	1.492733E-02	2.173178E-04
6.759158E+03	1.491543E-02	2.185311E-04
6.769083E+03	1.490528E-02	2.196898E-04
6.779008E+03	1.489680E-02	2.207937E-04
6.788934E+03	1.489022E-02	2.218466E-04
6.798859E+03	1.488526E-02	2.228451E-04
6.808784E+03	1.488191E-02	2.237896E-04
6.818710E+03	1.488035E-02	2.246834E-04
6.828635E+03	1.488035E-02	2.255237E-04
6.838560E+03	1.488210E-02	2.263139E-04
6.848486E+03	1.488561E-02	2.270547E-04
6.858411E+03	1.489059E-02	2.277424E-04
6.868336E+03	1.489705E-02	2.283774E-04
6.878262E+03	1.490519E-02	2.289636E-04
6.888187E+03	1.491504E-02	2.295018E-04
6.898112E+03	1.492658E-02	2.299923E-04
6.908038E+03	1.493929E-02	2.304276E-04
6.917963E+03	1.495393E-02	2.308200E-04
6.927888E+03	1.497000E-02	2.311622E-04
6.937814E+03	1.498749E-02	2.314547E-04
6.947739E+03	1.500666E-02	2.317020E-04
6.957664E+03	1.502752E-02	2.319048E-04
6.967590E+03	1.504981E-02	2.320597E-04
6.977515E+03	1.507355E-02	2.321676E-04
6.987440E+03	1.509875E-02	2.322291E-04
6.997366E+03	1.512567E-02	2.322492E-04
7.007291E+03	1.515406E-02	2.322244E-04
7.017216E+03	1.518421E-02	2.321598E-04
7.027142E+03	1.521562E-02	2.320486E-04
7.037067E+03	1.524854E-02	2.318955E-04
7.046993E+03	1.528301E-02	2.317016E-04
7.056918E+03	1.531929E-02	2.314721E-04
7.066843E+03	1.535663E-02	2.311963E-04
7.076769E+03	1.539583E-02	2.308872E-04
7.086694E+03	1.543637E-02	2.305383E-04
7.096619E+03	1.547856E-02	2.301551E-04
7.106545E+03	1.552214E-02	2.297350E-04
7.116470E+03	1.556739E-02	2.292834E-04
7.126395E+03	1.561406E-02	2.287981E-04
7.136321E+03	1.566216E-02	2.282808E-04
7.146246E+03	1.571146E-02	2.277294E-04
7.156171E+03	1.576249E-02	2.271537E-04
7.166097E+03	1.581498E-02	2.265514E-04
7.176022E+03	1.586869E-02	2.259212E-04
7.185947E+03	1.592387E-02	2.252688E-04
7.195873E+03	1.598054E-02	2.245966E-04
7.205798E+03	1.603839E-02	2.239031E-04
7.215723E+03	1.609743E-02	2.231907E-04
7.225649E+03	1.615763E-02	2.224622E-04
7.235574E+03	1.621895E-02	2.217200E-04
7.245499E+03	1.628164E-02	2.209708E-04
7.255425E+03	1.634509E-02	2.202099E-04
7.265350E+03	1.640952E-02	2.194441E-04
7.275275E+03	1.647457E-02	2.186727E-04
7.285201E+03	1.654043E-02	2.179025E-04
7.295126E+03	1.660702E-02	2.171370E-04
7.305051E+03	1.667391E-02	2.163755E-04
7.314977E+03	1.674096E-02	2.156215E-04
7.324902E+03	1.680830E-02	2.148821E-04
7.334827E+03	1.687546E-02	2.141571E-04
7.344753E+03	1.694222E-02	2.134498E-04
7.354678E+03	1.700806E-02	2.127601E-04
7.364603E+03	1.707329E-02	2.120987E-04
7.374529E+03	1.713733E-02	2.114652E-04
7.384454E+03	1.719985E-02	2.108630E-04
7.394379E+03	1.726019E-02	2.102912E-04
7.404305E+03	1.731859E-02	2.097604E-04
7.414230E+03	1.737401E-02	2.092660E-04
7.424156E+03	1.742634E-02	2.088145E-04
7.434081E+03	1.747511E-02	2.084081E-04
7.444006E+03	1.751958E-02	2.080459E-04
7.453932E+03	1.755964E-02	2.077343E-04
7.463857E+03	1.759483E-02	2.074756E-04
7.473782E+03	1.762487E-02	2.072733E-04
7.483708E+03	1.764917E-02	2.071278E-04
7.493633E+03	1.766789E-02	2.070471E-04
7.503558E+03	1.768105E-02	2.070371E-04
7.513484E+03	1.768845E-02	2.070974E-04
7.523409E+03	1.769094E-02	2.072338E-04
7.533334E+03	1.768823E-02	2.074371E-04
7.543260E+03	1.768069E-02	2.077057E-04
7.553185E+03	1.766936E-02	2.080455E-04
7.563110E+03	1.765407E-02	2.084473E-04
7.573036E+03	1.763556E-02	2.089129E-04
7.582961E+03	1.761423E-02	2.094397E-04
7.592886E+03	1.759051E-02	2.100254E-04
7.602812E+03	1.756477E-02	2.106669E-04
7.612737E+03	1.753705E-02	2.113571E-04
7.622662E+03	1.750798E-02	2.120963E-04
7.632588E+03	1.747787E-02	2.128809E-04
7.642513E+03	1.744698E-02	2.137071E-04
7.652438E+03	1.741555E-02	2.145708E-04
7.662364E+03	1.738380E-02	2.154679E-04
7.672289E+03	1.735160E-02	2.163905E-04
7.682214E+03	1.731945E-02	2.173384E-04
7.692140E+03	1.728748E-02	2.183073E-04
7.702065E+03	1.725585E-02	2.192932E-04
