#wls	flux	fluxerr
1.591660E+03	3.318154E-16	1.022636E-17
1.631451E+03	3.424176E-16	1.054136E-17
1.671243E+03	3.527620E-16	1.084742E-17
1.711034E+03	3.627640E-16	1.114192E-17
1.750826E+03	3.723214E-16	1.142174E-17
1.790617E+03	3.811689E-16	1.167878E-17
1.830409E+03	3.887961E-16	1.189746E-17
1.870200E+03	3.947527E-16	1.206413E-17
1.909992E+03	3.984507E-16	1.216104E-17
1.949783E+03	3.994323E-16	1.217449E-17
1.989575E+03	3.976993E-16	1.210486E-17
2.029366E+03	3.943049E-16	1.198450E-17
2.069158E+03	3.917223E-16	1.188870E-17
2.108949E+03	3.936433E-16	1.192924E-17
2.148741E+03	4.038408E-16	1.221965E-17
2.188532E+03	4.243380E-16	1.281989E-17
2.228324E+03	4.547624E-16	1.371720E-17
2.268115E+03	4.929935E-16	1.484619E-17
2.307907E+03	5.364410E-16	1.612773E-17
2.347698E+03	5.830485E-16	1.749918E-17
2.387490E+03	6.316005E-16	1.892349E-17
2.427281E+03	6.816299E-16	2.038625E-17
2.467073E+03	7.332990E-16	2.189190E-17
2.506864E+03	7.870323E-16	2.345267E-17
2.546656E+03	8.435327E-16	2.508897E-17
2.586447E+03	9.035545E-16	2.682255E-17
2.626239E+03	9.679964E-16	2.867925E-17
2.666030E+03	1.037794E-15	3.068579E-17
2.705821E+03	1.113996E-15	3.287192E-17
2.745613E+03	1.197771E-15	3.527071E-17
2.785404E+03	1.290391E-15	3.791791E-17
2.825196E+03	1.393275E-15	4.085321E-17
2.864987E+03	1.508061E-15	4.412233E-17
2.904779E+03	1.636430E-15	4.777172E-17
2.944570E+03	1.780321E-15	5.185489E-17
2.984362E+03	1.941468E-15	5.641882E-17
2.994310E+03	1.984693E-15	5.764152E-17
3.004258E+03	2.029085E-15	5.889650E-17
3.014206E+03	2.074652E-15	6.018398E-17
3.024153E+03	2.121517E-15	6.150741E-17
3.034101E+03	2.169733E-15	6.286827E-17
3.044049E+03	2.219367E-15	6.426844E-17
3.053997E+03	2.270500E-15	6.571018E-17
3.063945E+03	2.323046E-15	6.719091E-17
3.073893E+03	2.376958E-15	6.870919E-17
3.083841E+03	2.432281E-15	7.026625E-17
3.093789E+03	2.488851E-15	7.185727E-17
3.103736E+03	2.546643E-15	7.348145E-17
3.113684E+03	2.605518E-15	7.513472E-17
3.123632E+03	2.665529E-15	7.681855E-17
3.133580E+03	2.726404E-15	7.852504E-17
3.143528E+03	2.788061E-15	8.025175E-17
3.153476E+03	2.850401E-15	8.199580E-17
3.163424E+03	2.913253E-15	8.375225E-17
3.173372E+03	2.976315E-15	8.551237E-17
3.183319E+03	3.039538E-15	8.727470E-17
3.193267E+03	3.102572E-15	8.902924E-17
3.203215E+03	3.165211E-15	9.077006E-17
3.213163E+03	3.227114E-15	9.248742E-17
3.223111E+03	3.288028E-15	9.417408E-17
3.233059E+03	3.347622E-15	9.582064E-17
3.243007E+03	3.405543E-15	9.741704E-17
3.252955E+03	3.461361E-15	9.895108E-17
3.262902E+03	3.514744E-15	1.004134E-16
3.272850E+03	3.565292E-15	1.017927E-16
3.282798E+03	3.612536E-15	1.030757E-16
3.292746E+03	3.656123E-15	1.042527E-16
3.302694E+03	3.695585E-15	1.053103E-16
3.312642E+03	3.730584E-15	1.062393E-16
3.322590E+03	3.760680E-15	1.070273E-16
3.332538E+03	3.785520E-15	1.076646E-16
3.342485E+03	3.804785E-15	1.081424E-16
3.352433E+03	3.818199E-15	1.084532E-16
3.362381E+03	3.825542E-15	1.085910E-16
3.372329E+03	3.826593E-15	1.085499E-16
3.382277E+03	3.821319E-15	1.083294E-16
3.392225E+03	3.809592E-15	1.079261E-16
3.402173E+03	3.791587E-15	1.073455E-16
3.412120E+03	3.767352E-15	1.065891E-16
3.422068E+03	3.737131E-15	1.056643E-16
3.432016E+03	3.701261E-15	1.045809E-16
3.441964E+03	3.660119E-15	1.033499E-16
3.451912E+03	3.614270E-15	1.019876E-16
3.461860E+03	3.564262E-15	1.005096E-16
3.471808E+03	3.510726E-15	9.893396E-17
3.481756E+03	3.454406E-15	9.728187E-17
3.491703E+03	3.396064E-15	9.557494E-17
3.501651E+03	3.336556E-15	9.383736E-17
3.511599E+03	3.276453E-15	9.208525E-17
3.521547E+03	3.216501E-15	9.033959E-17
3.531495E+03	3.157343E-15	8.861844E-17
3.541443E+03	3.099478E-15	8.693575E-17
3.551391E+03	3.043317E-15	8.530296E-17
3.561339E+03	2.989315E-15	8.373274E-17
3.571286E+03	2.937896E-15	8.223685E-17
3.581234E+03	2.889346E-15	8.082313E-17
3.591182E+03	2.844089E-15	7.950328E-17
3.601130E+03	2.802391E-15	7.828457E-17
3.611078E+03	2.764490E-15	7.717341E-17
3.621026E+03	2.730635E-15	7.617656E-17
3.630974E+03	2.700962E-15	7.529757E-17
3.640922E+03	2.675529E-15	7.453783E-17
3.650869E+03	2.654456E-15	7.390043E-17
3.660817E+03	2.637582E-15	7.338066E-17
3.670765E+03	2.624805E-15	7.297546E-17
3.680713E+03	2.615983E-15	7.268066E-17
3.690661E+03	2.610916E-15	7.249044E-17
3.700609E+03	2.609326E-15	7.239691E-17
3.710557E+03	2.610971E-15	7.239320E-17
3.720505E+03	2.615502E-15	7.246938E-17
3.730452E+03	2.622565E-15	7.261557E-17
3.740400E+03	2.631765E-15	7.282064E-17
3.750348E+03	2.642669E-15	7.307253E-17
3.760296E+03	2.654804E-15	7.335809E-17
3.770244E+03	2.667703E-15	7.366431E-17
3.780192E+03	2.680988E-15	7.398078E-17
3.790140E+03	2.694181E-15	7.429429E-17
3.800088E+03	2.706939E-15	7.459539E-17
3.810035E+03	2.718942E-15	7.487528E-17
3.819983E+03	2.729852E-15	7.512474E-17
3.829931E+03	2.739441E-15	7.533752E-17
3.839879E+03	2.747488E-15	7.550768E-17
3.849827E+03	2.753824E-15	7.563066E-17
3.859775E+03	2.758364E-15	7.570418E-17
3.869723E+03	2.760991E-15	7.572520E-17
3.879671E+03	2.761729E-15	7.569446E-17
3.889618E+03	2.760649E-15	7.561402E-17
3.899566E+03	2.757792E-15	7.548511E-17
3.909514E+03	2.753261E-15	7.531061E-17
3.919462E+03	2.747200E-15	7.509463E-17
3.929410E+03	2.739694E-15	7.483954E-17
3.939358E+03	2.730829E-15	7.454775E-17
3.949306E+03	2.720707E-15	7.422216E-17
3.959254E+03	2.709472E-15	7.386674E-17
3.969201E+03	2.697227E-15	7.348438E-17
3.979149E+03	2.684148E-15	7.307993E-17
3.989097E+03	2.670355E-15	7.265668E-17
3.999045E+03	2.655969E-15	7.221797E-17
4.008993E+03	2.641178E-15	7.176896E-17
4.018941E+03	2.625956E-15	7.130899E-17
4.028889E+03	2.610326E-15	7.083864E-17
4.038836E+03	2.594319E-15	7.035883E-17
4.048784E+03	2.577965E-15	6.987037E-17
4.058732E+03	2.561323E-15	6.937491E-17
4.068680E+03	2.544533E-15	6.887622E-17
4.078628E+03	2.527770E-15	6.837905E-17
4.088576E+03	2.511285E-15	6.789021E-17
4.098524E+03	2.495440E-15	6.741944E-17
4.108472E+03	2.480641E-15	6.697770E-17
4.118419E+03	2.467428E-15	6.657950E-17
4.128367E+03	2.456326E-15	6.623890E-17
4.138315E+03	2.447757E-15	6.596720E-17
4.148263E+03	2.442157E-15	6.577600E-17
4.158211E+03	2.439944E-15	6.567641E-17
4.168159E+03	2.441302E-15	6.567321E-17
4.178107E+03	2.446392E-15	6.577062E-17
4.188055E+03	2.455367E-15	6.597250E-17
4.198002E+03	2.468197E-15	6.627791E-17
4.207950E+03	2.484799E-15	6.668446E-17
4.217898E+03	2.505093E-15	6.718978E-17
4.227846E+03	2.528868E-15	6.778814E-17
4.237794E+03	2.555846E-15	6.847189E-17
4.247742E+03	2.585649E-15	6.923078E-17
4.257690E+03	2.617807E-15	7.005215E-17
4.267638E+03	2.651747E-15	7.092056E-17
4.277585E+03	2.686827E-15	7.181881E-17
4.287533E+03	2.722298E-15	7.272685E-17
4.297481E+03	2.757312E-15	7.362206E-17
4.307429E+03	2.791052E-15	7.448267E-17
4.317377E+03	2.822620E-15	7.528484E-17
4.327325E+03	2.851207E-15	7.600708E-17
4.337273E+03	2.875996E-15	7.662775E-17
4.347221E+03	2.896393E-15	7.713128E-17
4.357168E+03	2.911878E-15	7.750399E-17
4.367116E+03	2.922099E-15	7.773675E-17
4.377064E+03	2.927072E-15	7.783017E-17
4.387012E+03	2.927046E-15	7.779114E-17
4.396960E+03	2.922320E-15	7.762778E-17
4.406908E+03	2.913227E-15	7.734915E-17
4.416856E+03	2.900256E-15	7.696836E-17
4.426804E+03	2.883858E-15	7.649756E-17
4.436751E+03	2.864233E-15	7.594214E-17
4.446699E+03	2.841616E-15	7.530848E-17
4.456647E+03	2.816215E-15	7.460217E-17
4.466595E+03	2.788207E-15	7.382799E-17
4.476543E+03	2.757781E-15	7.299104E-17
4.486491E+03	2.725159E-15	7.209728E-17
4.496439E+03	2.690578E-15	7.115300E-17
4.506387E+03	2.654324E-15	7.016583E-17
4.516334E+03	2.616730E-15	6.914460E-17
4.526282E+03	2.578126E-15	6.809806E-17
4.536230E+03	2.538860E-15	6.703543E-17
4.546178E+03	2.499325E-15	6.596705E-17
4.556126E+03	2.459993E-15	6.490540E-17
4.566074E+03	2.421279E-15	6.386137E-17
4.576022E+03	2.383616E-15	6.284633E-17
4.585970E+03	2.347351E-15	6.186944E-17
4.595917E+03	2.312806E-15	6.093907E-17
4.605865E+03	2.280222E-15	6.006153E-17
4.615813E+03	2.249830E-15	5.924280E-17
4.625761E+03	2.221694E-15	5.848457E-17
4.635709E+03	2.196018E-15	5.779207E-17
4.645657E+03	2.172888E-15	5.716754E-17
4.655605E+03	2.152402E-15	5.661346E-17
4.665553E+03	2.134681E-15	5.613299E-17
4.675500E+03	2.119874E-15	5.572992E-17
4.685448E+03	2.108201E-15	5.541003E-17
4.695396E+03	2.099833E-15	5.517771E-17
4.705344E+03	2.094894E-15	5.503620E-17
4.715292E+03	2.093549E-15	5.498976E-17
4.725240E+03	2.095856E-15	5.503985E-17
4.735188E+03	2.101658E-15	5.518231E-17
4.745135E+03	2.110624E-15	5.540844E-17
4.755083E+03	2.122516E-15	5.571193E-17
4.765031E+03	2.136862E-15	5.608037E-17
4.774979E+03	2.153160E-15	5.650061E-17
4.784927E+03	2.171071E-15	5.696372E-17
4.794875E+03	2.190365E-15	5.746365E-17
4.804823E+03	2.210907E-15	5.799687E-17
4.814771E+03	2.232718E-15	5.856392E-17
4.824718E+03	2.255786E-15	5.916448E-17
4.834666E+03	2.280074E-15	5.979763E-17
4.844614E+03	2.305538E-15	6.046218E-17
4.854562E+03	2.332013E-15	6.115385E-17
4.864510E+03	2.359219E-15	6.186526E-17
4.874458E+03	2.386857E-15	6.258863E-17
4.884406E+03	2.414444E-15	6.331126E-17
4.894354E+03	2.441492E-15	6.402043E-17
4.904301E+03	2.467519E-15	6.470346E-17
4.914249E+03	2.492293E-15	6.535430E-17
4.924197E+03	2.515693E-15	6.596979E-17
4.934145E+03	2.537586E-15	6.654643E-17
4.944093E+03	2.558112E-15	6.708792E-17
4.954041E+03	2.577436E-15	6.759858E-17
4.963989E+03	2.595754E-15	6.808356E-17
4.973937E+03	2.613177E-15	6.854576E-17
4.983884E+03	2.629924E-15	6.899094E-17
4.993832E+03	2.646086E-15	6.942146E-17
5.003780E+03	2.661545E-15	6.983423E-17
5.013728E+03	2.676196E-15	7.022650E-17
5.023676E+03	2.689878E-15	7.059406E-17
5.033624E+03	2.702238E-15	7.092758E-17
5.043572E+03	2.712922E-15	7.121782E-17
5.053520E+03	2.721646E-15	7.145724E-17
5.063467E+03	2.728084E-15	7.163731E-17
5.073415E+03	2.732020E-15	7.175229E-17
5.083363E+03	2.733360E-15	7.179968E-17
5.093311E+03	2.731987E-15	7.177638E-17
5.103259E+03	2.728007E-15	7.168509E-17
5.113207E+03	2.721486E-15	7.152755E-17
5.123155E+03	2.712672E-15	7.131020E-17
5.133103E+03	2.701831E-15	7.103998E-17
5.143050E+03	2.689342E-15	7.072681E-17
5.152998E+03	2.675545E-15	7.037959E-17
5.162946E+03	2.660825E-15	7.000844E-17
5.172894E+03	2.645629E-15	6.962507E-17
5.182842E+03	2.630182E-15	6.923535E-17
5.192790E+03	2.614815E-15	6.884801E-17
5.202738E+03	2.599699E-15	6.846755E-17
5.212686E+03	2.584738E-15	6.809141E-17
5.222633E+03	2.569792E-15	6.771588E-17
5.232581E+03	2.554746E-15	6.733794E-17
5.242529E+03	2.539277E-15	6.694903E-17
5.252477E+03	2.523176E-15	6.654362E-17
5.262425E+03	2.506253E-15	6.611669E-17
5.272373E+03	2.488322E-15	6.566330E-17
5.282321E+03	2.469255E-15	6.518002E-17
5.292269E+03	2.449103E-15	6.466814E-17
5.302216E+03	2.427999E-15	6.413114E-17
5.312164E+03	2.406255E-15	6.357723E-17
5.322112E+03	2.384220E-15	6.301561E-17
5.332060E+03	2.362188E-15	6.245403E-17
5.342008E+03	2.340413E-15	6.189917E-17
5.351956E+03	2.319290E-15	6.136149E-17
5.361904E+03	2.299040E-15	6.084685E-17
5.371851E+03	2.279916E-15	6.036192E-17
5.381799E+03	2.262151E-15	5.991295E-17
5.391747E+03	2.245920E-15	5.950457E-17
5.401695E+03	2.231412E-15	5.914181E-17
5.411643E+03	2.218718E-15	5.882713E-17
5.421591E+03	2.207845E-15	5.856080E-17
5.431539E+03	2.198722E-15	5.834092E-17
5.441487E+03	2.191316E-15	5.816669E-17
5.451434E+03	2.185576E-15	5.803681E-17
5.461382E+03	2.181350E-15	5.794726E-17
5.471330E+03	2.178554E-15	5.789588E-17
5.481278E+03	2.176936E-15	5.787599E-17
5.491226E+03	2.176283E-15	5.788195E-17
5.501174E+03	2.176264E-15	5.790502E-17
5.511122E+03	2.176607E-15	5.793792E-17
5.521070E+03	2.176982E-15	5.797191E-17
5.531017E+03	2.177143E-15	5.800043E-17
5.540965E+03	2.176860E-15	5.801730E-17
5.550913E+03	2.175959E-15	5.801791E-17
5.560861E+03	2.174303E-15	5.799858E-17
5.570809E+03	2.172067E-15	5.796391E-17
5.580757E+03	2.169411E-15	5.791819E-17
5.590705E+03	2.166530E-15	5.786659E-17
5.600653E+03	2.163617E-15	5.781424E-17
5.610600E+03	2.160830E-15	5.776539E-17
5.620548E+03	2.158299E-15	5.772350E-17
5.630496E+03	2.155943E-15	5.768640E-17
5.640444E+03	2.153677E-15	5.765182E-17
5.650392E+03	2.151370E-15	5.761625E-17
5.660340E+03	2.148703E-15	5.757118E-17
5.670288E+03	2.145322E-15	5.750703E-17
5.680236E+03	2.140854E-15	5.741384E-17
5.690183E+03	2.134907E-15	5.728101E-17
5.700131E+03	2.126997E-15	5.709546E-17
5.710079E+03	2.116797E-15	5.684838E-17
5.720027E+03	2.104137E-15	5.653510E-17
5.729975E+03	2.088903E-15	5.615245E-17
5.739923E+03	2.071115E-15	5.570087E-17
5.749871E+03	2.051047E-15	5.518759E-17
5.759819E+03	2.029004E-15	5.462079E-17
5.769766E+03	2.005388E-15	5.401115E-17
5.779714E+03	1.980834E-15	5.337576E-17
5.789662E+03	1.955937E-15	5.273061E-17
5.799610E+03	1.931333E-15	5.209281E-17
5.809558E+03	1.907538E-15	5.147632E-17
5.819506E+03	1.885048E-15	5.089453E-17
5.829454E+03	1.864330E-15	5.036012E-17
5.839402E+03	1.845603E-15	4.987906E-17
5.849349E+03	1.829136E-15	4.945871E-17
5.859297E+03	1.815081E-15	4.910328E-17
5.869245E+03	1.803337E-15	4.881011E-17
5.879193E+03	1.793757E-15	4.857533E-17
5.889141E+03	1.786205E-15	4.839530E-17
5.899089E+03	1.780504E-15	4.826536E-17
5.909037E+03	1.776423E-15	4.817926E-17
5.918985E+03	1.773774E-15	4.813203E-17
5.928932E+03	1.772366E-15	4.811847E-17
5.938880E+03	1.771981E-15	4.813276E-17
5.948828E+03	1.772351E-15	4.816767E-17
5.958776E+03	1.773212E-15	4.821598E-17
5.968724E+03	1.774171E-15	4.826711E-17
5.978672E+03	1.775001E-15	4.831480E-17
5.988620E+03	1.775490E-15	4.835334E-17
5.998568E+03	1.775523E-15	4.837953E-17
6.008515E+03	1.775058E-15	4.839222E-17
6.018463E+03	1.774254E-15	4.839576E-17
6.028411E+03	1.773344E-15	4.839644E-17
6.038359E+03	1.772530E-15	4.839979E-17
6.048307E+03	1.772196E-15	4.841631E-17
6.058255E+03	1.772639E-15	4.845414E-17
6.068203E+03	1.774216E-15	4.852307E-17
6.078150E+03	1.777058E-15	4.862674E-17
6.088098E+03	1.781272E-15	4.876812E-17
6.098046E+03	1.786934E-15	4.894936E-17
6.107994E+03	1.793877E-15	4.916596E-17
6.117942E+03	1.801860E-15	4.941136E-17
6.127890E+03	1.810684E-15	4.968016E-17
6.137838E+03	1.820117E-15	4.996598E-17
6.147786E+03	1.829868E-15	5.026091E-17
6.157733E+03	1.839772E-15	5.056039E-17
6.167681E+03	1.849642E-15	5.085934E-17
6.177629E+03	1.859355E-15	5.115430E-17
6.187577E+03	1.868791E-15	5.144203E-17
6.197525E+03	1.877859E-15	5.171999E-17
6.207473E+03	1.886537E-15	5.198753E-17
6.217421E+03	1.894766E-15	5.224304E-17
6.227369E+03	1.902417E-15	5.248292E-17
6.237316E+03	1.909331E-15	5.270279E-17
6.247264E+03	1.915398E-15	5.289953E-17
6.257212E+03	1.920465E-15	5.306890E-17
6.267160E+03	1.924396E-15	5.320709E-17
6.277108E+03	1.927111E-15	5.331187E-17
6.287056E+03	1.928556E-15	5.338162E-17
6.297004E+03	1.928658E-15	5.341432E-17
6.306952E+03	1.927445E-15	5.341064E-17
6.316899E+03	1.924979E-15	5.337229E-17
6.326847E+03	1.921329E-15	5.330107E-17
6.336795E+03	1.916677E-15	5.320201E-17
6.346743E+03	1.911099E-15	5.307716E-17
6.356691E+03	1.904711E-15	5.292972E-17
6.366639E+03	1.897666E-15	5.276385E-17
6.376587E+03	1.890115E-15	5.258378E-17
6.386535E+03	1.882135E-15	5.239159E-17
6.396482E+03	1.873886E-15	5.219172E-17
6.406430E+03	1.865441E-15	5.198618E-17
6.416378E+03	1.856799E-15	5.177494E-17
6.426326E+03	1.847939E-15	5.155739E-17
6.436274E+03	1.838857E-15	5.133344E-17
6.446222E+03	1.829588E-15	5.110399E-17
6.456170E+03	1.820085E-15	5.086776E-17
6.466118E+03	1.810428E-15	5.062698E-17
6.476065E+03	1.800684E-15	5.038348E-17
6.486013E+03	1.790912E-15	5.013893E-17
6.495961E+03	1.781179E-15	4.989519E-17
6.505909E+03	1.771553E-15	4.965418E-17
6.515857E+03	1.762129E-15	4.941854E-17
6.525805E+03	1.752940E-15	4.918921E-17
6.535753E+03	1.744068E-15	4.896853E-17
6.545701E+03	1.735550E-15	4.875753E-17
6.555648E+03	1.727366E-15	4.855566E-17
6.565596E+03	1.719526E-15	4.836323E-17
6.575544E+03	1.712014E-15	4.817977E-17
6.585492E+03	1.704676E-15	4.800101E-17
6.595440E+03	1.697415E-15	4.782416E-17
6.605388E+03	1.690099E-15	4.764555E-17
6.615336E+03	1.682678E-15	4.746378E-17
6.625284E+03	1.675022E-15	4.727510E-17
6.635231E+03	1.667084E-15	4.707825E-17
6.645179E+03	1.658860E-15	4.687302E-17
6.655127E+03	1.650348E-15	4.665942E-17
6.665075E+03	1.641553E-15	4.643753E-17
6.675023E+03	1.632507E-15	4.620824E-17
6.684971E+03	1.623296E-15	4.597398E-17
6.694919E+03	1.613971E-15	4.573618E-17
6.704866E+03	1.604630E-15	4.549764E-17
6.714814E+03	1.595303E-15	4.525916E-17
6.724762E+03	1.586136E-15	4.502492E-17
6.734710E+03	1.577109E-15	4.479435E-17
6.744658E+03	1.568322E-15	4.457029E-17
6.754606E+03	1.559762E-15	4.435238E-17
6.764554E+03	1.551450E-15	4.414123E-17
6.774502E+03	1.543379E-15	4.393667E-17
6.784449E+03	1.535531E-15	4.373817E-17
6.794397E+03	1.527919E-15	4.354612E-17
6.804345E+03	1.520510E-15	4.335961E-17
6.814293E+03	1.513355E-15	4.318007E-17
6.824241E+03	1.506437E-15	4.300705E-17
6.834189E+03	1.499875E-15	4.284393E-17
6.844137E+03	1.493711E-15	4.269197E-17
6.854085E+03	1.488002E-15	4.255280E-17
6.864032E+03	1.482783E-15	4.242742E-17
6.873980E+03	1.478162E-15	4.231898E-17
6.883928E+03	1.474035E-15	4.222453E-17
6.893876E+03	1.470459E-15	4.214567E-17
6.903824E+03	1.467323E-15	4.207931E-17
6.913772E+03	1.464474E-15	4.202105E-17
6.923720E+03	1.461767E-15	4.196672E-17
6.933668E+03	1.459011E-15	4.191089E-17
6.943615E+03	1.456033E-15	4.184852E-17
6.953563E+03	1.452674E-15	4.177509E-17
6.963511E+03	1.448812E-15	4.168706E-17
6.973459E+03	1.444358E-15	4.158179E-17
6.983407E+03	1.439235E-15	4.145710E-17
6.993355E+03	1.433493E-15	4.131432E-17
7.003303E+03	1.427051E-15	4.115117E-17
7.013251E+03	1.420045E-15	4.097149E-17
7.023198E+03	1.412477E-15	4.077535E-17
7.033146E+03	1.404478E-15	4.056645E-17
7.043094E+03	1.396132E-15	4.034726E-17
7.053042E+03	1.387580E-15	4.012176E-17
7.062990E+03	1.378920E-15	3.989287E-17
7.072938E+03	1.370200E-15	3.966190E-17
7.082886E+03	1.361566E-15	3.943313E-17
7.092834E+03	1.353001E-15	3.920600E-17
7.102781E+03	1.344557E-15	3.898212E-17
7.112729E+03	1.336299E-15	3.876329E-17
7.122677E+03	1.328209E-15	3.854906E-17
7.132625E+03	1.320354E-15	3.834133E-17
7.142573E+03	1.312748E-15	3.814056E-17
7.152521E+03	1.305474E-15	3.794919E-17
7.162469E+03	1.298561E-15	3.776800E-17
7.172417E+03	1.292042E-15	3.759803E-17
7.182364E+03	1.285927E-15	3.743959E-17
7.192312E+03	1.280205E-15	3.729236E-17
7.202260E+03	1.274851E-15	3.715562E-17
7.212208E+03	1.269830E-15	3.702838E-17
7.222156E+03	1.265116E-15	3.690992E-17
7.232104E+03	1.260695E-15	3.679979E-17
7.242052E+03	1.256511E-15	3.669643E-17
7.252000E+03	1.252467E-15	3.659696E-17
7.261947E+03	1.248578E-15	3.650184E-17
7.271895E+03	1.244754E-15	3.640845E-17
7.281843E+03	1.240913E-15	3.631443E-17
7.291791E+03	1.237040E-15	3.621929E-17
7.301739E+03	1.233047E-15	3.612048E-17
7.311687E+03	1.228913E-15	3.601734E-17
7.321635E+03	1.224630E-15	3.590966E-17
7.331583E+03	1.220198E-15	3.579746E-17
7.341530E+03	1.215685E-15	3.568268E-17
7.351478E+03	1.211066E-15	3.556460E-17
7.361426E+03	1.206488E-15	3.544752E-17
7.371374E+03	1.201999E-15	3.533290E-17
7.381322E+03	1.197730E-15	3.522454E-17
7.391270E+03	1.193773E-15	3.512522E-17
7.401218E+03	1.190248E-15	3.503841E-17
7.411165E+03	1.187289E-15	3.496813E-17
7.421113E+03	1.184978E-15	3.491683E-17
7.431061E+03	1.183495E-15	3.488978E-17
7.441009E+03	1.182869E-15	3.488792E-17
7.450957E+03	1.183167E-15	3.491325E-17
7.460905E+03	1.184366E-15	3.496513E-17
7.470853E+03	1.186521E-15	3.504524E-17
7.480801E+03	1.189477E-15	3.514902E-17
7.490748E+03	1.193085E-15	3.527209E-17
7.500696E+03	1.197218E-15	3.541073E-17
7.510644E+03	1.201670E-15	3.555886E-17
7.520592E+03	1.206287E-15	3.571196E-17
7.530540E+03	1.210820E-15	3.586260E-17
7.540488E+03	1.215088E-15	3.600547E-17
7.550436E+03	1.218926E-15	3.613566E-17
7.560384E+03	1.222127E-15	3.624699E-17
7.570331E+03	1.224545E-15	3.633511E-17
7.580279E+03	1.225993E-15	3.639445E-17
7.590227E+03	1.226387E-15	3.642244E-17
7.600175E+03	1.225531E-15	3.641326E-17
7.610123E+03	1.223361E-15	3.636493E-17
7.620071E+03	1.219726E-15	3.627290E-17
7.630019E+03	1.214583E-15	3.613588E-17
7.639967E+03	1.207810E-15	3.595011E-17
7.649914E+03	1.199432E-15	3.571633E-17
7.659862E+03	1.189420E-15	3.543358E-17
7.669810E+03	1.177814E-15	3.510302E-17
7.679758E+03	1.164702E-15	3.472720E-17
7.689706E+03	1.150205E-15	3.430966E-17
7.699654E+03	1.134487E-15	3.385525E-17
7.709602E+03	1.117719E-15	3.336904E-17
7.719550E+03	1.100169E-15	3.285899E-17
