#wls	flux	fluxerr
1.591660E+03	3.314397E-17	1.011858E-17
1.631451E+03	3.438169E-17	1.049591E-17
1.671243E+03	3.558358E-17	1.086225E-17
1.711034E+03	3.674715E-17	1.121684E-17
1.750826E+03	3.786593E-17	1.155770E-17
1.790617E+03	3.889283E-17	1.187047E-17
1.830409E+03	3.980422E-17	1.214793E-17
1.870200E+03	4.053053E-17	1.236886E-17
1.909992E+03	4.101172E-17	1.251494E-17
1.949783E+03	4.121608E-17	1.257652E-17
1.989575E+03	4.114663E-17	1.255452E-17
2.029366E+03	4.089687E-17	1.247750E-17
2.069158E+03	4.075074E-17	1.243208E-17
2.108949E+03	4.109601E-17	1.253656E-17
2.148741E+03	4.233372E-17	1.291322E-17
2.188532E+03	4.470615E-17	1.363591E-17
2.228324E+03	4.820050E-17	1.470065E-17
2.268115E+03	5.261614E-17	1.604616E-17
2.307907E+03	5.770248E-17	1.759598E-17
2.347698E+03	6.325119E-17	1.928650E-17
2.387490E+03	6.911073E-17	2.107149E-17
2.427281E+03	7.523268E-17	2.293616E-17
2.467073E+03	8.158520E-17	2.487077E-17
2.506864E+03	8.820296E-17	2.688585E-17
2.546656E+03	9.511190E-17	2.898929E-17
2.586447E+03	1.023736E-16	3.119982E-17
2.626239E+03	1.100069E-16	3.352310E-17
2.666030E+03	1.180742E-16	3.597819E-17
2.705821E+03	1.266210E-16	3.857881E-17
2.745613E+03	1.356880E-16	4.133736E-17
2.785404E+03	1.453296E-16	4.427030E-17
2.825196E+03	1.555551E-16	4.738046E-17
2.864987E+03	1.664247E-16	5.068606E-17
2.904779E+03	1.779500E-16	5.419057E-17
2.944570E+03	1.901741E-16	5.790702E-17
2.984362E+03	2.030837E-16	6.183129E-17
2.994310E+03	2.064122E-16	6.284297E-17
3.004258E+03	2.097908E-16	6.386988E-17
3.014206E+03	2.132188E-16	6.491174E-17
3.024153E+03	2.166975E-16	6.596896E-17
3.034101E+03	2.202112E-16	6.703679E-17
3.044049E+03	2.237898E-16	6.812429E-17
3.053997E+03	2.274603E-16	6.923972E-17
3.063945E+03	2.311698E-16	7.036692E-17
3.073893E+03	2.349634E-16	7.151969E-17
3.083841E+03	2.387878E-16	7.268172E-17
3.093789E+03	2.426887E-16	7.386700E-17
3.103736E+03	2.466122E-16	7.505904E-17
3.113684E+03	2.506046E-16	7.627202E-17
3.123632E+03	2.546628E-16	7.750490E-17
3.133580E+03	2.587572E-16	7.874876E-17
3.143528E+03	2.628841E-16	8.000240E-17
3.153476E+03	2.670395E-16	8.126465E-17
3.163424E+03	2.712456E-16	8.254223E-17
3.173372E+03	2.754988E-16	8.383408E-17
3.183319E+03	2.797955E-16	8.513907E-17
3.193267E+03	2.841056E-16	8.644805E-17
3.203215E+03	2.884516E-16	8.776786E-17
3.213163E+03	2.928297E-16	8.909735E-17
3.223111E+03	2.972094E-16	9.042725E-17
3.233059E+03	3.016402E-16	9.177261E-17
3.243007E+03	3.060916E-16	9.312416E-17
3.252955E+03	3.105597E-16	9.448066E-17
3.262902E+03	3.150404E-16	9.584093E-17
3.272850E+03	3.195568E-16	9.721196E-17
3.282798E+03	3.240779E-16	9.858432E-17
3.292746E+03	3.285994E-16	9.995673E-17
3.302694E+03	3.331445E-16	1.013362E-16
3.312642E+03	3.377090E-16	1.027215E-16
3.322590E+03	3.422616E-16	1.041030E-16
3.332538E+03	3.468251E-16	1.054878E-16
3.342485E+03	3.513952E-16	1.068746E-16
3.352433E+03	3.559949E-16	1.082702E-16
3.362381E+03	3.605654E-16	1.096568E-16
3.372329E+03	3.651293E-16	1.110413E-16
3.382277E+03	3.697095E-16	1.124307E-16
3.392225E+03	3.742742E-16	1.138152E-16
3.402173E+03	3.788459E-16	1.152019E-16
3.412120E+03	3.833931E-16	1.165809E-16
3.422068E+03	3.879380E-16	1.179592E-16
3.432016E+03	3.924760E-16	1.193352E-16
3.441964E+03	3.970022E-16	1.207076E-16
3.451912E+03	4.014853E-16	1.220667E-16
3.461860E+03	4.059738E-16	1.234275E-16
3.471808E+03	4.104365E-16	1.247802E-16
3.481756E+03	4.148946E-16	1.261315E-16
3.491703E+03	4.193167E-16	1.274717E-16
3.501651E+03	4.237248E-16	1.288076E-16
3.511599E+03	4.281132E-16	1.301373E-16
3.521547E+03	4.324518E-16	1.314519E-16
3.531495E+03	4.367866E-16	1.327652E-16
3.541443E+03	4.410621E-16	1.340604E-16
3.551391E+03	4.453239E-16	1.353513E-16
3.561339E+03	4.495418E-16	1.366287E-16
3.571286E+03	4.537361E-16	1.378989E-16
3.581234E+03	4.579013E-16	1.391602E-16
3.591182E+03	4.620084E-16	1.404037E-16
3.601130E+03	4.660772E-16	1.416355E-16
3.611078E+03	4.701267E-16	1.428613E-16
3.621026E+03	4.741042E-16	1.440651E-16
3.630974E+03	4.780527E-16	1.452601E-16
3.640922E+03	4.819675E-16	1.464447E-16
3.650869E+03	4.858202E-16	1.476103E-16
3.660817E+03	4.896066E-16	1.487558E-16
3.670765E+03	4.933685E-16	1.498936E-16
3.680713E+03	4.970782E-16	1.510156E-16
3.690661E+03	5.007315E-16	1.521203E-16
3.700609E+03	5.043238E-16	1.532064E-16
3.710557E+03	5.078735E-16	1.542794E-16
3.720505E+03	5.113546E-16	1.553316E-16
3.730452E+03	5.147846E-16	1.563682E-16
3.740400E+03	5.181598E-16	1.573880E-16
3.750348E+03	5.214761E-16	1.583898E-16
3.760296E+03	5.247098E-16	1.593665E-16
3.770244E+03	5.279187E-16	1.603356E-16
3.780192E+03	5.310384E-16	1.612775E-16
3.790140E+03	5.341062E-16	1.622035E-16
3.800088E+03	5.370985E-16	1.631066E-16
3.810035E+03	5.400336E-16	1.639922E-16
3.819983E+03	5.429075E-16	1.648592E-16
3.829931E+03	5.456988E-16	1.657010E-16
3.839879E+03	5.484436E-16	1.665286E-16
3.849827E+03	5.511014E-16	1.673298E-16
3.859775E+03	5.537079E-16	1.681153E-16
3.869723E+03	5.562245E-16	1.688734E-16
3.879671E+03	5.586859E-16	1.696147E-16
3.889618E+03	5.610728E-16	1.703334E-16
3.899566E+03	5.633845E-16	1.710292E-16
3.909514E+03	5.656367E-16	1.717068E-16
3.919462E+03	5.678116E-16	1.723609E-16
3.929410E+03	5.699087E-16	1.729914E-16
3.939358E+03	5.719285E-16	1.735983E-16
3.949306E+03	5.738869E-16	1.741866E-16
3.959254E+03	5.757676E-16	1.747512E-16
3.969201E+03	5.775714E-16	1.752924E-16
3.979149E+03	5.792994E-16	1.758106E-16
3.989097E+03	5.809516E-16	1.763058E-16
3.999045E+03	5.825304E-16	1.767786E-16
4.008993E+03	5.840361E-16	1.772292E-16
4.018941E+03	5.854708E-16	1.776582E-16
4.028889E+03	5.868214E-16	1.780617E-16
4.038836E+03	5.880911E-16	1.784406E-16
4.048784E+03	5.892954E-16	1.787996E-16
4.058732E+03	5.904097E-16	1.791313E-16
4.068680E+03	5.914506E-16	1.794407E-16
4.078628E+03	5.924214E-16	1.797288E-16
4.088576E+03	5.933115E-16	1.799924E-16
4.098524E+03	5.941246E-16	1.802326E-16
4.108472E+03	5.948517E-16	1.804467E-16
4.118419E+03	5.955101E-16	1.806400E-16
4.128367E+03	5.960908E-16	1.808097E-16
4.138315E+03	5.965862E-16	1.809535E-16
4.148263E+03	5.970130E-16	1.810764E-16
4.158211E+03	5.973523E-16	1.811729E-16
4.168159E+03	5.976207E-16	1.812478E-16
4.178107E+03	5.978007E-16	1.812959E-16
4.188055E+03	5.979090E-16	1.813223E-16
4.198002E+03	5.979393E-16	1.813250E-16
4.207950E+03	5.978871E-16	1.813027E-16
4.217898E+03	5.977583E-16	1.812571E-16
4.227846E+03	5.975475E-16	1.811867E-16
4.237794E+03	5.972616E-16	1.810936E-16
4.247742E+03	5.968964E-16	1.809764E-16
4.257690E+03	5.964583E-16	1.808372E-16
4.267638E+03	5.959331E-16	1.806715E-16
4.277585E+03	5.953382E-16	1.804847E-16
4.287533E+03	5.946602E-16	1.802728E-16
4.297481E+03	5.939062E-16	1.800378E-16
4.307429E+03	5.930829E-16	1.797819E-16
4.317377E+03	5.921687E-16	1.794984E-16
4.327325E+03	5.911902E-16	1.791955E-16
4.337273E+03	5.901258E-16	1.788666E-16
4.347221E+03	5.889930E-16	1.785169E-16
4.357168E+03	5.877887E-16	1.781456E-16
4.367116E+03	5.865120E-16	1.777524E-16
4.377064E+03	5.851607E-16	1.773367E-16
4.387012E+03	5.837506E-16	1.769032E-16
4.396960E+03	5.822633E-16	1.764463E-16
4.406908E+03	5.807219E-16	1.759731E-16
4.416856E+03	5.791170E-16	1.754807E-16
4.426804E+03	5.774551E-16	1.749710E-16
4.436751E+03	5.757345E-16	1.744436E-16
4.446699E+03	5.739694E-16	1.739028E-16
4.456647E+03	5.721504E-16	1.733457E-16
4.466595E+03	5.702836E-16	1.727742E-16
4.476543E+03	5.683674E-16	1.721877E-16
4.486491E+03	5.664152E-16	1.715904E-16
4.496439E+03	5.644245E-16	1.709816E-16
4.506387E+03	5.623942E-16	1.703607E-16
4.516334E+03	5.603360E-16	1.697315E-16
4.526282E+03	5.582484E-16	1.690934E-16
4.536230E+03	5.561426E-16	1.684499E-16
4.546178E+03	5.540094E-16	1.677982E-16
4.556126E+03	5.518607E-16	1.671418E-16
4.566074E+03	5.496930E-16	1.664797E-16
4.576022E+03	5.475173E-16	1.658153E-16
4.585970E+03	5.453374E-16	1.651496E-16
4.595917E+03	5.431509E-16	1.644820E-16
4.605865E+03	5.409664E-16	1.638151E-16
4.615813E+03	5.387874E-16	1.631499E-16
4.625761E+03	5.366109E-16	1.624856E-16
4.635709E+03	5.344455E-16	1.618247E-16
4.645657E+03	5.322994E-16	1.611697E-16
4.655605E+03	5.301691E-16	1.605195E-16
4.665553E+03	5.280626E-16	1.598766E-16
4.675500E+03	5.259930E-16	1.592449E-16
4.685448E+03	5.239564E-16	1.586233E-16
4.695396E+03	5.219649E-16	1.580155E-16
4.705344E+03	5.200317E-16	1.574253E-16
4.715292E+03	5.181568E-16	1.568528E-16
4.725240E+03	5.163574E-16	1.563033E-16
4.735188E+03	5.146392E-16	1.557783E-16
4.745135E+03	5.130070E-16	1.552795E-16
4.755083E+03	5.114546E-16	1.548049E-16
4.765031E+03	5.099923E-16	1.543576E-16
4.774979E+03	5.086075E-16	1.539339E-16
4.784927E+03	5.072996E-16	1.535334E-16
4.794875E+03	5.060564E-16	1.531526E-16
4.804823E+03	5.048654E-16	1.527877E-16
4.814771E+03	5.037320E-16	1.524402E-16
4.824718E+03	5.026378E-16	1.521046E-16
4.834666E+03	5.015819E-16	1.517807E-16
4.844614E+03	5.005635E-16	1.514681E-16
4.854562E+03	4.995762E-16	1.511650E-16
4.864510E+03	4.986179E-16	1.508708E-16
4.874458E+03	4.976928E-16	1.505866E-16
4.884406E+03	4.967942E-16	1.503104E-16
4.894354E+03	4.959199E-16	1.500417E-16
4.904301E+03	4.950785E-16	1.497829E-16
4.914249E+03	4.942577E-16	1.495305E-16
4.924197E+03	4.934662E-16	1.492869E-16
4.934145E+03	4.927013E-16	1.490514E-16
4.944093E+03	4.919612E-16	1.488235E-16
4.954041E+03	4.912478E-16	1.486036E-16
4.963989E+03	4.905593E-16	1.483914E-16
4.973937E+03	4.898930E-16	1.481859E-16
4.983884E+03	4.892514E-16	1.479878E-16
4.993832E+03	4.886315E-16	1.477965E-16
5.003780E+03	4.880361E-16	1.476125E-16
5.013728E+03	4.874572E-16	1.474335E-16
5.023676E+03	4.868971E-16	1.472603E-16
5.033624E+03	4.863531E-16	1.470920E-16
5.043572E+03	4.858273E-16	1.469293E-16
5.053520E+03	4.853120E-16	1.467697E-16
5.063467E+03	4.848093E-16	1.466140E-16
5.073415E+03	4.843215E-16	1.464628E-16
5.083363E+03	4.838407E-16	1.463137E-16
5.093311E+03	4.833643E-16	1.461660E-16
5.103259E+03	4.828944E-16	1.460204E-16
5.113207E+03	4.824283E-16	1.458759E-16
5.123155E+03	4.819635E-16	1.457318E-16
5.133103E+03	4.814923E-16	1.455858E-16
5.143050E+03	4.810222E-16	1.454402E-16
5.152998E+03	4.805505E-16	1.452941E-16
5.162946E+03	4.800652E-16	1.451440E-16
5.172894E+03	4.795784E-16	1.449934E-16
5.182842E+03	4.790733E-16	1.448374E-16
5.192790E+03	4.785623E-16	1.446795E-16
5.202738E+03	4.780336E-16	1.445164E-16
5.212686E+03	4.774851E-16	1.443473E-16
5.222633E+03	4.769246E-16	1.441746E-16
5.232581E+03	4.763406E-16	1.439949E-16
5.242529E+03	4.757410E-16	1.438104E-16
5.252477E+03	4.751145E-16	1.436179E-16
5.262425E+03	4.744693E-16	1.434197E-16
5.272373E+03	4.737989E-16	1.432140E-16
5.282321E+03	4.731023E-16	1.430003E-16
5.292269E+03	4.723827E-16	1.427798E-16
5.302216E+03	4.716346E-16	1.425507E-16
5.312164E+03	4.708614E-16	1.423140E-16
5.322112E+03	4.700672E-16	1.420710E-16
5.332060E+03	4.692415E-16	1.418186E-16
5.342008E+03	4.683933E-16	1.415593E-16
5.351956E+03	4.675217E-16	1.412931E-16
5.361904E+03	4.666311E-16	1.410211E-16
5.371851E+03	4.657164E-16	1.407419E-16
5.381799E+03	4.647818E-16	1.404567E-16
5.391747E+03	4.638271E-16	1.401654E-16
5.401695E+03	4.628569E-16	1.398696E-16
5.411643E+03	4.618756E-16	1.395704E-16
5.421591E+03	4.608786E-16	1.392665E-16
5.431539E+03	4.598707E-16	1.389593E-16
5.441487E+03	4.588564E-16	1.386503E-16
5.451434E+03	4.578314E-16	1.383380E-16
5.461382E+03	4.568004E-16	1.380240E-16
5.471330E+03	4.557639E-16	1.377084E-16
5.481278E+03	4.547174E-16	1.373898E-16
5.491226E+03	4.536706E-16	1.370711E-16
5.501174E+03	4.526148E-16	1.367498E-16
5.511122E+03	4.515505E-16	1.364259E-16
5.521070E+03	4.504783E-16	1.360997E-16
5.531017E+03	4.493987E-16	1.357713E-16
5.540965E+03	4.483123E-16	1.354408E-16
5.550913E+03	4.472109E-16	1.351059E-16
5.560861E+03	4.460997E-16	1.347681E-16
5.570809E+03	4.449794E-16	1.344275E-16
5.580757E+03	4.438419E-16	1.340818E-16
5.590705E+03	4.426923E-16	1.337325E-16
5.600653E+03	4.415315E-16	1.333798E-16
5.610600E+03	4.403559E-16	1.330227E-16
5.620548E+03	4.391662E-16	1.326615E-16
5.630496E+03	4.379590E-16	1.322949E-16
5.640444E+03	4.367394E-16	1.319246E-16
5.650392E+03	4.355081E-16	1.315509E-16
5.660340E+03	4.342574E-16	1.311713E-16
5.670288E+03	4.329966E-16	1.307888E-16
5.680236E+03	4.317222E-16	1.304021E-16
5.690183E+03	4.304349E-16	1.300116E-16
5.700131E+03	4.291354E-16	1.296175E-16
5.710079E+03	4.278201E-16	1.292187E-16
5.720027E+03	4.264940E-16	1.288166E-16
5.729975E+03	4.251576E-16	1.284115E-16
5.739923E+03	4.238116E-16	1.280035E-16
5.749871E+03	4.224524E-16	1.275915E-16
5.759819E+03	4.210803E-16	1.271757E-16
5.769766E+03	4.197002E-16	1.267576E-16
5.779714E+03	4.183083E-16	1.263359E-16
5.789662E+03	4.169093E-16	1.259121E-16
5.799610E+03	4.154993E-16	1.254850E-16
5.809558E+03	4.140787E-16	1.250548E-16
5.819506E+03	4.126520E-16	1.246228E-16
5.829454E+03	4.112113E-16	1.241866E-16
5.839402E+03	4.097650E-16	1.237488E-16
5.849349E+03	4.083094E-16	1.233082E-16
5.859297E+03	4.068445E-16	1.228648E-16
5.869245E+03	4.053666E-16	1.224176E-16
5.879193E+03	4.038839E-16	1.219689E-16
5.889141E+03	4.023925E-16	1.215177E-16
5.899089E+03	4.008885E-16	1.210627E-16
5.909037E+03	3.993760E-16	1.206052E-16
5.918985E+03	3.978551E-16	1.201452E-16
5.928932E+03	3.963219E-16	1.196815E-16
5.938880E+03	3.947803E-16	1.192154E-16
5.948828E+03	3.932303E-16	1.187467E-16
5.958776E+03	3.916681E-16	1.182744E-16
5.968724E+03	3.900975E-16	1.177997E-16
5.978672E+03	3.885147E-16	1.173212E-16
5.988620E+03	3.869233E-16	1.168403E-16
5.998568E+03	3.853235E-16	1.163568E-16
6.008515E+03	3.837113E-16	1.158697E-16
6.018463E+03	3.820867E-16	1.153788E-16
6.028411E+03	3.804571E-16	1.148865E-16
6.038359E+03	3.788113E-16	1.143893E-16
6.048307E+03	3.771603E-16	1.138906E-16
6.058255E+03	3.754967E-16	1.133882E-16
6.068203E+03	3.738203E-16	1.128819E-16
6.078150E+03	3.721349E-16	1.123730E-16
6.088098E+03	3.704366E-16	1.118602E-16
6.098046E+03	3.687219E-16	1.113425E-16
6.107994E+03	3.669944E-16	1.108210E-16
6.117942E+03	3.652468E-16	1.102934E-16
6.127890E+03	3.634793E-16	1.097599E-16
6.137838E+03	3.616882E-16	1.092194E-16
6.147786E+03	3.598739E-16	1.086718E-16
6.157733E+03	3.580328E-16	1.081162E-16
6.167681E+03	3.561689E-16	1.075538E-16
6.177629E+03	3.542893E-16	1.069866E-16
6.187577E+03	3.523943E-16	1.064149E-16
6.197525E+03	3.504840E-16	1.058386E-16
6.207473E+03	3.485622E-16	1.052588E-16
6.217421E+03	3.466289E-16	1.046756E-16
6.227369E+03	3.446845E-16	1.040891E-16
6.237316E+03	3.427325E-16	1.035004E-16
6.247264E+03	3.407697E-16	1.029084E-16
6.257212E+03	3.387998E-16	1.023144E-16
6.267160E+03	3.368197E-16	1.017173E-16
6.277108E+03	3.348297E-16	1.011172E-16
6.287056E+03	3.328335E-16	1.005153E-16
6.297004E+03	3.308247E-16	9.990967E-17
6.306952E+03	3.288104E-16	9.930240E-17
6.316899E+03	3.267877E-16	9.869262E-17
6.326847E+03	3.247604E-16	9.808146E-17
6.336795E+03	3.227222E-16	9.746707E-17
6.346743E+03	3.206802E-16	9.685158E-17
6.356691E+03	3.186284E-16	9.623314E-17
6.366639E+03	3.165739E-16	9.561390E-17
6.376587E+03	3.145171E-16	9.499401E-17
6.386535E+03	3.124520E-16	9.437164E-17
6.396482E+03	3.103858E-16	9.374895E-17
6.406430E+03	3.083126E-16	9.312416E-17
6.416378E+03	3.062392E-16	9.249936E-17
6.426326E+03	3.041632E-16	9.187378E-17
6.436274E+03	3.020852E-16	9.124759E-17
6.446222E+03	3.000056E-16	9.062097E-17
6.456170E+03	2.979221E-16	8.999316E-17
6.466118E+03	2.958383E-16	8.936530E-17
6.476065E+03	2.937519E-16	8.873664E-17
6.486013E+03	2.916665E-16	8.810832E-17
6.495961E+03	2.895798E-16	8.747960E-17
6.505909E+03	2.874985E-16	8.685252E-17
6.515857E+03	2.854232E-16	8.622727E-17
6.525805E+03	2.833546E-16	8.560404E-17
6.535753E+03	2.812961E-16	8.498389E-17
6.545701E+03	2.792455E-16	8.436611E-17
6.555648E+03	2.772092E-16	8.375265E-17
6.565596E+03	2.751847E-16	8.314277E-17
6.575544E+03	2.731726E-16	8.253663E-17
6.585492E+03	2.711792E-16	8.193616E-17
6.595440E+03	2.692021E-16	8.134062E-17
6.605388E+03	2.672417E-16	8.075011E-17
6.615336E+03	2.653015E-16	8.016568E-17
6.625284E+03	2.633816E-16	7.958742E-17
6.635231E+03	2.614826E-16	7.901547E-17
6.645179E+03	2.596048E-16	7.844990E-17
6.655127E+03	2.577485E-16	7.789083E-17
6.665075E+03	2.559198E-16	7.734009E-17
6.675023E+03	2.541131E-16	7.679602E-17
6.684971E+03	2.523317E-16	7.625956E-17
6.694919E+03	2.505756E-16	7.573078E-17
6.704866E+03	2.488481E-16	7.521059E-17
6.714814E+03	2.471463E-16	7.469820E-17
6.724762E+03	2.454760E-16	7.419532E-17
6.734710E+03	2.438319E-16	7.370031E-17
6.744658E+03	2.422138E-16	7.321320E-17
6.754606E+03	2.406303E-16	7.273653E-17
6.764554E+03	2.390731E-16	7.226779E-17
6.774502E+03	2.375477E-16	7.180866E-17
6.784449E+03	2.360513E-16	7.135830E-17
6.794397E+03	2.345867E-16	7.091752E-17
6.804345E+03	2.331537E-16	7.048631E-17
6.814293E+03	2.317496E-16	7.006382E-17
6.824241E+03	2.303797E-16	6.965165E-17
6.834189E+03	2.290385E-16	6.924814E-17
6.844137E+03	2.277312E-16	6.885489E-17
6.854085E+03	2.264549E-16	6.847099E-17
6.864032E+03	2.252095E-16	6.809644E-17
6.873980E+03	2.239947E-16	6.773114E-17
6.883928E+03	2.228131E-16	6.737585E-17
6.893876E+03	2.216616E-16	6.702968E-17
6.903824E+03	2.205402E-16	6.669258E-17
6.913772E+03	2.194512E-16	6.636527E-17
6.923720E+03	2.183916E-16	6.604685E-17
6.933668E+03	2.173639E-16	6.573808E-17
6.943615E+03	2.163651E-16	6.543802E-17
6.953563E+03	2.153976E-16	6.514743E-17
6.963511E+03	2.144584E-16	6.486540E-17
6.973459E+03	2.135498E-16	6.459262E-17
6.983407E+03	2.126691E-16	6.432825E-17
6.993355E+03	2.118184E-16	6.407295E-17
7.003303E+03	2.109948E-16	6.382587E-17
7.013251E+03	2.101980E-16	6.358688E-17
7.023198E+03	2.094305E-16	6.335672E-17
7.033146E+03	2.086890E-16	6.313446E-17
7.043094E+03	2.079736E-16	6.292005E-17
7.053042E+03	2.072838E-16	6.271340E-17
7.062990E+03	2.066219E-16	6.251519E-17
7.072938E+03	2.059825E-16	6.232377E-17
7.082886E+03	2.053679E-16	6.213984E-17
7.092834E+03	2.047778E-16	6.196334E-17
7.102781E+03	2.042119E-16	6.179417E-17
7.112729E+03	2.036701E-16	6.163224E-17
7.122677E+03	2.031494E-16	6.147674E-17
7.132625E+03	2.026497E-16	6.132756E-17
7.142573E+03	2.021733E-16	6.118543E-17
7.152521E+03	2.017200E-16	6.105030E-17
7.162469E+03	2.012844E-16	6.092053E-17
7.172417E+03	2.008715E-16	6.079763E-17
7.182364E+03	2.004761E-16	6.067999E-17
7.192312E+03	2.001005E-16	6.056834E-17
7.202260E+03	1.997445E-16	6.046267E-17
7.212208E+03	1.994081E-16	6.036289E-17
7.222156E+03	1.990885E-16	6.026821E-17
7.232104E+03	1.987883E-16	6.017939E-17
7.242052E+03	1.985047E-16	6.009559E-17
7.252000E+03	1.982377E-16	6.001682E-17
7.261947E+03	1.979898E-16	5.994384E-17
7.271895E+03	1.977584E-16	5.987585E-17
7.281843E+03	1.975461E-16	5.981361E-17
7.291791E+03	1.973501E-16	5.975635E-17
7.301739E+03	1.971731E-16	5.970482E-17
7.311687E+03	1.970127E-16	5.965830E-17
7.321635E+03	1.968738E-16	5.961832E-17
7.331583E+03	1.967566E-16	5.958489E-17
7.341530E+03	1.966611E-16	5.955805E-17
7.351478E+03	1.965901E-16	5.953861E-17
7.361426E+03	1.965435E-16	5.952660E-17
7.371374E+03	1.965268E-16	5.952361E-17
7.381322E+03	1.965400E-16	5.952970E-17
7.391270E+03	1.965835E-16	5.954495E-17
7.401218E+03	1.966548E-16	5.956862E-17
7.411165E+03	1.967566E-16	5.960154E-17
7.421113E+03	1.968815E-16	5.964148E-17
7.431061E+03	1.970298E-16	5.968849E-17
7.441009E+03	1.971965E-16	5.974108E-17
7.450957E+03	1.973844E-16	5.980010E-17
7.460905E+03	1.975885E-16	5.986405E-17
7.470853E+03	1.978119E-16	5.993382E-17
7.480801E+03	1.980495E-16	6.000791E-17
7.490748E+03	1.983069E-16	6.008802E-17
7.500696E+03	1.985764E-16	6.017180E-17
7.510644E+03	1.988665E-16	6.026179E-17
7.520592E+03	1.991694E-16	6.035571E-17
7.530540E+03	1.994907E-16	6.045521E-17
7.540488E+03	1.998310E-16	6.056046E-17
7.550436E+03	2.001879E-16	6.067075E-17
7.560384E+03	2.005619E-16	6.078621E-17
7.570331E+03	2.009533E-16	6.090699E-17
7.580279E+03	2.013680E-16	6.103481E-17
7.590227E+03	2.018011E-16	6.116823E-17
7.600175E+03	2.022532E-16	6.130740E-17
7.610123E+03	2.027273E-16	6.145327E-17
7.620071E+03	2.032269E-16	6.160685E-17
7.630019E+03	2.037470E-16	6.176668E-17
7.639967E+03	2.042910E-16	6.193376E-17
7.649914E+03	2.048595E-16	6.210829E-17
7.659862E+03	2.054533E-16	6.229048E-17
7.669810E+03	2.060758E-16	6.248137E-17
7.679758E+03	2.067249E-16	6.268037E-17
7.689706E+03	2.074015E-16	6.288769E-17
7.699654E+03	2.081091E-16	6.310444E-17
7.709602E+03	2.088458E-16	6.333002E-17
7.719550E+03	2.096153E-16	6.356557E-17
