#wls	flux	fluxerr
1.591660E+03	2.217463E-17	9.598670E-19
1.631451E+03	2.312190E-17	1.000443E-18
1.671243E+03	2.404893E-17	1.040098E-18
1.711034E+03	2.495644E-17	1.078862E-18
1.750826E+03	2.582940E-17	1.116086E-18
1.790617E+03	2.664307E-17	1.150701E-18
1.830409E+03	2.736409E-17	1.181269E-18
1.870200E+03	2.795151E-17	1.206028E-18
1.909992E+03	2.836583E-17	1.223282E-18
1.949783E+03	2.857178E-17	1.231522E-18
1.989575E+03	2.856882E-17	1.230738E-18
2.029366E+03	2.843503E-17	1.224305E-18
2.069158E+03	2.834197E-17	1.219615E-18
2.108949E+03	2.857312E-17	1.228858E-18
2.148741E+03	2.940531E-17	1.263907E-18
2.188532E+03	3.099681E-17	1.331513E-18
2.228324E+03	3.332953E-17	1.430840E-18
2.268115E+03	3.625214E-17	1.555330E-18
2.307907E+03	3.958287E-17	1.697137E-18
2.347698E+03	4.315145E-17	1.848926E-18
2.387490E+03	4.684608E-17	2.005883E-18
2.427281E+03	5.061123E-17	2.165614E-18
2.467073E+03	5.441912E-17	2.326916E-18
2.506864E+03	5.826167E-17	2.489434E-18
2.546656E+03	6.215767E-17	2.653959E-18
2.586447E+03	6.610521E-17	2.820397E-18
2.626239E+03	7.012908E-17	2.989791E-18
2.666030E+03	7.421555E-17	3.161542E-18
2.705821E+03	7.839632E-17	3.336983E-18
2.745613E+03	8.266164E-17	3.515683E-18
2.785404E+03	8.702967E-17	3.698395E-18
2.825196E+03	9.149525E-17	3.884881E-18
2.864987E+03	9.604931E-17	4.074736E-18
2.904779E+03	1.006915E-16	4.267926E-18
2.944570E+03	1.054309E-16	4.464818E-18
2.984362E+03	1.102507E-16	4.664679E-18
2.994310E+03	1.114667E-16	4.715041E-18
3.004258E+03	1.126876E-16	4.765585E-18
3.014206E+03	1.139132E-16	4.816295E-18
3.024153E+03	1.151444E-16	4.867214E-18
3.034101E+03	1.163858E-16	4.918538E-18
3.044049E+03	1.176409E-16	4.970408E-18
3.053997E+03	1.189111E-16	5.022885E-18
3.063945E+03	1.201943E-16	5.075884E-18
3.073893E+03	1.214888E-16	5.129329E-18
3.083841E+03	1.227928E-16	5.183142E-18
3.093789E+03	1.241046E-16	5.237253E-18
3.103736E+03	1.254226E-16	5.291595E-18
3.113684E+03	1.267583E-16	5.346651E-18
3.123632E+03	1.280844E-16	5.401268E-18
3.133580E+03	1.294253E-16	5.456481E-18
3.143528E+03	1.307670E-16	5.511691E-18
3.153476E+03	1.321081E-16	5.566842E-18
3.163424E+03	1.334475E-16	5.621888E-18
3.173372E+03	1.347971E-16	5.677331E-18
3.183319E+03	1.361428E-16	5.732579E-18
3.193267E+03	1.374837E-16	5.787586E-18
3.203215E+03	1.388186E-16	5.842311E-18
3.213163E+03	1.401600E-16	5.897272E-18
3.223111E+03	1.414937E-16	5.951875E-18
3.233059E+03	1.428189E-16	6.006088E-18
3.243007E+03	1.441481E-16	6.060434E-18
3.252955E+03	1.454671E-16	6.114321E-18
3.262902E+03	1.467754E-16	6.167720E-18
3.272850E+03	1.480855E-16	6.221161E-18
3.282798E+03	1.493835E-16	6.274059E-18
3.292746E+03	1.506819E-16	6.326942E-18
3.302694E+03	1.519670E-16	6.379229E-18
3.312642E+03	1.532514E-16	6.431455E-18
3.322590E+03	1.545212E-16	6.483034E-18
3.332538E+03	1.557893E-16	6.534504E-18
3.342485E+03	1.570417E-16	6.585284E-18
3.352433E+03	1.582913E-16	6.635913E-18
3.362381E+03	1.595375E-16	6.686367E-18
3.372329E+03	1.607667E-16	6.736072E-18
3.382277E+03	1.619916E-16	6.785565E-18
3.392225E+03	1.631985E-16	6.834271E-18
3.402173E+03	1.644003E-16	6.882725E-18
3.412120E+03	1.655965E-16	6.930916E-18
3.422068E+03	1.667866E-16	6.978818E-18
3.432016E+03	1.679572E-16	7.025868E-18
3.441964E+03	1.691209E-16	7.072600E-18
3.451912E+03	1.702774E-16	7.118998E-18
3.461860E+03	1.714264E-16	7.165047E-18
3.471808E+03	1.725543E-16	7.210183E-18
3.481756E+03	1.736739E-16	7.254940E-18
3.491703E+03	1.747978E-16	7.299844E-18
3.501651E+03	1.758997E-16	7.343794E-18
3.511599E+03	1.769922E-16	7.387323E-18
3.521547E+03	1.780750E-16	7.430414E-18
3.531495E+03	1.791349E-16	7.472522E-18
3.541443E+03	1.801973E-16	7.514699E-18
3.551391E+03	1.812490E-16	7.556399E-18
3.561339E+03	1.822896E-16	7.597609E-18
3.571286E+03	1.833189E-16	7.638316E-18
3.581234E+03	1.843367E-16	7.678511E-18
3.591182E+03	1.853426E-16	7.718179E-18
3.601130E+03	1.863362E-16	7.757311E-18
3.611078E+03	1.873176E-16	7.795898E-18
3.621026E+03	1.882862E-16	7.833926E-18
3.630974E+03	1.892419E-16	7.871389E-18
3.640922E+03	1.901966E-16	7.908782E-18
3.650869E+03	1.911257E-16	7.945081E-18
3.660817E+03	1.920533E-16	7.981290E-18
3.670765E+03	1.929671E-16	8.016893E-18
3.680713E+03	1.938667E-16	8.051883E-18
3.690661E+03	1.947639E-16	8.086743E-18
3.700609E+03	1.956348E-16	8.120487E-18
3.710557E+03	1.965028E-16	8.154084E-18
3.720505E+03	1.973560E-16	8.187036E-18
3.730452E+03	1.981943E-16	8.219343E-18
3.740400E+03	1.990174E-16	8.251001E-18
3.750348E+03	1.998368E-16	8.282474E-18
3.760296E+03	2.006408E-16	8.313285E-18
3.770244E+03	2.014294E-16	8.343432E-18
3.780192E+03	2.022136E-16	8.373372E-18
3.790140E+03	2.029710E-16	8.402180E-18
3.800088E+03	2.037239E-16	8.430774E-18
3.810035E+03	2.044719E-16	8.459145E-18
3.819983E+03	2.051931E-16	8.486385E-18
3.829931E+03	2.059094E-16	8.513398E-18
3.839879E+03	2.066099E-16	8.539735E-18
3.849827E+03	2.072945E-16	8.565395E-18
3.859775E+03	2.079634E-16	8.590382E-18
3.869723E+03	2.086271E-16	8.615134E-18
3.879671E+03	2.092647E-16	8.638787E-18
3.889618E+03	2.098971E-16	8.662206E-18
3.899566E+03	2.105139E-16	8.684962E-18
3.909514E+03	2.111255E-16	8.707484E-18
3.919462E+03	2.117116E-16	8.728935E-18
3.929410E+03	2.122827E-16	8.749748E-18
3.939358E+03	2.128487E-16	8.770335E-18
3.949306E+03	2.133998E-16	8.790290E-18
3.959254E+03	2.139265E-16	8.809222E-18
3.969201E+03	2.144485E-16	8.827946E-18
3.979149E+03	2.149467E-16	8.845673E-18
3.989097E+03	2.154406E-16	8.863207E-18
3.999045E+03	2.159113E-16	8.879769E-18
4.008993E+03	2.163686E-16	8.895768E-18
4.018941E+03	2.168128E-16	8.911218E-18
4.028889E+03	2.172443E-16	8.926129E-18
4.038836E+03	2.176633E-16	8.940511E-18
4.048784E+03	2.180611E-16	8.954012E-18
4.058732E+03	2.184381E-16	8.966652E-18
4.068680E+03	2.188129E-16	8.979184E-18
4.078628E+03	2.191678E-16	8.990891E-18
4.088576E+03	2.195035E-16	9.001798E-18
4.098524E+03	2.198290E-16	9.012282E-18
4.108472E+03	2.201363E-16	9.022008E-18
4.118419E+03	2.204260E-16	9.031002E-18
4.128367E+03	2.207070E-16	9.039634E-18
4.138315E+03	2.209630E-16	9.047234E-18
4.148263E+03	2.212115E-16	9.054520E-18
4.158211E+03	2.214446E-16	9.061171E-18
4.168159E+03	2.216546E-16	9.066872E-18
4.178107E+03	2.218588E-16	9.072331E-18
4.188055E+03	2.220414E-16	9.076901E-18
4.198002E+03	2.222113E-16	9.080945E-18
4.207950E+03	2.223690E-16	9.084491E-18
4.217898E+03	2.225073E-16	9.087242E-18
4.227846E+03	2.226349E-16	9.089552E-18
4.237794E+03	2.227446E-16	9.091133E-18
4.247742E+03	2.228374E-16	9.092020E-18
4.257690E+03	2.229139E-16	9.092245E-18
4.267638E+03	2.229826E-16	9.092150E-18
4.277585E+03	2.230366E-16	9.091455E-18
4.287533E+03	2.230693E-16	9.089897E-18
4.297481E+03	2.230963E-16	9.088109E-18
4.307429E+03	2.231038E-16	9.085529E-18
4.317377E+03	2.231000E-16	9.082489E-18
4.327325E+03	2.230784E-16	9.078732E-18
4.337273E+03	2.230471E-16	9.074582E-18
4.347221E+03	2.230068E-16	9.070072E-18
4.357168E+03	2.229444E-16	9.064671E-18
4.367116E+03	2.228748E-16	9.058982E-18
4.377064E+03	2.227920E-16	9.052759E-18
4.387012E+03	2.226966E-16	9.046036E-18
4.396960E+03	2.225896E-16	9.038852E-18
4.406908E+03	2.224720E-16	9.031242E-18
4.416856E+03	2.223444E-16	9.023238E-18
4.426804E+03	2.222079E-16	9.014879E-18
4.436751E+03	2.220566E-16	9.005933E-18
4.446699E+03	2.218917E-16	8.996442E-18
4.456647E+03	2.217203E-16	8.986701E-18
4.466595E+03	2.215432E-16	8.976740E-18
4.476543E+03	2.213549E-16	8.966339E-18
4.486491E+03	2.211563E-16	8.955531E-18
4.496439E+03	2.209483E-16	8.944356E-18
4.506387E+03	2.207316E-16	8.932841E-18
4.516334E+03	2.205132E-16	8.921275E-18
4.526282E+03	2.202816E-16	8.909187E-18
4.536230E+03	2.200439E-16	8.896864E-18
4.546178E+03	2.198006E-16	8.884334E-18
4.556126E+03	2.195525E-16	8.871625E-18
4.566074E+03	2.193004E-16	8.858769E-18
4.576022E+03	2.190391E-16	8.845557E-18
4.585970E+03	2.187751E-16	8.832252E-18
4.595917E+03	2.185033E-16	8.818654E-18
4.605865E+03	2.182302E-16	8.805017E-18
4.615813E+03	2.179564E-16	8.791371E-18
4.625761E+03	2.176768E-16	8.777507E-18
4.635709E+03	2.173919E-16	8.763451E-18
4.645657E+03	2.171081E-16	8.749454E-18
4.655605E+03	2.168202E-16	8.735316E-18
4.665553E+03	2.165289E-16	8.721057E-18
4.675500E+03	2.162400E-16	8.706915E-18
4.685448E+03	2.159487E-16	8.692696E-18
4.695396E+03	2.156554E-16	8.678417E-18
4.705344E+03	2.153604E-16	8.664093E-18
4.715292E+03	2.150696E-16	8.649957E-18
4.725240E+03	2.147781E-16	8.635810E-18
4.735188E+03	2.144860E-16	8.621666E-18
4.745135E+03	2.141939E-16	8.607541E-18
4.755083E+03	2.139072E-16	8.593655E-18
4.765031E+03	2.136158E-16	8.579599E-18
4.774979E+03	2.133303E-16	8.565805E-18
4.784927E+03	2.130457E-16	8.552070E-18
4.794875E+03	2.127623E-16	8.538401E-18
4.804823E+03	2.124853E-16	8.525012E-18
4.814771E+03	2.122048E-16	8.511499E-18
4.824718E+03	2.119309E-16	8.498275E-18
4.834666E+03	2.116586E-16	8.485138E-18
4.844614E+03	2.113881E-16	8.472091E-18
4.854562E+03	2.111245E-16	8.459339E-18
4.864510E+03	2.108578E-16	8.446481E-18
4.874458E+03	2.105978E-16	8.433917E-18
4.884406E+03	2.103446E-16	8.421642E-18
4.894354E+03	2.100884E-16	8.409264E-18
4.904301E+03	2.098388E-16	8.397170E-18
4.914249E+03	2.095909E-16	8.385166E-18
4.924197E+03	2.093495E-16	8.373436E-18
4.934145E+03	2.091096E-16	8.361789E-18
4.944093E+03	2.088712E-16	8.350216E-18
4.954041E+03	2.086387E-16	8.338902E-18
4.963989E+03	2.084121E-16	8.327840E-18
4.973937E+03	2.081818E-16	8.316647E-18
4.983884E+03	2.079618E-16	8.305883E-18
4.993832E+03	2.077377E-16	8.294972E-18
5.003780E+03	2.075233E-16	8.284469E-18
5.013728E+03	2.073046E-16	8.273809E-18
5.023676E+03	2.070951E-16	8.263534E-18
5.033624E+03	2.068855E-16	8.253272E-18
5.043572E+03	2.066800E-16	8.243193E-18
5.053520E+03	2.064739E-16	8.233105E-18
5.063467E+03	2.062714E-16	8.223178E-18
5.073415E+03	2.060679E-16	8.213226E-18
5.083363E+03	2.058720E-16	8.203597E-18
5.093311E+03	2.056745E-16	8.193918E-18
5.103259E+03	2.054796E-16	8.184361E-18
5.113207E+03	2.052826E-16	8.174736E-18
5.123155E+03	2.050877E-16	8.165208E-18
5.133103E+03	2.048989E-16	8.155944E-18
5.143050E+03	2.047029E-16	8.146405E-18
5.152998E+03	2.045124E-16	8.137106E-18
5.162946E+03	2.043229E-16	8.127862E-18
5.172894E+03	2.041297E-16	8.118484E-18
5.182842E+03	2.039369E-16	8.109140E-18
5.192790E+03	2.037441E-16	8.099815E-18
5.202738E+03	2.035513E-16	8.090502E-18
5.212686E+03	2.033580E-16	8.081186E-18
5.222633E+03	2.031639E-16	8.071858E-18
5.232581E+03	2.029646E-16	8.062337E-18
5.242529E+03	2.027683E-16	8.052953E-18
5.252477E+03	2.025705E-16	8.043524E-18
5.262425E+03	2.023667E-16	8.033872E-18
5.272373E+03	2.021607E-16	8.024153E-18
5.282321E+03	2.019568E-16	8.014532E-18
5.292269E+03	2.017460E-16	8.004654E-18
5.302216E+03	2.015324E-16	7.994682E-18
5.312164E+03	2.013157E-16	7.984605E-18
5.322112E+03	2.011001E-16	7.974586E-18
5.332060E+03	2.008767E-16	7.964275E-18
5.342008E+03	2.006494E-16	7.953829E-18
5.351956E+03	2.004225E-16	7.943413E-18
5.361904E+03	2.001870E-16	7.932675E-18
5.371851E+03	1.999471E-16	7.921782E-18
5.381799E+03	1.997068E-16	7.910888E-18
5.391747E+03	1.994574E-16	7.899651E-18
5.401695E+03	1.992070E-16	7.888396E-18
5.411643E+03	1.989515E-16	7.876952E-18
5.421591E+03	1.986863E-16	7.865143E-18
5.431539E+03	1.984195E-16	7.853291E-18
5.441487E+03	1.981469E-16	7.841226E-18
5.451434E+03	1.978725E-16	7.829108E-18
5.461382E+03	1.975875E-16	7.816592E-18
5.471330E+03	1.973004E-16	7.804010E-18
5.481278E+03	1.970067E-16	7.791185E-18
5.491226E+03	1.967063E-16	7.778114E-18
5.501174E+03	1.963989E-16	7.764787E-18
5.511122E+03	1.960886E-16	7.751364E-18
5.521070E+03	1.957711E-16	7.737677E-18
5.531017E+03	1.954462E-16	7.723718E-18
5.540965E+03	1.951180E-16	7.709644E-18
5.550913E+03	1.947821E-16	7.695291E-18
5.560861E+03	1.944385E-16	7.680649E-18
5.570809E+03	1.940911E-16	7.665880E-18
5.580757E+03	1.937356E-16	7.650812E-18
5.590705E+03	1.933761E-16	7.635606E-18
5.600653E+03	1.930083E-16	7.620093E-18
5.610600E+03	1.926362E-16	7.604433E-18
5.620548E+03	1.922597E-16	7.588619E-18
5.630496E+03	1.918746E-16	7.572488E-18
5.640444E+03	1.914808E-16	7.556034E-18
5.650392E+03	1.910824E-16	7.539418E-18
5.660340E+03	1.906791E-16	7.522635E-18
5.670288E+03	1.902708E-16	7.505675E-18
5.680236E+03	1.898536E-16	7.488383E-18
5.690183E+03	1.894312E-16	7.470912E-18
5.700131E+03	1.890037E-16	7.453260E-18
5.710079E+03	1.885709E-16	7.435424E-18
5.720027E+03	1.881287E-16	7.417240E-18
5.729975E+03	1.876812E-16	7.398867E-18
5.739923E+03	1.872322E-16	7.380459E-18
5.749871E+03	1.867736E-16	7.361699E-18
5.759819E+03	1.863094E-16	7.342740E-18
5.769766E+03	1.858396E-16	7.323582E-18
5.779714E+03	1.853640E-16	7.304221E-18
5.789662E+03	1.848827E-16	7.284659E-18
5.799610E+03	1.843955E-16	7.264888E-18
5.809558E+03	1.839025E-16	7.244912E-18
5.819506E+03	1.834036E-16	7.224728E-18
5.829454E+03	1.828986E-16	7.204330E-18
5.839402E+03	1.823878E-16	7.183725E-18
5.849349E+03	1.818708E-16	7.162905E-18
5.859297E+03	1.813517E-16	7.142023E-18
5.869245E+03	1.808264E-16	7.120923E-18
5.879193E+03	1.802912E-16	7.099458E-18
5.889141E+03	1.797537E-16	7.077927E-18
5.899089E+03	1.792138E-16	7.056328E-18
5.909037E+03	1.786639E-16	7.034361E-18
5.918985E+03	1.781116E-16	7.012323E-18
5.928932E+03	1.775493E-16	6.989915E-18
5.938880E+03	1.769883E-16	6.967589E-18
5.948828E+03	1.764173E-16	6.944891E-18
5.958776E+03	1.758399E-16	6.921968E-18
5.968724E+03	1.752601E-16	6.898977E-18
5.978672E+03	1.746777E-16	6.875911E-18
5.988620E+03	1.740853E-16	6.852474E-18
5.998568E+03	1.734904E-16	6.828966E-18
6.008515E+03	1.728891E-16	6.805232E-18
6.018463E+03	1.722816E-16	6.781279E-18
6.028411E+03	1.716714E-16	6.757250E-18
6.038359E+03	1.710550E-16	6.733000E-18
6.048307E+03	1.704323E-16	6.708527E-18
6.058255E+03	1.698070E-16	6.683982E-18
6.068203E+03	1.691755E-16	6.659216E-18
6.078150E+03	1.685413E-16	6.634371E-18
6.088098E+03	1.678973E-16	6.609165E-18
6.098046E+03	1.672543E-16	6.584028E-18
6.107994E+03	1.666015E-16	6.558529E-18
6.117942E+03	1.659462E-16	6.532958E-18
6.127890E+03	1.652883E-16	6.507311E-18
6.137838E+03	1.646206E-16	6.481304E-18
6.147786E+03	1.639504E-16	6.455226E-18
6.157733E+03	1.632777E-16	6.429075E-18
6.167681E+03	1.625989E-16	6.402711E-18
6.177629E+03	1.619177E-16	6.376276E-18
6.187577E+03	1.612269E-16	6.349491E-18
6.197525E+03	1.605372E-16	6.322777E-18
6.207473E+03	1.598416E-16	6.295853E-18
6.217421E+03	1.591400E-16	6.268723E-18
6.227369E+03	1.584361E-16	6.241524E-18
6.237316E+03	1.577265E-16	6.214125E-18
6.247264E+03	1.570146E-16	6.186661E-18
6.257212E+03	1.562969E-16	6.159000E-18
6.267160E+03	1.555771E-16	6.131275E-18
6.277108E+03	1.548552E-16	6.103495E-18
6.287056E+03	1.541278E-16	6.075522E-18
6.297004E+03	1.533984E-16	6.047493E-18
6.306952E+03	1.526636E-16	6.019279E-18
6.316899E+03	1.519270E-16	5.991015E-18
6.326847E+03	1.511852E-16	5.962571E-18
6.336795E+03	1.504417E-16	5.934083E-18
6.346743E+03	1.496966E-16	5.905553E-18
6.356691E+03	1.489501E-16	5.876989E-18
6.366639E+03	1.481988E-16	5.848253E-18
6.376587E+03	1.474463E-16	5.819490E-18
6.386535E+03	1.466926E-16	5.790699E-18
6.396482E+03	1.459379E-16	5.761885E-18
6.406430E+03	1.451791E-16	5.732926E-18
6.416378E+03	1.444229E-16	5.704085E-18
6.426326E+03	1.436629E-16	5.675106E-18
6.436274E+03	1.429025E-16	5.646128E-18
6.446222E+03	1.421419E-16	5.617159E-18
6.456170E+03	1.413813E-16	5.588198E-18
6.466118E+03	1.406177E-16	5.559132E-18
6.476065E+03	1.398577E-16	5.530220E-18
6.486013E+03	1.390982E-16	5.501338E-18
6.495961E+03	1.383397E-16	5.472501E-18
6.505909E+03	1.375820E-16	5.443709E-18
6.515857E+03	1.368255E-16	5.414972E-18
6.525805E+03	1.360703E-16	5.386297E-18
6.535753E+03	1.353169E-16	5.357696E-18
6.545701E+03	1.345651E-16	5.329170E-18
6.555648E+03	1.338186E-16	5.300854E-18
6.565596E+03	1.330742E-16	5.272632E-18
6.575544E+03	1.323323E-16	5.244508E-18
6.585492E+03	1.315930E-16	5.216496E-18
6.595440E+03	1.308595E-16	5.188716E-18
6.605388E+03	1.301291E-16	5.161060E-18
6.615336E+03	1.294018E-16	5.133534E-18
6.625284E+03	1.286810E-16	5.106263E-18
6.635231E+03	1.279637E-16	5.079135E-18
6.645179E+03	1.272531E-16	5.052274E-18
6.655127E+03	1.265434E-16	5.025449E-18
6.665075E+03	1.258437E-16	4.999022E-18
6.675023E+03	1.251483E-16	4.972764E-18
6.684971E+03	1.244572E-16	4.946677E-18
6.694919E+03	1.237735E-16	4.920884E-18
6.704866E+03	1.230945E-16	4.895276E-18
6.714814E+03	1.224232E-16	4.869975E-18
6.724762E+03	1.217597E-16	4.844982E-18
6.734710E+03	1.211014E-16	4.820189E-18
6.744658E+03	1.204510E-16	4.795713E-18
6.754606E+03	1.198060E-16	4.771444E-18
6.764554E+03	1.191720E-16	4.747614E-18
6.774502E+03	1.185408E-16	4.723889E-18
6.784449E+03	1.179208E-16	4.700609E-18
6.794397E+03	1.173065E-16	4.677553E-18
6.804345E+03	1.166981E-16	4.654724E-18
6.814293E+03	1.161012E-16	4.632352E-18
6.824241E+03	1.155103E-16	4.610213E-18
6.834189E+03	1.149282E-16	4.588425E-18
6.844137E+03	1.143523E-16	4.566875E-18
6.854085E+03	1.137854E-16	4.545682E-18
6.864032E+03	1.132275E-16	4.524843E-18
6.873980E+03	1.126788E-16	4.504367E-18
6.883928E+03	1.121365E-16	4.484139E-18
6.893876E+03	1.116035E-16	4.464276E-18
6.903824E+03	1.110797E-16	4.444780E-18
6.913772E+03	1.105654E-16	4.425653E-18
6.923720E+03	1.100577E-16	4.406787E-18
6.933668E+03	1.095594E-16	4.388291E-18
6.943615E+03	1.090679E-16	4.370062E-18
6.953563E+03	1.085859E-16	4.352208E-18
6.963511E+03	1.081135E-16	4.334733E-18
6.973459E+03	1.076507E-16	4.317635E-18
6.983407E+03	1.071949E-16	4.300812E-18
6.993355E+03	1.067487E-16	4.284367E-18
7.003303E+03	1.063097E-16	4.268205E-18
7.013251E+03	1.058803E-16	4.252425E-18
7.023198E+03	1.054607E-16	4.237031E-18
7.033146E+03	1.050483E-16	4.221918E-18
7.043094E+03	1.046431E-16	4.207089E-18
7.053042E+03	1.042478E-16	4.192653E-18
7.062990E+03	1.038624E-16	4.178605E-18
7.072938E+03	1.034843E-16	4.164846E-18
7.082886E+03	1.031161E-16	4.151482E-18
7.092834E+03	1.027553E-16	4.138409E-18
7.102781E+03	1.024020E-16	4.125630E-18
7.112729E+03	1.020586E-16	4.113244E-18
7.122677E+03	1.017227E-16	4.101157E-18
7.132625E+03	1.013944E-16	4.089368E-18
7.142573E+03	1.010762E-16	4.077979E-18
7.152521E+03	1.007655E-16	4.066888E-18
7.162469E+03	1.004623E-16	4.056097E-18
7.172417E+03	1.001669E-16	4.045611E-18
7.182364E+03	9.988160E-17	4.035529E-18
7.192312E+03	9.960398E-17	4.025752E-18
7.202260E+03	9.933412E-17	4.016282E-18
7.212208E+03	9.906944E-17	4.007017E-18
7.222156E+03	9.881505E-17	3.998162E-18
7.232104E+03	9.856852E-17	3.989621E-18
7.242052E+03	9.833223E-17	3.981488E-18
7.252000E+03	9.810133E-17	3.973568E-18
7.261947E+03	9.787583E-17	3.965863E-18
7.271895E+03	9.766067E-17	3.958571E-18
7.281843E+03	9.745345E-17	3.951597E-18
7.291791E+03	9.725426E-17	3.944943E-18
7.301739E+03	9.706051E-17	3.938505E-18
7.311687E+03	9.687481E-17	3.932389E-18
7.321635E+03	9.669708E-17	3.926593E-18
7.331583E+03	9.652752E-17	3.921123E-18
7.341530E+03	9.636603E-17	3.915978E-18
7.351478E+03	9.621013E-17	3.911055E-18
7.361426E+03	9.606241E-17	3.906461E-18
7.371374E+03	9.592045E-17	3.902098E-18
7.381322E+03	9.578662E-17	3.898061E-18
7.391270E+03	9.566110E-17	3.894359E-18
7.401218E+03	9.554137E-17	3.890889E-18
7.411165E+03	9.542989E-17	3.887751E-18
7.421113E+03	9.532421E-17	3.884847E-18
7.431061E+03	9.522697E-17	3.882283E-18
7.441009E+03	9.513802E-17	3.880053E-18
7.450957E+03	9.505261E-17	3.877966E-18
7.460905E+03	9.497559E-17	3.876217E-18
7.470853E+03	9.490705E-17	3.874812E-18
7.480801E+03	9.484446E-17	3.873648E-18
7.490748E+03	9.479038E-17	3.872828E-18
7.500696E+03	9.473998E-17	3.872156E-18
7.510644E+03	9.469801E-17	3.871827E-18
7.520592E+03	9.466475E-17	3.871851E-18
7.530540E+03	9.463750E-17	3.872119E-18
7.540488E+03	9.461650E-17	3.872641E-18
7.550436E+03	9.460161E-17	3.873411E-18
7.560384E+03	9.459546E-17	3.874538E-18
7.570331E+03	9.459297E-17	3.875813E-18
7.580279E+03	9.460172E-17	3.877547E-18
7.590227E+03	9.461431E-17	3.879437E-18
7.600175E+03	9.463305E-17	3.881577E-18
7.610123E+03	9.466067E-17	3.884082E-18
7.620071E+03	9.469456E-17	3.886842E-18
7.630019E+03	9.473487E-17	3.889865E-18
7.639967E+03	9.478394E-17	3.893248E-18
7.649914E+03	9.483682E-17	3.896786E-18
7.659862E+03	9.489872E-17	3.900694E-18
7.669810E+03	9.496436E-17	3.904756E-18
7.679758E+03	9.503896E-17	3.909186E-18
7.689706E+03	9.511997E-17	3.913879E-18
7.699654E+03	9.520732E-17	3.918833E-18
7.709602E+03	9.530117E-17	3.924056E-18
7.719550E+03	9.540137E-17	3.929540E-18
