#wls	flux	fluxerr
1.591660E+03	4.401503E-18	0.000000E+00
1.631451E+03	4.549916E-18	0.000000E+00
1.671243E+03	4.689807E-18	0.000000E+00
1.711034E+03	4.819678E-18	0.000000E+00
1.750826E+03	4.938319E-18	0.000000E+00
1.790617E+03	5.041226E-18	0.000000E+00
1.830409E+03	5.121633E-18	0.000000E+00
1.870200E+03	5.173442E-18	0.000000E+00
1.909992E+03	5.188564E-18	0.000000E+00
1.949783E+03	5.162777E-18	0.000000E+00
1.989575E+03	5.097540E-18	0.000000E+00
2.029366E+03	5.007418E-18	0.000000E+00
2.069158E+03	4.924190E-18	0.000000E+00
2.108949E+03	4.894791E-18	0.000000E+00
2.148741E+03	4.965550E-18	0.000000E+00
2.188532E+03	5.156921E-18	0.000000E+00
2.228324E+03	5.461318E-18	0.000000E+00
2.268115E+03	5.849013E-18	0.000000E+00
2.307907E+03	6.285145E-18	0.000000E+00
2.347698E+03	6.740096E-18	0.000000E+00
2.387490E+03	7.196381E-18	0.000000E+00
2.427281E+03	7.644230E-18	0.000000E+00
2.467073E+03	8.079746E-18	0.000000E+00
2.506864E+03	8.502360E-18	0.000000E+00
2.546656E+03	8.913151E-18	0.000000E+00
2.586447E+03	9.312323E-18	0.000000E+00
2.626239E+03	9.704688E-18	0.000000E+00
2.666030E+03	1.008887E-17	0.000000E+00
2.705821E+03	1.046954E-17	0.000000E+00
2.745613E+03	1.084464E-17	0.000000E+00
2.785404E+03	1.121857E-17	0.000000E+00
2.825196E+03	1.158859E-17	0.000000E+00
2.864987E+03	1.195703E-17	0.000000E+00
2.904779E+03	1.232628E-17	0.000000E+00
2.944570E+03	1.269285E-17	0.000000E+00
2.984362E+03	1.305883E-17	0.000000E+00
2.994310E+03	1.314943E-17	0.000000E+00
3.004258E+03	1.324190E-17	0.000000E+00
3.014206E+03	1.333423E-17	0.000000E+00
3.024153E+03	1.342451E-17	0.000000E+00
3.034101E+03	1.351743E-17	0.000000E+00
3.044049E+03	1.361137E-17	0.000000E+00
3.053997E+03	1.370442E-17	0.000000E+00
3.063945E+03	1.380057E-17	0.000000E+00
3.073893E+03	1.389755E-17	0.000000E+00
3.083841E+03	1.399520E-17	0.000000E+00
3.093789E+03	1.409337E-17	0.000000E+00
3.103736E+03	1.419192E-17	0.000000E+00
3.113684E+03	1.429289E-17	0.000000E+00
3.123632E+03	1.439183E-17	0.000000E+00
3.133580E+03	1.449082E-17	0.000000E+00
3.143528E+03	1.458974E-17	0.000000E+00
3.153476E+03	1.469071E-17	0.000000E+00
3.163424E+03	1.478927E-17	0.000000E+00
3.173372E+03	1.488975E-17	0.000000E+00
3.183319E+03	1.498767E-17	0.000000E+00
3.193267E+03	1.508741E-17	0.000000E+00
3.203215E+03	1.518672E-17	0.000000E+00
3.213163E+03	1.528328E-17	0.000000E+00
3.223111E+03	1.538157E-17	0.000000E+00
3.233059E+03	1.547933E-17	0.000000E+00
3.243007E+03	1.557650E-17	0.000000E+00
3.252955E+03	1.567308E-17	0.000000E+00
3.262902E+03	1.576904E-17	0.000000E+00
3.272850E+03	1.586438E-17	0.000000E+00
3.282798E+03	1.595907E-17	0.000000E+00
3.292746E+03	1.605312E-17	0.000000E+00
3.302694E+03	1.614889E-17	0.000000E+00
3.312642E+03	1.624165E-17	0.000000E+00
3.322590E+03	1.633377E-17	0.000000E+00
3.332538E+03	1.642763E-17	0.000000E+00
3.342485E+03	1.651848E-17	0.000000E+00
3.352433E+03	1.660869E-17	0.000000E+00
3.362381E+03	1.670070E-17	0.000000E+00
3.372329E+03	1.679213E-17	0.000000E+00
3.382277E+03	1.688054E-17	0.000000E+00
3.392225E+03	1.697081E-17	0.000000E+00
3.402173E+03	1.706054E-17	0.000000E+00
3.412120E+03	1.714726E-17	0.000000E+00
3.422068E+03	1.723593E-17	0.000000E+00
3.432016E+03	1.732409E-17	0.000000E+00
3.441964E+03	1.741177E-17	0.000000E+00
3.451912E+03	1.749898E-17	0.000000E+00
3.461860E+03	1.758575E-17	0.000000E+00
3.471808E+03	1.767208E-17	0.000000E+00
3.481756E+03	1.775801E-17	0.000000E+00
3.491703E+03	1.784354E-17	0.000000E+00
3.501651E+03	1.792870E-17	0.000000E+00
3.511599E+03	1.801606E-17	0.000000E+00
3.521547E+03	1.810053E-17	0.000000E+00
3.531495E+03	1.818470E-17	0.000000E+00
3.541443E+03	1.826855E-17	0.000000E+00
3.551391E+03	1.835471E-17	0.000000E+00
3.561339E+03	1.843803E-17	0.000000E+00
3.571286E+03	1.852370E-17	0.000000E+00
3.581234E+03	1.860655E-17	0.000000E+00
3.591182E+03	1.869179E-17	0.000000E+00
3.601130E+03	1.877423E-17	0.000000E+00
3.611078E+03	1.885911E-17	0.000000E+00
3.621026E+03	1.894122E-17	0.000000E+00
3.630974E+03	1.902580E-17	0.000000E+00
3.640922E+03	1.911025E-17	0.000000E+00
3.650869E+03	1.919195E-17	0.000000E+00
3.660817E+03	1.927618E-17	0.000000E+00
3.670765E+03	1.936033E-17	0.000000E+00
3.680713E+03	1.944440E-17	0.000000E+00
3.690661E+03	1.952841E-17	0.000000E+00
3.700609E+03	1.960968E-17	0.000000E+00
3.710557E+03	1.969358E-17	0.000000E+00
3.720505E+03	1.977745E-17	0.000000E+00
3.730452E+03	1.986129E-17	0.000000E+00
3.740400E+03	1.994512E-17	0.000000E+00
3.750348E+03	2.002893E-17	0.000000E+00
3.760296E+03	2.011274E-17	0.000000E+00
3.770244E+03	2.019655E-17	0.000000E+00
3.780192E+03	2.028038E-17	0.000000E+00
3.790140E+03	2.036421E-17	0.000000E+00
3.800088E+03	2.044807E-17	0.000000E+00
3.810035E+03	2.053195E-17	0.000000E+00
3.819983E+03	2.061586E-17	0.000000E+00
3.829931E+03	2.069979E-17	0.000000E+00
3.839879E+03	2.078377E-17	0.000000E+00
3.849827E+03	2.086778E-17	0.000000E+00
3.859775E+03	2.095461E-17	0.000000E+00
3.869723E+03	2.103870E-17	0.000000E+00
3.879671E+03	2.112282E-17	0.000000E+00
3.889618E+03	2.120699E-17	0.000000E+00
3.899566E+03	2.129120E-17	0.000000E+00
3.909514E+03	2.137544E-17	0.000000E+00
3.919462E+03	2.145972E-17	0.000000E+00
3.929410E+03	2.154687E-17	0.000000E+00
3.939358E+03	2.163122E-17	0.000000E+00
3.949306E+03	2.171560E-17	0.000000E+00
3.959254E+03	2.180000E-17	0.000000E+00
3.969201E+03	2.188443E-17	0.000000E+00
3.979149E+03	2.196887E-17	0.000000E+00
3.989097E+03	2.205619E-17	0.000000E+00
3.999045E+03	2.214066E-17	0.000000E+00
4.008993E+03	2.222513E-17	0.000000E+00
4.018941E+03	2.230959E-17	0.000000E+00
4.028889E+03	2.239404E-17	0.000000E+00
4.038836E+03	2.247848E-17	0.000000E+00
4.048784E+03	2.256288E-17	0.000000E+00
4.058732E+03	2.264726E-17	0.000000E+00
4.068680E+03	2.273159E-17	0.000000E+00
4.078628E+03	2.281587E-17	0.000000E+00
4.088576E+03	2.290009E-17	0.000000E+00
4.098524E+03	2.298424E-17	0.000000E+00
4.108472E+03	2.306831E-17	0.000000E+00
4.118419E+03	2.315229E-17	0.000000E+00
4.128367E+03	2.323617E-17	0.000000E+00
4.138315E+03	2.331993E-17	0.000000E+00
4.148263E+03	2.340357E-17	0.000000E+00
4.158211E+03	2.348707E-17	0.000000E+00
4.168159E+03	2.357042E-17	0.000000E+00
4.178107E+03	2.365362E-17	0.000000E+00
4.188055E+03	2.373663E-17	0.000000E+00
4.198002E+03	2.381646E-17	0.000000E+00
4.207950E+03	2.389907E-17	0.000000E+00
4.217898E+03	2.398147E-17	0.000000E+00
4.227846E+03	2.406363E-17	0.000000E+00
4.237794E+03	2.414252E-17	0.000000E+00
4.247742E+03	2.422415E-17	0.000000E+00
4.257690E+03	2.430248E-17	0.000000E+00
4.267638E+03	2.438353E-17	0.000000E+00
4.277585E+03	2.446123E-17	0.000000E+00
4.287533E+03	2.454162E-17	0.000000E+00
4.297481E+03	2.461861E-17	0.000000E+00
4.307429E+03	2.469827E-17	0.000000E+00
4.317377E+03	2.477449E-17	0.000000E+00
4.327325E+03	2.485028E-17	0.000000E+00
4.337273E+03	2.492563E-17	0.000000E+00
4.347221E+03	2.500360E-17	0.000000E+00
4.357168E+03	2.507801E-17	0.000000E+00
4.367116E+03	2.515193E-17	0.000000E+00
4.377064E+03	2.522532E-17	0.000000E+00
4.387012E+03	2.529817E-17	0.000000E+00
4.396960E+03	2.537044E-17	0.000000E+00
4.406908E+03	2.544213E-17	0.000000E+00
4.416856E+03	2.551320E-17	0.000000E+00
4.426804E+03	2.558053E-17	0.000000E+00
4.436751E+03	2.565030E-17	0.000000E+00
4.446699E+03	2.571938E-17	0.000000E+00
4.456647E+03	2.578463E-17	0.000000E+00
4.466595E+03	2.585227E-17	0.000000E+00
4.476543E+03	2.591913E-17	0.000000E+00
4.486491E+03	2.598208E-17	0.000000E+00
4.496439E+03	2.604421E-17	0.000000E+00
4.506387E+03	2.610863E-17	0.000000E+00
4.516334E+03	2.616903E-17	0.000000E+00
4.526282E+03	2.622854E-17	0.000000E+00
4.536230E+03	2.628711E-17	0.000000E+00
4.546178E+03	2.634472E-17	0.000000E+00
4.556126E+03	2.640135E-17	0.000000E+00
4.566074E+03	2.645696E-17	0.000000E+00
4.576022E+03	2.651152E-17	0.000000E+00
4.585970E+03	2.656501E-17	0.000000E+00
4.595917E+03	2.661739E-17	0.000000E+00
4.605865E+03	2.666548E-17	0.000000E+00
4.615813E+03	2.671556E-17	0.000000E+00
4.625761E+03	2.676129E-17	0.000000E+00
4.635709E+03	2.680895E-17	0.000000E+00
4.645657E+03	2.685218E-17	0.000000E+00
4.655605E+03	2.689413E-17	0.000000E+00
4.665553E+03	2.693793E-17	0.000000E+00
4.675500E+03	2.697722E-17	0.000000E+00
4.685448E+03	2.701513E-17	0.000000E+00
4.695396E+03	2.705163E-17	0.000000E+00
4.705344E+03	2.708671E-17	0.000000E+00
4.715292E+03	2.712032E-17	0.000000E+00
4.725240E+03	2.714928E-17	0.000000E+00
4.735188E+03	2.717990E-17	0.000000E+00
4.745135E+03	2.720900E-17	0.000000E+00
4.755083E+03	2.723339E-17	0.000000E+00
4.765031E+03	2.725938E-17	0.000000E+00
4.774979E+03	2.728065E-17	0.000000E+00
4.784927E+03	2.730034E-17	0.000000E+00
4.794875E+03	2.731846E-17	0.000000E+00
4.804823E+03	2.733501E-17	0.000000E+00
4.814771E+03	2.735000E-17	0.000000E+00
4.824718E+03	2.736344E-17	0.000000E+00
4.834666E+03	2.737534E-17	0.000000E+00
4.844614E+03	2.738573E-17	0.000000E+00
4.854562E+03	2.739462E-17	0.000000E+00
4.864510E+03	2.739888E-17	0.000000E+00
4.874458E+03	2.740486E-17	0.000000E+00
4.884406E+03	2.740626E-17	0.000000E+00
4.894354E+03	2.740941E-17	0.000000E+00
4.904301E+03	2.740804E-17	0.000000E+00
4.914249E+03	2.740535E-17	0.000000E+00
4.924197E+03	2.740134E-17	0.000000E+00
4.934145E+03	2.739606E-17	0.000000E+00
4.944093E+03	2.738953E-17	0.000000E+00
4.954041E+03	2.738177E-17	0.000000E+00
4.963989E+03	2.736970E-17	0.000000E+00
4.973937E+03	2.735960E-17	0.000000E+00
4.983884E+03	2.734835E-17	0.000000E+00
4.993832E+03	2.733289E-17	0.000000E+00
5.003780E+03	2.731636E-17	0.000000E+00
5.013728E+03	2.730190E-17	0.000000E+00
5.023676E+03	2.728330E-17	0.000000E+00
5.033624E+03	2.726373E-17	0.000000E+00
5.043572E+03	2.724320E-17	0.000000E+00
5.053520E+03	2.722173E-17	0.000000E+00
5.063467E+03	2.719935E-17	0.000000E+00
5.073415E+03	2.717610E-17	0.000000E+00
5.083363E+03	2.714893E-17	0.000000E+00
5.093311E+03	2.712399E-17	0.000000E+00
5.103259E+03	2.709520E-17	0.000000E+00
5.113207E+03	2.706869E-17	0.000000E+00
5.123155E+03	2.703838E-17	0.000000E+00
5.133103E+03	2.700734E-17	0.000000E+00
5.143050E+03	2.697561E-17	0.000000E+00
5.152998E+03	2.694320E-17	0.000000E+00
5.162946E+03	2.691013E-17	0.000000E+00
5.172894E+03	2.687644E-17	0.000000E+00
5.182842E+03	2.684213E-17	0.000000E+00
5.192790E+03	2.680722E-17	0.000000E+00
5.202738E+03	2.676876E-17	0.000000E+00
5.212686E+03	2.673273E-17	0.000000E+00
5.222633E+03	2.669320E-17	0.000000E+00
5.232581E+03	2.665316E-17	0.000000E+00
5.242529E+03	2.661561E-17	0.000000E+00
5.252477E+03	2.657461E-17	0.000000E+00
5.262425E+03	2.653317E-17	0.000000E+00
5.272373E+03	2.649129E-17	0.000000E+00
5.282321E+03	2.644899E-17	0.000000E+00
5.292269E+03	2.640629E-17	0.000000E+00
5.302216E+03	2.636027E-17	0.000000E+00
5.312164E+03	2.631681E-17	0.000000E+00
5.322112E+03	2.627008E-17	0.000000E+00
5.332060E+03	2.622593E-17	0.000000E+00
5.342008E+03	2.617854E-17	0.000000E+00
5.351956E+03	2.613374E-17	0.000000E+00
5.361904E+03	2.608574E-17	0.000000E+00
5.371851E+03	2.603745E-17	0.000000E+00
5.381799E+03	2.598888E-17	0.000000E+00
5.391747E+03	2.594006E-17	0.000000E+00
5.401695E+03	2.589099E-17	0.000000E+00
5.411643E+03	2.584166E-17	0.000000E+00
5.421591E+03	2.578925E-17	0.000000E+00
5.431539E+03	2.573947E-17	0.000000E+00
5.441487E+03	2.568663E-17	0.000000E+00
5.451434E+03	2.563643E-17	0.000000E+00
5.461382E+03	2.558320E-17	0.000000E+00
5.471330E+03	2.553260E-17	0.000000E+00
5.481278E+03	2.547899E-17	0.000000E+00
5.491226E+03	2.542522E-17	0.000000E+00
5.501174E+03	2.537128E-17	0.000000E+00
5.511122E+03	2.531717E-17	0.000000E+00
5.521070E+03	2.526290E-17	0.000000E+00
5.531017E+03	2.520849E-17	0.000000E+00
5.540965E+03	2.515115E-17	0.000000E+00
5.550913E+03	2.509644E-17	0.000000E+00
5.560861E+03	2.504159E-17	0.000000E+00
5.570809E+03	2.498384E-17	0.000000E+00
5.580757E+03	2.492872E-17	0.000000E+00
5.590705E+03	2.487071E-17	0.000000E+00
5.600653E+03	2.481259E-17	0.000000E+00
5.610600E+03	2.475707E-17	0.000000E+00
5.620548E+03	2.469870E-17	0.000000E+00
5.630496E+03	2.464020E-17	0.000000E+00
5.640444E+03	2.458160E-17	0.000000E+00
5.650392E+03	2.452286E-17	0.000000E+00
5.660340E+03	2.446401E-17	0.000000E+00
5.670288E+03	2.440237E-17	0.000000E+00
5.680236E+03	2.434328E-17	0.000000E+00
5.690183E+03	2.428407E-17	0.000000E+00
5.700131E+03	2.422208E-17	0.000000E+00
5.710079E+03	2.416264E-17	0.000000E+00
5.720027E+03	2.410041E-17	0.000000E+00
5.729975E+03	2.404071E-17	0.000000E+00
5.739923E+03	2.397825E-17	0.000000E+00
5.749871E+03	2.391567E-17	0.000000E+00
5.759819E+03	2.385297E-17	0.000000E+00
5.769766E+03	2.379014E-17	0.000000E+00
5.779714E+03	2.372718E-17	0.000000E+00
5.789662E+03	2.366410E-17	0.000000E+00
5.799610E+03	2.360088E-17	0.000000E+00
5.809558E+03	2.353753E-17	0.000000E+00
5.819506E+03	2.347403E-17	0.000000E+00
5.829454E+03	2.341039E-17	0.000000E+00
5.839402E+03	2.334404E-17	0.000000E+00
5.849349E+03	2.328010E-17	0.000000E+00
5.859297E+03	2.321602E-17	0.000000E+00
5.869245E+03	2.314924E-17	0.000000E+00
5.879193E+03	2.308231E-17	0.000000E+00
5.889141E+03	2.301775E-17	0.000000E+00
5.899089E+03	2.295051E-17	0.000000E+00
5.909037E+03	2.288311E-17	0.000000E+00
5.918985E+03	2.281804E-17	0.000000E+00
5.928932E+03	2.275031E-17	0.000000E+00
5.938880E+03	2.268240E-17	0.000000E+00
5.948828E+03	2.261432E-17	0.000000E+00
5.958776E+03	2.254606E-17	0.000000E+00
5.968724E+03	2.247763E-17	0.000000E+00
5.978672E+03	2.240900E-17	0.000000E+00
5.988620E+03	2.233775E-17	0.000000E+00
5.998568E+03	2.226876E-17	0.000000E+00
6.008515E+03	2.219958E-17	0.000000E+00
6.018463E+03	2.213020E-17	0.000000E+00
6.028411E+03	2.205821E-17	0.000000E+00
6.038359E+03	2.198844E-17	0.000000E+00
6.048307E+03	2.191606E-17	0.000000E+00
6.058255E+03	2.184589E-17	0.000000E+00
6.068203E+03	2.177312E-17	0.000000E+00
6.078150E+03	2.170015E-17	0.000000E+00
6.088098E+03	2.162937E-17	0.000000E+00
6.098046E+03	2.155600E-17	0.000000E+00
6.107994E+03	2.148245E-17	0.000000E+00
6.117942E+03	2.140868E-17	0.000000E+00
6.127890E+03	2.133472E-17	0.000000E+00
6.137838E+03	2.126289E-17	0.000000E+00
6.147786E+03	2.118851E-17	0.000000E+00
6.157733E+03	2.111394E-17	0.000000E+00
6.167681E+03	2.103916E-17	0.000000E+00
6.177629E+03	2.096189E-17	0.000000E+00
6.187577E+03	2.088672E-17	0.000000E+00
6.197525E+03	2.081136E-17	0.000000E+00
6.207473E+03	2.073579E-17	0.000000E+00
6.217421E+03	2.066003E-17	0.000000E+00
6.227369E+03	2.058182E-17	0.000000E+00
6.237316E+03	2.050568E-17	0.000000E+00
6.247264E+03	2.042936E-17	0.000000E+00
6.257212E+03	2.035061E-17	0.000000E+00
6.267160E+03	2.027393E-17	0.000000E+00
6.277108E+03	2.019485E-17	0.000000E+00
6.287056E+03	2.011782E-17	0.000000E+00
6.297004E+03	2.003842E-17	0.000000E+00
6.306952E+03	1.995887E-17	0.000000E+00
6.316899E+03	1.988135E-17	0.000000E+00
6.326847E+03	1.980151E-17	0.000000E+00
6.336795E+03	1.972153E-17	0.000000E+00
6.346743E+03	1.964358E-17	0.000000E+00
6.356691E+03	1.956334E-17	0.000000E+00
6.366639E+03	1.948298E-17	0.000000E+00
6.376587E+03	1.940251E-17	0.000000E+00
6.386535E+03	1.932194E-17	0.000000E+00
6.396482E+03	1.924128E-17	0.000000E+00
6.406430E+03	1.916052E-17	0.000000E+00
6.416378E+03	1.907969E-17	0.000000E+00
6.426326E+03	1.899878E-17	0.000000E+00
6.436274E+03	1.891780E-17	0.000000E+00
6.446222E+03	1.883678E-17	0.000000E+00
6.456170E+03	1.875570E-17	0.000000E+00
6.466118E+03	1.867458E-17	0.000000E+00
6.476065E+03	1.859344E-17	0.000000E+00
6.486013E+03	1.851023E-17	0.000000E+00
6.495961E+03	1.842906E-17	0.000000E+00
6.505909E+03	1.834789E-17	0.000000E+00
6.515857E+03	1.826470E-17	0.000000E+00
6.525805E+03	1.818357E-17	0.000000E+00
6.535753E+03	1.810247E-17	0.000000E+00
6.545701E+03	1.801941E-17	0.000000E+00
6.555648E+03	1.793839E-17	0.000000E+00
6.565596E+03	1.785547E-17	0.000000E+00
6.575544E+03	1.777459E-17	0.000000E+00
6.585492E+03	1.769185E-17	0.000000E+00
6.595440E+03	1.761115E-17	0.000000E+00
6.605388E+03	1.752863E-17	0.000000E+00
6.615336E+03	1.744816E-17	0.000000E+00
6.625284E+03	1.736590E-17	0.000000E+00
6.635231E+03	1.728378E-17	0.000000E+00
6.645179E+03	1.720374E-17	0.000000E+00
6.655127E+03	1.712195E-17	0.000000E+00
6.665075E+03	1.704035E-17	0.000000E+00
6.675023E+03	1.695895E-17	0.000000E+00
6.684971E+03	1.687962E-17	0.000000E+00
6.694919E+03	1.679864E-17	0.000000E+00
6.704866E+03	1.671788E-17	0.000000E+00
6.714814E+03	1.663736E-17	0.000000E+00
6.724762E+03	1.655709E-17	0.000000E+00
6.734710E+03	1.647708E-17	0.000000E+00
6.744658E+03	1.639734E-17	0.000000E+00
6.754606E+03	1.631789E-17	0.000000E+00
6.764554E+03	1.623872E-17	0.000000E+00
6.774502E+03	1.615986E-17	0.000000E+00
6.784449E+03	1.608131E-17	0.000000E+00
6.794397E+03	1.600308E-17	0.000000E+00
6.804345E+03	1.592518E-17	0.000000E+00
6.814293E+03	1.584763E-17	0.000000E+00
6.824241E+03	1.577043E-17	0.000000E+00
6.834189E+03	1.569184E-17	0.000000E+00
6.844137E+03	1.561537E-17	0.000000E+00
6.854085E+03	1.553928E-17	0.000000E+00
6.864032E+03	1.546358E-17	0.000000E+00
6.873980E+03	1.538655E-17	0.000000E+00
6.883928E+03	1.531166E-17	0.000000E+00
6.893876E+03	1.523719E-17	0.000000E+00
6.903824E+03	1.516143E-17	0.000000E+00
6.913772E+03	1.508781E-17	0.000000E+00
6.923720E+03	1.501462E-17	0.000000E+00
6.933668E+03	1.494020E-17	0.000000E+00
6.943615E+03	1.486792E-17	0.000000E+00
6.953563E+03	1.479444E-17	0.000000E+00
6.963511E+03	1.472308E-17	0.000000E+00
6.973459E+03	1.465055E-17	0.000000E+00
6.983407E+03	1.457852E-17	0.000000E+00
6.993355E+03	1.450861E-17	0.000000E+00
7.003303E+03	1.443757E-17	0.000000E+00
7.013251E+03	1.436866E-17	0.000000E+00
7.023198E+03	1.429863E-17	0.000000E+00
7.033146E+03	1.422913E-17	0.000000E+00
7.043094E+03	1.416016E-17	0.000000E+00
7.053042E+03	1.409330E-17	0.000000E+00
7.062990E+03	1.402538E-17	0.000000E+00
7.072938E+03	1.395801E-17	0.000000E+00
7.082886E+03	1.389117E-17	0.000000E+00
7.092834E+03	1.382488E-17	0.000000E+00
7.102781E+03	1.375914E-17	0.000000E+00
7.112729E+03	1.369396E-17	0.000000E+00
7.122677E+03	1.362934E-17	0.000000E+00
7.132625E+03	1.356527E-17	0.000000E+00
7.142573E+03	1.350177E-17	0.000000E+00
7.152521E+03	1.343884E-17	0.000000E+00
7.162469E+03	1.337648E-17	0.000000E+00
7.172417E+03	1.331468E-17	0.000000E+00
7.182364E+03	1.325346E-17	0.000000E+00
7.192312E+03	1.319281E-17	0.000000E+00
7.202260E+03	1.313274E-17	0.000000E+00
7.212208E+03	1.307177E-17	0.000000E+00
7.222156E+03	1.301286E-17	0.000000E+00
7.232104E+03	1.295453E-17	0.000000E+00
7.242052E+03	1.289679E-17	0.000000E+00
7.252000E+03	1.283817E-17	0.000000E+00
7.261947E+03	1.278160E-17	0.000000E+00
7.271895E+03	1.272561E-17	0.000000E+00
7.281843E+03	1.266876E-17	0.000000E+00
7.291791E+03	1.261395E-17	0.000000E+00
7.301739E+03	1.255829E-17	0.000000E+00
7.311687E+03	1.250464E-17	0.000000E+00
7.321635E+03	1.245017E-17	0.000000E+00
7.331583E+03	1.239629E-17	0.000000E+00
7.341530E+03	1.234440E-17	0.000000E+00
7.351478E+03	1.229170E-17	0.000000E+00
7.361426E+03	1.223959E-17	0.000000E+00
7.371374E+03	1.218946E-17	0.000000E+00
7.381322E+03	1.213852E-17	0.000000E+00
7.391270E+03	1.208817E-17	0.000000E+00
7.401218E+03	1.203840E-17	0.000000E+00
7.411165E+03	1.199060E-17	0.000000E+00
7.421113E+03	1.194200E-17	0.000000E+00
7.431061E+03	1.189398E-17	0.000000E+00
7.441009E+03	1.184653E-17	0.000000E+00
7.450957E+03	1.179967E-17	0.000000E+00
7.460905E+03	1.175338E-17	0.000000E+00
7.470853E+03	1.170766E-17	0.000000E+00
7.480801E+03	1.166250E-17	0.000000E+00
7.490748E+03	1.161659E-17	0.000000E+00
7.500696E+03	1.157257E-17	0.000000E+00
7.510644E+03	1.152912E-17	0.000000E+00
7.520592E+03	1.148624E-17	0.000000E+00
7.530540E+03	1.144391E-17	0.000000E+00
7.540488E+03	1.140081E-17	0.000000E+00
7.550436E+03	1.135959E-17	0.000000E+00
7.560384E+03	1.131891E-17	0.000000E+00
7.570331E+03	1.127747E-17	0.000000E+00
7.580279E+03	1.123788E-17	0.000000E+00
7.590227E+03	1.119754E-17	0.000000E+00
7.600175E+03	1.115902E-17	0.000000E+00
7.610123E+03	1.111976E-17	0.000000E+00
7.620071E+03	1.108103E-17	0.000000E+00
7.630019E+03	1.104410E-17	0.000000E+00
7.639967E+03	1.100643E-17	0.000000E+00
7.649914E+03	1.096927E-17	0.000000E+00
7.659862E+03	1.093391E-17	0.000000E+00
7.669810E+03	1.089779E-17	0.000000E+00
7.679758E+03	1.086218E-17	0.000000E+00
7.689706E+03	1.082708E-17	0.000000E+00
7.699654E+03	1.079248E-17	0.000000E+00
7.709602E+03	1.075839E-17	0.000000E+00
7.719550E+03	1.072479E-17	0.000000E+00
