#wls	flux	fluxerr
1.591660E+03	4.536679E-03	3.921625E-05
1.631451E+03	4.647054E-03	4.010939E-05
1.671243E+03	4.765818E-03	4.107062E-05
1.711034E+03	4.893239E-03	4.210182E-05
1.750826E+03	5.030029E-03	4.320862E-05
1.790617E+03	5.177330E-03	4.440030E-05
1.830409E+03	5.334549E-03	4.567118E-05
1.870200E+03	5.503281E-03	4.703433E-05
1.909992E+03	5.683832E-03	4.849168E-05
1.949783E+03	5.876553E-03	5.004552E-05
1.989575E+03	6.081421E-03	5.169489E-05
2.029366E+03	6.298909E-03	5.344306E-05
2.069158E+03	6.528727E-03	5.528676E-05
2.108949E+03	6.769900E-03	5.721693E-05
2.148741E+03	7.022806E-03	5.923595E-05
2.188532E+03	7.286365E-03	6.133393E-05
2.228324E+03	7.560086E-03	6.350592E-05
2.268115E+03	7.844509E-03	6.575567E-05
2.307907E+03	8.141180E-03	6.809528E-05
2.347698E+03	8.453102E-03	7.054888E-05
2.387490E+03	8.783956E-03	7.314598E-05
2.427281E+03	9.137777E-03	7.591877E-05
2.467073E+03	9.520219E-03	7.891247E-05
2.506864E+03	9.936323E-03	8.216678E-05
2.546656E+03	1.039262E-02	8.573323E-05
2.586447E+03	1.089531E-02	8.966010E-05
2.626239E+03	1.145211E-02	9.400747E-05
2.666030E+03	1.207125E-02	9.883891E-05
2.705821E+03	1.276259E-02	1.042306E-04
2.745613E+03	1.353800E-02	1.102742E-04
2.785404E+03	1.441137E-02	1.170764E-04
2.825196E+03	1.539950E-02	1.247665E-04
2.864987E+03	1.652363E-02	1.335077E-04
2.904779E+03	1.780835E-02	1.434884E-04
2.944570E+03	1.928544E-02	1.549522E-04
2.984362E+03	2.099090E-02	1.681736E-04
2.994310E+03	2.145844E-02	1.717955E-04
3.004258E+03	2.194332E-02	1.755506E-04
3.014206E+03	2.244624E-02	1.794438E-04
3.024153E+03	2.296890E-02	1.834886E-04
3.034101E+03	2.351153E-02	1.876864E-04
3.044049E+03	2.407487E-02	1.920428E-04
3.053997E+03	2.466018E-02	1.965672E-04
3.063945E+03	2.526765E-02	2.012611E-04
3.073893E+03	2.589802E-02	2.061298E-04
3.083841E+03	2.655308E-02	2.111870E-04
3.093789E+03	2.723242E-02	2.164291E-04
3.103736E+03	2.793724E-02	2.218652E-04
3.113684E+03	2.866754E-02	2.274948E-04
3.123632E+03	2.942556E-02	2.333352E-04
3.133580E+03	3.021001E-02	2.393755E-04
3.143528E+03	3.102175E-02	2.456223E-04
3.153476E+03	3.186153E-02	2.520808E-04
3.163424E+03	3.272938E-02	2.587508E-04
3.173372E+03	3.362384E-02	2.656202E-04
3.183319E+03	3.454630E-02	2.726996E-04
3.193267E+03	3.549479E-02	2.799727E-04
3.203215E+03	3.646885E-02	2.874355E-04
3.213163E+03	3.746640E-02	2.950712E-04
3.223111E+03	3.848623E-02	3.028698E-04
3.233059E+03	3.952603E-02	3.108126E-04
3.243007E+03	4.058297E-02	3.188771E-04
3.252955E+03	4.165301E-02	3.270312E-04
3.262902E+03	4.273291E-02	3.352492E-04
3.272850E+03	4.381818E-02	3.434957E-04
3.282798E+03	4.490301E-02	3.517252E-04
3.292746E+03	4.598246E-02	3.598989E-04
3.302694E+03	4.704960E-02	3.679627E-04
3.312642E+03	4.809848E-02	3.758702E-04
3.322590E+03	4.912120E-02	3.835603E-04
3.332538E+03	5.011024E-02	3.909747E-04
3.342485E+03	5.105782E-02	3.980533E-04
3.352433E+03	5.195590E-02	4.047343E-04
3.362381E+03	5.279652E-02	4.109566E-04
3.372329E+03	5.357081E-02	4.166523E-04
3.382277E+03	5.427185E-02	4.217688E-04
3.392225E+03	5.489069E-02	4.262380E-04
3.402173E+03	5.542207E-02	4.300207E-04
3.412120E+03	5.585851E-02	4.330605E-04
3.422068E+03	5.619507E-02	4.353209E-04
3.432016E+03	5.642809E-02	4.367754E-04
3.441964E+03	5.655466E-02	4.374035E-04
3.451912E+03	5.657508E-02	4.372095E-04
3.461860E+03	5.649007E-02	4.362010E-04
3.471808E+03	5.630207E-02	4.343988E-04
3.481756E+03	5.601648E-02	4.318463E-04
3.491703E+03	5.563954E-02	4.285938E-04
3.501651E+03	5.518090E-02	4.247169E-04
3.511599E+03	5.464883E-02	4.202810E-04
3.521547E+03	5.405577E-02	4.153830E-04
3.531495E+03	5.341378E-02	4.101167E-04
3.541443E+03	5.273644E-02	4.045872E-04
3.551391E+03	5.203655E-02	3.988933E-04
3.561339E+03	5.132800E-02	3.931418E-04
3.571286E+03	5.062576E-02	3.874475E-04
3.581234E+03	4.994224E-02	3.819052E-04
3.591182E+03	4.929180E-02	3.766243E-04
3.601130E+03	4.868698E-02	3.716998E-04
3.611078E+03	4.813892E-02	3.672161E-04
3.621026E+03	4.765838E-02	3.632539E-04
3.630974E+03	4.725554E-02	3.598897E-04
3.640922E+03	4.693828E-02	3.571819E-04
3.650869E+03	4.671477E-02	3.551910E-04
3.660817E+03	4.658976E-02	3.539516E-04
3.670765E+03	4.656819E-02	3.534991E-04
3.680713E+03	4.665303E-02	3.538543E-04
3.690661E+03	4.684625E-02	3.550302E-04
3.700609E+03	4.714735E-02	3.570208E-04
3.710557E+03	4.755512E-02	3.598153E-04
3.720505E+03	4.806618E-02	3.633860E-04
3.730452E+03	4.867578E-02	3.676951E-04
3.740400E+03	4.937671E-02	3.726866E-04
3.750348E+03	5.016017E-02	3.782924E-04
3.760296E+03	5.101464E-02	3.844242E-04
3.770244E+03	5.192618E-02	3.909758E-04
3.780192E+03	5.288019E-02	3.978364E-04
3.790140E+03	6.214194E-02	4.671375E-04
3.791184E+03	6.224075E-02	4.678405E-04
3.792229E+03	6.230630E-02	4.682934E-04
3.793273E+03	6.241641E-02	4.690812E-04
3.794318E+03	6.250839E-02	4.697325E-04
3.795362E+03	6.259130E-02	4.703157E-04
3.796407E+03	6.271872E-02	4.712331E-04
3.797451E+03	6.285821E-02	4.722410E-04
3.798496E+03	6.295925E-02	4.729600E-04
3.799540E+03	6.306253E-02	4.736957E-04
3.800585E+03	6.321027E-02	4.747651E-04
3.801629E+03	6.336635E-02	4.758971E-04
3.802674E+03	6.347870E-02	4.767004E-04
3.803719E+03	6.357368E-02	4.773732E-04
3.804763E+03	6.371240E-02	4.783743E-04
3.805808E+03	6.386767E-02	4.794995E-04
3.806852E+03	6.400415E-02	4.804834E-04
3.807897E+03	6.416396E-02	4.816422E-04
3.808941E+03	6.431627E-02	4.827447E-04
3.809986E+03	6.446401E-02	4.838125E-04
3.811030E+03	6.464494E-02	4.851294E-04
3.812075E+03	6.481380E-02	4.863554E-04
3.813119E+03	6.496006E-02	4.874116E-04
3.814164E+03	6.516212E-02	4.888864E-04
3.815208E+03	6.539051E-02	4.905583E-04
3.816253E+03	6.557368E-02	4.918909E-04
3.817297E+03	6.574408E-02	4.931273E-04
3.818342E+03	6.595368E-02	4.946576E-04
3.819386E+03	6.614739E-02	4.960685E-04
3.820431E+03	6.628158E-02	4.970328E-04
3.821475E+03	6.639923E-02	4.978729E-04
3.822520E+03	6.654319E-02	4.989102E-04
3.823565E+03	6.672713E-02	5.002469E-04
3.824609E+03	6.691112E-02	5.015839E-04
3.825654E+03	6.707622E-02	5.027790E-04
3.826698E+03	6.721942E-02	5.038098E-04
3.827743E+03	6.735438E-02	5.047787E-04
3.828787E+03	6.745843E-02	5.055158E-04
3.829832E+03	6.752404E-02	5.059647E-04
3.830876E+03	6.759117E-02	5.064249E-04
3.831921E+03	6.765525E-02	5.068623E-04
3.832965E+03	6.770278E-02	5.071755E-04
3.834010E+03	6.775026E-02	5.074884E-04
3.835054E+03	6.781210E-02	5.079087E-04
3.836099E+03	6.786417E-02	5.082558E-04
3.837143E+03	6.791542E-02	5.085967E-04
3.838188E+03	6.797578E-02	5.090058E-04
3.839232E+03	6.800142E-02	5.091549E-04
3.840277E+03	6.800221E-02	5.091179E-04
3.841321E+03	6.800447E-02	5.090919E-04
3.842366E+03	6.799019E-02	5.089421E-04
3.843411E+03	6.795254E-02	5.086174E-04
3.844455E+03	6.792390E-02	5.083602E-04
3.845500E+03	6.789001E-02	5.080638E-04
3.846544E+03	6.785537E-02	5.077617E-04
3.847589E+03	6.779811E-02	5.072906E-04
3.848633E+03	6.773179E-02	5.067517E-04
3.849678E+03	6.769261E-02	5.064159E-04
3.850722E+03	6.762858E-02	5.058944E-04
3.851767E+03	6.754719E-02	5.052430E-04
3.852811E+03	6.745755E-02	5.045301E-04
3.853856E+03	6.738069E-02	5.039129E-04
3.854900E+03	6.734604E-02	5.036114E-04
3.855945E+03	6.730309E-02	5.032479E-04
3.856989E+03	6.722847E-02	5.026477E-04
3.858034E+03	6.714708E-02	5.019970E-04
3.859078E+03	6.708229E-02	5.014705E-04
3.860123E+03	6.701826E-02	5.009497E-04
3.861167E+03	6.693234E-02	5.002655E-04
3.862212E+03	6.683664E-02	4.995083E-04
3.863257E+03	6.670627E-02	4.984920E-04
3.864301E+03	6.661281E-02	4.977519E-04
3.865346E+03	6.649679E-02	4.968433E-04
3.866390E+03	6.637166E-02	4.958667E-04
3.867435E+03	6.623904E-02	4.948345E-04
3.868479E+03	6.610113E-02	4.937628E-04
3.869524E+03	6.597753E-02	4.927982E-04
3.870568E+03	6.587577E-02	4.919969E-04
3.871613E+03	6.580344E-02	4.914155E-04
3.872657E+03	6.569720E-02	4.905810E-04
3.873702E+03	6.561657E-02	4.899379E-04
3.874746E+03	6.550050E-02	4.890303E-04
3.875791E+03	6.540628E-02	4.882860E-04
3.876835E+03	6.533772E-02	4.877333E-04
3.877880E+03	6.528346E-02	4.872875E-04
3.878924E+03	6.520737E-02	4.866788E-04
3.879969E+03	6.506793E-02	4.855975E-04
3.881013E+03	6.491647E-02	4.844266E-04
3.882058E+03	6.482077E-02	4.836721E-04
3.883103E+03	6.471901E-02	4.828724E-04
3.884147E+03	6.466175E-02	4.824049E-04
3.885192E+03	6.454945E-02	4.815268E-04
3.886236E+03	6.443414E-02	4.806265E-04
3.887281E+03	6.434297E-02	4.799064E-04
3.888325E+03	6.425404E-02	4.792031E-04
3.889370E+03	6.414103E-02	4.783203E-04
3.890414E+03	6.397898E-02	4.770721E-04
3.891459E+03	6.388475E-02	4.763297E-04
3.892503E+03	6.383355E-02	4.759083E-04
3.893548E+03	6.374233E-02	4.751886E-04
3.894592E+03	6.364892E-02	4.744527E-04
3.895637E+03	6.357883E-02	4.738907E-04
3.896681E+03	6.353741E-02	4.735425E-04
3.897726E+03	6.343941E-02	4.727728E-04
3.898770E+03	6.336331E-02	4.721663E-04
3.899815E+03	6.329251E-02	4.715995E-04
3.900859E+03	6.325332E-02	4.712683E-04
3.901904E+03	6.316587E-02	4.705775E-04
3.902949E+03	6.303478E-02	4.695619E-04
3.903993E+03	6.284106E-02	4.680799E-04
3.905038E+03	6.269484E-02	4.669520E-04
3.906082E+03	6.261421E-02	4.663127E-04
3.907127E+03	6.247477E-02	4.652355E-04
3.908171E+03	6.237983E-02	4.644899E-04
3.909216E+03	6.224415E-02	4.634412E-04
3.910260E+03	6.215598E-02	4.627463E-04
3.911305E+03	6.208218E-02	4.621584E-04
3.912349E+03	6.200154E-02	4.615199E-04
3.913394E+03	6.193145E-02	4.609599E-04
3.914438E+03	6.181991E-02	4.600916E-04
3.915483E+03	6.171438E-02	4.592681E-04
3.916527E+03	6.163904E-02	4.586694E-04
3.917572E+03	6.151696E-02	4.577231E-04
3.918616E+03	6.142502E-02	4.570011E-04
3.919661E+03	6.137000E-02	4.565540E-04
3.920706E+03	6.130220E-02	4.560118E-04
3.921750E+03	6.123359E-02	4.554637E-04
3.922795E+03	6.117032E-02	4.549554E-04
3.923839E+03	6.111453E-02	4.545029E-04
3.924884E+03	6.101735E-02	4.537427E-04
3.925928E+03	6.094272E-02	4.531503E-04
3.926973E+03	6.088770E-02	4.527038E-04
3.928017E+03	6.082820E-02	4.522240E-04
3.929062E+03	6.076865E-02	4.517439E-04
3.930106E+03	6.063603E-02	4.507208E-04
3.931151E+03	6.050712E-02	4.497255E-04
3.932195E+03	6.042501E-02	4.490782E-04
3.933240E+03	6.033531E-02	4.483746E-04
3.934284E+03	6.021094E-02	4.474134E-04
3.935329E+03	6.015744E-02	4.469790E-04
3.936373E+03	6.010247E-02	4.465338E-04
3.937418E+03	6.003162E-02	4.459706E-04
3.938462E+03	5.999319E-02	4.456485E-04
3.939507E+03	5.992310E-02	4.450911E-04
3.940552E+03	5.987037E-02	4.446629E-04
3.941596E+03	5.987115E-02	4.446321E-04
3.942641E+03	5.984780E-02	4.444221E-04
3.943685E+03	5.983652E-02	4.443018E-04
3.944730E+03	5.981093E-02	4.440753E-04
3.945774E+03	5.980642E-02	4.440053E-04
3.946819E+03	5.980190E-02	4.439353E-04
3.947863E+03	5.976348E-02	4.436137E-04
3.948908E+03	5.970922E-02	4.431745E-04
3.949952E+03	5.966856E-02	4.428364E-04
3.950997E+03	5.964898E-02	4.426547E-04
3.952041E+03	5.966860E-02	4.427640E-04
3.953086E+03	5.962488E-02	4.424034E-04
3.954130E+03	5.961436E-02	4.422890E-04
3.955175E+03	5.963246E-02	4.423871E-04
3.956219E+03	5.960157E-02	4.421217E-04
3.957264E+03	5.953830E-02	4.416162E-04
3.958308E+03	5.950364E-02	4.413230E-04
3.959353E+03	5.952851E-02	4.414713E-04
3.960398E+03	5.951046E-02	4.413013E-04
3.961442E+03	5.948935E-02	4.411087E-04
3.962487E+03	5.956554E-02	4.416376E-04
3.963531E+03	5.967407E-02	4.424061E-04
3.964576E+03	5.973214E-02	4.428005E-04
3.965620E+03	5.975854E-02	4.429600E-04
3.966665E+03	5.984980E-02	4.436003E-04
3.967709E+03	5.992895E-02	4.441507E-04
3.968754E+03	6.005861E-02	4.450753E-04
3.969798E+03	6.022147E-02	4.462459E-04
3.970843E+03	6.034136E-02	4.470978E-04
3.971887E+03	6.046048E-02	4.479439E-04
3.972932E+03	6.062329E-02	4.491136E-04
3.973976E+03	6.075372E-02	4.500431E-04
3.975021E+03	6.085476E-02	4.507550E-04
3.976065E+03	6.100479E-02	4.518295E-04
3.977110E+03	6.114051E-02	4.527979E-04
3.978154E+03	6.124003E-02	4.534980E-04
3.979199E+03	6.136669E-02	4.543990E-04
3.980244E+03	6.153932E-02	4.556403E-04
3.981288E+03	6.170595E-02	4.568370E-04
3.982333E+03	6.184768E-02	4.578491E-04
3.983377E+03	6.197510E-02	4.587551E-04
3.984422E+03	6.208139E-02	4.595046E-04
3.985466E+03	6.216508E-02	4.600867E-04
3.986511E+03	6.226836E-02	4.608138E-04
3.987555E+03	6.233702E-02	4.612845E-04
3.988600E+03	6.238302E-02	4.615876E-04
3.989644E+03	6.244863E-02	4.620356E-04
3.990689E+03	6.249987E-02	4.623773E-04
3.991733E+03	6.259114E-02	4.630151E-04
3.992778E+03	6.272457E-02	4.639646E-04
3.993822E+03	6.283316E-02	4.647302E-04
3.994867E+03	6.287687E-02	4.650159E-04
3.995911E+03	6.290555E-02	4.651905E-04
3.996956E+03	6.294626E-02	4.654540E-04
3.998000E+03	6.294628E-02	4.654165E-04
3.999045E+03	6.296743E-02	4.655354E-04
4.000090E+03	6.300437E-02	4.657709E-04
4.001134E+03	6.301422E-02	4.658062E-04
4.002179E+03	6.299764E-02	4.656461E-04
4.003223E+03	6.293207E-02	4.651240E-04
4.004268E+03	6.286498E-02	4.645908E-04
4.005312E+03	6.281602E-02	4.641915E-04
4.006357E+03	6.277006E-02	4.638146E-04
4.007401E+03	6.278515E-02	4.638888E-04
4.008446E+03	6.275803E-02	4.636512E-04
4.009490E+03	6.268269E-02	4.630574E-04
4.010535E+03	6.265180E-02	4.627920E-04
4.011579E+03	6.260283E-02	4.623932E-04
4.012624E+03	6.254481E-02	4.619275E-04
4.013668E+03	6.249732E-02	4.615398E-04
4.014713E+03	6.238577E-02	4.606791E-04
4.015757E+03	6.222224E-02	4.594347E-04
4.016802E+03	6.206848E-02	4.582627E-04
4.017846E+03	6.190789E-02	4.570405E-04
4.018891E+03	6.169914E-02	4.554629E-04
4.019936E+03	6.149487E-02	4.539186E-04
4.020980E+03	6.131097E-02	4.525250E-04
4.022025E+03	6.113006E-02	4.511537E-04
4.023069E+03	6.097478E-02	4.499717E-04
4.024114E+03	6.078257E-02	4.485175E-04
4.025158E+03	6.059867E-02	4.471248E-04
4.026203E+03	6.043437E-02	4.458769E-04
4.027247E+03	6.027607E-02	4.446736E-04
4.028292E+03	6.010424E-02	4.433706E-04
4.029336E+03	5.991580E-02	4.419453E-04
4.030381E+03	5.970170E-02	4.403310E-04
4.031425E+03	5.940551E-02	4.381116E-04
4.032470E+03	5.915750E-02	4.362478E-04
4.033514E+03	5.893515E-02	4.345736E-04
4.034559E+03	5.871504E-02	4.329161E-04
4.035603E+03	5.849798E-02	4.312815E-04
4.036648E+03	5.827787E-02	4.296246E-04
4.037692E+03	5.806076E-02	4.279901E-04
4.038737E+03	5.784824E-02	4.263897E-04
4.039782E+03	5.761682E-02	4.246503E-04
4.040826E+03	5.739371E-02	4.229723E-04
4.041871E+03	5.715552E-02	4.211836E-04
4.042915E+03	5.701530E-02	4.201170E-04
4.043960E+03	5.687289E-02	4.190345E-04
4.045004E+03	5.670630E-02	4.177740E-04
4.046049E+03	5.657515E-02	4.167748E-04
4.047093E+03	5.645906E-02	4.158868E-04
4.048138E+03	5.631513E-02	4.147938E-04
4.049182E+03	5.612893E-02	4.133897E-04
4.050227E+03	5.602792E-02	4.126132E-04
4.051271E+03	5.596612E-02	4.121256E-04
4.052316E+03	5.592015E-02	4.117546E-04
4.053360E+03	5.584257E-02	4.111509E-04
4.054405E+03	5.580185E-02	4.108188E-04
4.055449E+03	5.576042E-02	4.104814E-04
4.056494E+03	5.569184E-02	4.099444E-04
4.057538E+03	5.568432E-02	4.098568E-04
4.058583E+03	5.565114E-02	4.095804E-04
4.059628E+03	5.559993E-02	4.091713E-04
4.060672E+03	5.550946E-02	4.084735E-04
4.061717E+03	5.541675E-02	4.077593E-04
4.062761E+03	5.541076E-02	4.076832E-04
4.063806E+03	5.543338E-02	4.078177E-04
4.064850E+03	5.543040E-02	4.077638E-04
4.065895E+03	5.537460E-02	4.073214E-04
4.066939E+03	5.535955E-02	4.071788E-04
4.067984E+03	5.539730E-02	4.074246E-04
4.069028E+03	5.546061E-02	4.078583E-04
4.070073E+03	5.548624E-02	4.080149E-04
4.071117E+03	5.549756E-02	4.080663E-04
4.072162E+03	5.554885E-02	4.084116E-04
4.073206E+03	5.561669E-02	4.088785E-04
4.074251E+03	5.571473E-02	4.095673E-04
4.075295E+03	5.578334E-02	4.100397E-04
4.076340E+03	5.582333E-02	4.103016E-04
4.077385E+03	5.594546E-02	4.111672E-04
4.078429E+03	5.605404E-02	4.119332E-04
4.079474E+03	5.611887E-02	4.123776E-04
4.080518E+03	5.624930E-02	4.133039E-04
4.081563E+03	5.635936E-02	4.140804E-04
4.082607E+03	5.642649E-02	4.145414E-04
4.083652E+03	5.644835E-02	4.146699E-04
4.084696E+03	5.652678E-02	4.152138E-04
4.085741E+03	5.661423E-02	4.158239E-04
4.086785E+03	5.673035E-02	4.166445E-04
4.087830E+03	5.683893E-02	4.174097E-04
4.088874E+03	5.689318E-02	4.177757E-04
4.089919E+03	5.699498E-02	4.184909E-04
4.090963E+03	5.710280E-02	4.192502E-04
4.092008E+03	5.717365E-02	4.197379E-04
4.093052E+03	5.729277E-02	4.205800E-04
4.094097E+03	5.743603E-02	4.215991E-04
4.095141E+03	5.751747E-02	4.221643E-04
4.096186E+03	5.758760E-02	4.226465E-04
4.097231E+03	5.763813E-02	4.229848E-04
4.098275E+03	5.775420E-02	4.238039E-04
4.099320E+03	5.787032E-02	4.246233E-04
4.100364E+03	5.796306E-02	4.252712E-04
4.101409E+03	5.802642E-02	4.257033E-04
4.102453E+03	5.808220E-02	4.260798E-04
4.103498E+03	5.817571E-02	4.267330E-04
4.104542E+03	5.826239E-02	4.273361E-04
4.105587E+03	5.828430E-02	4.274640E-04
4.106631E+03	5.825642E-02	4.272268E-04
4.107676E+03	5.825266E-02	4.271665E-04
4.108720E+03	5.823532E-02	4.270066E-04
4.109765E+03	5.819388E-02	4.266702E-04
4.110809E+03	5.810947E-02	4.260187E-04
4.111854E+03	5.803412E-02	4.254338E-04
4.112898E+03	5.797685E-02	4.249816E-04
4.113943E+03	5.789315E-02	4.243357E-04
4.114987E+03	5.784194E-02	4.239280E-04
4.116032E+03	5.781181E-02	4.236749E-04
4.117077E+03	5.775678E-02	4.232394E-04
4.118121E+03	5.768138E-02	4.226547E-04
4.119166E+03	5.757288E-02	4.218276E-04
4.120210E+03	5.748995E-02	4.211879E-04
4.121255E+03	5.742967E-02	4.207144E-04
4.122299E+03	5.732036E-02	4.198817E-04
4.123344E+03	5.721110E-02	4.190495E-04
4.124388E+03	5.708671E-02	4.181068E-04
4.125433E+03	5.699777E-02	4.174237E-04
4.126477E+03	5.685759E-02	4.163656E-04
4.127522E+03	5.670459E-02	4.152138E-04
4.128566E+03	5.653045E-02	4.139074E-04
4.129611E+03	5.636237E-02	4.126455E-04
4.130655E+03	5.623198E-02	4.116598E-04
4.131700E+03	5.610606E-02	4.107070E-04
4.132744E+03	5.596289E-02	4.096280E-04
4.133789E+03	5.582190E-02	4.085653E-04
4.134833E+03	5.570581E-02	4.076849E-04
4.135878E+03	5.556488E-02	4.066229E-04
4.136923E+03	5.543295E-02	4.056269E-04
4.137967E+03	5.527771E-02	4.044605E-04
4.139012E+03	5.507342E-02	4.029355E-04
4.140056E+03	5.486236E-02	4.013612E-04
4.141101E+03	5.471837E-02	4.002778E-04
4.142145E+03	5.456083E-02	3.990955E-04
4.143190E+03	5.437391E-02	3.976984E-04
4.144234E+03	5.420731E-02	3.964502E-04
4.145279E+03	5.404453E-02	3.952301E-04
4.146323E+03	5.383795E-02	3.936899E-04
4.147368E+03	5.367817E-02	3.924922E-04
4.148412E+03	5.351911E-02	3.912999E-04
4.149457E+03	5.334502E-02	3.899980E-04
4.150501E+03	5.320856E-02	3.889714E-04
4.151546E+03	5.307516E-02	3.879673E-04
4.152590E+03	5.289725E-02	3.866380E-04
4.153635E+03	5.272464E-02	3.853477E-04
4.154679E+03	5.257387E-02	3.842172E-04
4.155724E+03	5.240355E-02	3.829441E-04
4.156769E+03	5.222488E-02	3.816101E-04
4.157813E+03	5.207941E-02	3.805189E-04
4.158858E+03	5.191433E-02	3.792846E-04
4.159902E+03	5.173041E-02	3.779129E-04
4.160947E+03	5.151258E-02	3.762937E-04
4.161991E+03	5.131053E-02	3.747901E-04
4.163036E+03	5.122459E-02	3.741347E-04
4.164080E+03	5.116131E-02	3.736449E-04
4.165125E+03	5.108213E-02	3.730391E-04
4.166169E+03	5.098193E-02	3.722799E-04
4.167214E+03	5.081306E-02	3.710194E-04
4.168258E+03	5.071055E-02	3.702437E-04
4.169303E+03	5.063895E-02	3.696937E-04
4.170347E+03	5.048216E-02	3.685220E-04
4.171392E+03	5.031708E-02	3.672899E-04
4.172436E+03	5.019421E-02	3.663661E-04
4.173481E+03	5.006909E-02	3.654260E-04
4.174525E+03	4.995753E-02	3.645851E-04
4.175570E+03	4.989045E-02	3.640689E-04
4.176615E+03	4.983543E-02	3.636408E-04
4.177659E+03	4.976609E-02	3.631082E-04
4.178704E+03	4.970429E-02	3.626308E-04
4.179748E+03	4.965002E-02	3.622085E-04
4.180793E+03	4.957842E-02	3.616597E-04
4.181837E+03	4.949249E-02	3.610066E-04
4.182882E+03	4.943220E-02	3.605405E-04
4.183926E+03	4.936964E-02	3.600580E-04
4.184971E+03	4.929050E-02	3.594547E-04
4.186015E+03	4.919552E-02	3.587360E-04
4.187060E+03	4.909452E-02	3.579735E-04
4.188104E+03	4.901538E-02	3.573705E-04
4.189149E+03	4.895659E-02	3.569160E-04
4.190193E+03	4.888875E-02	3.563956E-04
4.191238E+03	4.883449E-02	3.559742E-04
4.192282E+03	4.878701E-02	3.556024E-04
4.193327E+03	4.872897E-02	3.551537E-04
4.194371E+03	4.866642E-02	3.546722E-04
4.195416E+03	4.861893E-02	3.543005E-04
4.196461E+03	4.858050E-02	3.539949E-04
4.197505E+03	4.849005E-02	3.533104E-04
4.198550E+03	4.837245E-02	3.524282E-04
4.199594E+03	4.830387E-02	3.519032E-04
4.200639E+03	4.829559E-02	3.518176E-04
4.201683E+03	4.829333E-02	3.517759E-04
4.202728E+03	4.821721E-02	3.511962E-04
