#wls	flux	fluxerr
1.591660E+03	5.249397E-03	4.896117E-05
1.631451E+03	5.380499E-03	5.014106E-05
1.671243E+03	5.521198E-03	5.140727E-05
1.711034E+03	5.671719E-03	5.276157E-05
1.750826E+03	5.832797E-03	5.421048E-05
1.790617E+03	6.004631E-03	5.575545E-05
1.830409E+03	6.188423E-03	5.740726E-05
1.870200E+03	6.384831E-03	5.917158E-05
1.909992E+03	6.594012E-03	6.104940E-05
1.949783E+03	6.816116E-03	6.304161E-05
1.989575E+03	7.051310E-03	6.514926E-05
2.029366E+03	7.300258E-03	6.737795E-05
2.069158E+03	7.561237E-03	6.971124E-05
2.108949E+03	7.834042E-03	7.214671E-05
2.148741E+03	8.117605E-03	7.467400E-05
2.188532E+03	8.409072E-03	7.726637E-05
2.228324E+03	8.708125E-03	7.992047E-05
2.268115E+03	9.013666E-03	8.262579E-05
2.307907E+03	9.327078E-03	8.539458E-05
2.347698E+03	9.650803E-03	8.824870E-05
2.387490E+03	9.988366E-03	9.121979E-05
2.427281E+03	1.034479E-02	9.435299E-05
2.467073E+03	1.072355E-02	9.767895E-05
2.506864E+03	1.112974E-02	1.012431E-04
2.546656E+03	1.156844E-02	1.050902E-04
2.586447E+03	1.204393E-02	1.092576E-04
2.626239E+03	1.256163E-02	1.137929E-04
2.666030E+03	1.312696E-02	1.187430E-04
2.705821E+03	1.374693E-02	1.241689E-04
2.745613E+03	1.442904E-02	1.301358E-04
2.785404E+03	1.518253E-02	1.367241E-04
2.825196E+03	1.601838E-02	1.440290E-04
2.864987E+03	1.695209E-02	1.521857E-04
2.904779E+03	1.800210E-02	1.613549E-04
2.944570E+03	1.919119E-02	1.717347E-04
2.984362E+03	2.054983E-02	1.835907E-04
2.994310E+03	2.092029E-02	1.868229E-04
3.004258E+03	2.130411E-02	1.901713E-04
3.014206E+03	2.170190E-02	1.936413E-04
3.024153E+03	2.211482E-02	1.972429E-04
3.034101E+03	2.254354E-02	2.009820E-04
3.044049E+03	2.298882E-02	2.048652E-04
3.053997E+03	2.345142E-02	2.088991E-04
3.063945E+03	2.393214E-02	2.130905E-04
3.073893E+03	2.443183E-02	2.174468E-04
3.083841E+03	2.495189E-02	2.219802E-04
3.093789E+03	2.549325E-02	2.266987E-04
3.103736E+03	2.605635E-02	2.316061E-04
3.113684E+03	2.664325E-02	2.367202E-04
3.123632E+03	2.725392E-02	2.420407E-04
3.133580E+03	2.788997E-02	2.475813E-04
3.143528E+03	2.855300E-02	2.533561E-04
3.153476E+03	2.924359E-02	2.593698E-04
3.163424E+03	2.996338E-02	2.656366E-04
3.173372E+03	3.071290E-02	2.721610E-04
3.183319E+03	3.149378E-02	2.789568E-04
3.193267E+03	3.230701E-02	2.860326E-04
3.203215E+03	3.315293E-02	2.933909E-04
3.213163E+03	3.403286E-02	3.010429E-04
3.223111E+03	3.494739E-02	3.089935E-04
3.233059E+03	3.589687E-02	3.172452E-04
3.243007E+03	3.688127E-02	3.257975E-04
3.252955E+03	3.790017E-02	3.346461E-04
3.262902E+03	3.895258E-02	3.437818E-04
3.272850E+03	4.003618E-02	3.531838E-04
3.277067E+03	4.429531E-02	3.906803E-04
3.279342E+03	4.465225E-02	3.937872E-04
3.281617E+03	4.498009E-02	3.966368E-04
3.283892E+03	4.549389E-02	4.011254E-04
3.286166E+03	4.601905E-02	4.057132E-04
3.288442E+03	4.646542E-02	4.096053E-04
3.290717E+03	4.686068E-02	4.130462E-04
3.292992E+03	4.743693E-02	4.180815E-04
3.295267E+03	4.816225E-02	4.244292E-04
3.297541E+03	4.883574E-02	4.303189E-04
3.299816E+03	4.943328E-02	4.355383E-04
3.302091E+03	4.982640E-02	4.389555E-04
3.304366E+03	5.024223E-02	4.425721E-04
3.306641E+03	5.075176E-02	4.470131E-04
3.308915E+03	5.134362E-02	4.521783E-04
3.311190E+03	5.201355E-02	4.580298E-04
3.313465E+03	5.267567E-02	4.638112E-04
3.315741E+03	5.326964E-02	4.689913E-04
3.318015E+03	5.409286E-02	4.761885E-04
3.320290E+03	5.479399E-02	4.823095E-04
3.322565E+03	5.542131E-02	4.877794E-04
3.324840E+03	5.610190E-02	4.937170E-04
3.327115E+03	5.677820E-02	4.996155E-04
3.329389E+03	5.743104E-02	5.053063E-04
3.331664E+03	5.809456E-02	5.110898E-04
3.333939E+03	5.879568E-02	5.172027E-04
3.336214E+03	5.938466E-02	5.223281E-04
3.338489E+03	5.998570E-02	5.275583E-04
3.340763E+03	6.057325E-02	5.326687E-04
3.343038E+03	6.117214E-02	5.378777E-04
3.345314E+03	6.188606E-02	5.440968E-04
3.347589E+03	6.256800E-02	5.500335E-04
3.349864E+03	6.314415E-02	5.550389E-04
3.352138E+03	6.375513E-02	5.603494E-04
3.354413E+03	6.423830E-02	5.645355E-04
3.356688E+03	6.476198E-02	5.690765E-04
3.358963E+03	6.523806E-02	5.731983E-04
3.361238E+03	6.561483E-02	5.764467E-04
3.363512E+03	6.601422E-02	5.798931E-04
3.365787E+03	6.643287E-02	5.835079E-04
3.368062E+03	6.686777E-02	5.872645E-04
3.370337E+03	6.731762E-02	5.911516E-04
3.372613E+03	6.778162E-02	5.951620E-04
3.374887E+03	6.826125E-02	5.993088E-04
3.377162E+03	6.875789E-02	6.036039E-04
3.379437E+03	6.916371E-02	6.071008E-04
3.381712E+03	6.963485E-02	6.111702E-04
3.383986E+03	6.998601E-02	6.141858E-04
3.386261E+03	7.031658E-02	6.170200E-04
3.388536E+03	7.052006E-02	6.187386E-04
3.390811E+03	7.083291E-02	6.214160E-04
3.393086E+03	7.099384E-02	6.227603E-04
3.395360E+03	7.120662E-02	6.245591E-04
3.397635E+03	7.146904E-02	6.267927E-04
3.399910E+03	7.178117E-02	6.294616E-04
3.402186E+03	7.206489E-02	6.318809E-04
3.404461E+03	7.241955E-02	6.349215E-04
3.406735E+03	7.279556E-02	6.381486E-04
3.409010E+03	7.301538E-02	6.400059E-04
3.411285E+03	7.338424E-02	6.431689E-04
3.413560E+03	7.359700E-02	6.449633E-04
3.415834E+03	7.381681E-02	6.468190E-04
3.418109E+03	7.413602E-02	6.495450E-04
3.420384E+03	7.427778E-02	6.507159E-04
3.422659E+03	7.436275E-02	6.513890E-04
3.424934E+03	7.461101E-02	6.534921E-04
3.427209E+03	7.479531E-02	6.550346E-04
3.429484E+03	7.487323E-02	6.556452E-04
3.431759E+03	7.473820E-02	6.543910E-04
3.434034E+03	7.475222E-02	6.544420E-04
3.436309E+03	7.469524E-02	6.538713E-04
3.438583E+03	7.466666E-02	6.535493E-04
3.440858E+03	7.482262E-02	6.548424E-04
3.443133E+03	7.481533E-02	6.547066E-04
3.445408E+03	7.477260E-02	6.542607E-04
3.447683E+03	7.492850E-02	6.555526E-04
3.449957E+03	7.523349E-02	6.581484E-04
3.452232E+03	7.547463E-02	6.601852E-04
3.454507E+03	7.556668E-02	6.609174E-04
3.456782E+03	7.563744E-02	6.614632E-04
3.459057E+03	7.596371E-02	6.642432E-04
3.461332E+03	7.609126E-02	6.652850E-04
3.463607E+03	7.635364E-02	6.675052E-04
3.465882E+03	7.675795E-02	6.709655E-04
3.468157E+03	7.716941E-02	6.744876E-04
3.470432E+03	7.731820E-02	6.757131E-04
3.472706E+03	7.760897E-02	6.781791E-04
3.474981E+03	7.765846E-02	6.785364E-04
3.477256E+03	7.797053E-02	6.811874E-04
3.479531E+03	7.833933E-02	6.843334E-04
3.481805E+03	7.858045E-02	6.863635E-04
3.484080E+03	7.890665E-02	6.891361E-04
3.486355E+03	7.948127E-02	6.940774E-04
3.488631E+03	8.002749E-02	6.987695E-04
3.490906E+03	8.043178E-02	7.022213E-04
3.493180E+03	8.058769E-02	7.035042E-04
3.495455E+03	8.065847E-02	7.040436E-04
3.497730E+03	8.075760E-02	7.048302E-04
3.500005E+03	8.111223E-02	7.078463E-04
3.502280E+03	8.153780E-02	7.114807E-04
3.504554E+03	8.190658E-02	7.146188E-04
3.506829E+03	8.223991E-02	7.174468E-04
3.509104E+03	8.265128E-02	7.209548E-04
3.511379E+03	8.304844E-02	7.243381E-04
3.513654E+03	8.341721E-02	7.274730E-04
3.515929E+03	8.350217E-02	7.281324E-04
3.518204E+03	8.369352E-02	7.297191E-04
3.520479E+03	8.403393E-02	7.326049E-04
3.522754E+03	8.431756E-02	7.349950E-04
3.525028E+03	8.451599E-02	7.366421E-04
3.527303E+03	8.465064E-02	7.377328E-04
3.529578E+03	8.472135E-02	7.382660E-04
3.531853E+03	8.475661E-02	7.384902E-04
3.534128E+03	8.499763E-02	7.405069E-04
3.536402E+03	8.505419E-02	7.409162E-04
3.538677E+03	8.510359E-02	7.412630E-04
3.540952E+03	8.515305E-02	7.416102E-04
3.543227E+03	8.506768E-02	7.407832E-04
3.545503E+03	8.491842E-02	7.394000E-04
3.547777E+03	8.481881E-02	7.384492E-04
3.550052E+03	8.459152E-02	7.363872E-04
3.552327E+03	8.453450E-02	7.358076E-04
3.554602E+03	8.427172E-02	7.334374E-04
3.556877E+03	8.401603E-02	7.311294E-04
3.559151E+03	8.391647E-02	7.301803E-04
3.561426E+03	8.372463E-02	7.284285E-04
3.563701E+03	8.355408E-02	7.268623E-04
3.565976E+03	8.320617E-02	7.237537E-04
3.568250E+03	8.284402E-02	7.205219E-04
3.570525E+03	8.242513E-02	7.167973E-04
3.572801E+03	8.198495E-02	7.128884E-04
3.575076E+03	8.153062E-02	7.088573E-04
3.577351E+03	8.101946E-02	7.043330E-04
3.579625E+03	8.050125E-02	6.997485E-04
3.581900E+03	7.988367E-02	6.943013E-04
3.584175E+03	7.912423E-02	6.876224E-04
3.586450E+03	7.863438E-02	6.832875E-04
3.588725E+03	7.805230E-02	6.781523E-04
3.590999E+03	7.741349E-02	6.725254E-04
3.593274E+03	7.681722E-02	6.672692E-04
3.595549E+03	7.617131E-02	6.615831E-04
3.597824E+03	7.541894E-02	6.549736E-04
3.600099E+03	7.463818E-02	6.481190E-04
3.602374E+03	7.389297E-02	6.415747E-04
3.604649E+03	7.299869E-02	6.337377E-04
3.606924E+03	7.216121E-02	6.263954E-04
3.609199E+03	7.139466E-02	6.196705E-04
3.611474E+03	7.056429E-02	6.123931E-04
3.613748E+03	6.964170E-02	6.043172E-04
3.616023E+03	6.863322E-02	5.954978E-04
3.618298E+03	6.771130E-02	5.874314E-04
3.620573E+03	6.684336E-02	5.798350E-04
3.622847E+03	6.582284E-02	5.709170E-04
3.625122E+03	6.464480E-02	5.606349E-04
3.627397E+03	6.354699E-02	5.510507E-04
3.629673E+03	6.261018E-02	5.428648E-04
3.631948E+03	6.139458E-02	5.322636E-04
3.634222E+03	6.034785E-02	5.231287E-04
3.636497E+03	5.927911E-02	5.138052E-04
3.638772E+03	5.818486E-02	5.042626E-04
3.641047E+03	5.717006E-02	4.954107E-04
3.643322E+03	5.629722E-02	4.877908E-04
3.645596E+03	5.538956E-02	4.798711E-04
3.647871E+03	5.447129E-02	4.718611E-04
3.650146E+03	5.364809E-02	4.646765E-04
3.652421E+03	5.296323E-02	4.586916E-04
3.654696E+03	5.226990E-02	4.526347E-04
3.656970E+03	5.157372E-02	4.465544E-04
3.659246E+03	5.107545E-02	4.421890E-04
3.661521E+03	5.048430E-02	4.370205E-04
3.663796E+03	4.982715E-02	4.312820E-04
3.666070E+03	4.934027E-02	4.270184E-04
3.668345E+03	4.865830E-02	4.210674E-04
3.670620E+03	4.806288E-02	4.158668E-04
3.672895E+03	4.776120E-02	4.132085E-04
3.675170E+03	4.744391E-02	4.104159E-04
3.677444E+03	4.725716E-02	4.087530E-04
3.679719E+03	4.725772E-02	4.087104E-04
3.681994E+03	4.721783E-02	4.083181E-04
3.684269E+03	4.694098E-02	4.058769E-04
3.686545E+03	4.701320E-02	4.064540E-04
3.688819E+03	4.708967E-02	4.070679E-04
3.691094E+03	4.731938E-02	4.090060E-04
3.693369E+03	4.776335E-02	4.127955E-04
3.695644E+03	4.820520E-02	4.165656E-04
3.697919E+03	4.872010E-02	4.209662E-04
3.700193E+03	4.931802E-02	4.260829E-04
3.702468E+03	4.988967E-02	4.309715E-04
3.704743E+03	5.079548E-02	4.387452E-04
3.707018E+03	5.149765E-02	4.447582E-04
3.709292E+03	5.199126E-02	4.489689E-04
3.711567E+03	5.267858E-02	4.548512E-04
3.713842E+03	5.351555E-02	4.620240E-04
3.716118E+03	5.422976E-02	4.681355E-04
3.718393E+03	5.481133E-02	4.731005E-04
3.720668E+03	5.536731E-02	4.778436E-04
3.722942E+03	5.596025E-02	4.829045E-04
3.725217E+03	5.646231E-02	4.871799E-04
3.727492E+03	5.700270E-02	4.917852E-04
3.729767E+03	5.759987E-02	4.968790E-04
3.732041E+03	5.802318E-02	5.004721E-04
3.734316E+03	5.849332E-02	5.044680E-04
3.736591E+03	5.895497E-02	5.083899E-04
3.738866E+03	5.942509E-02	5.123839E-04
3.741141E+03	6.000947E-02	5.173620E-04
3.743416E+03	6.070234E-02	5.232741E-04
3.745691E+03	6.138106E-02	5.290628E-04
3.747966E+03	6.216546E-02	5.357609E-04
3.750241E+03	6.291223E-02	5.421331E-04
3.752515E+03	6.377892E-02	5.495371E-04
3.754790E+03	6.459521E-02	5.565051E-04
3.757065E+03	6.538878E-02	5.632756E-04
3.759340E+03	6.627036E-02	5.708026E-04
3.761615E+03	6.704548E-02	5.774110E-04
3.763890E+03	6.789228E-02	5.846351E-04
3.766164E+03	6.881774E-02	5.925347E-04
3.768439E+03	6.988232E-02	6.016301E-04
3.770714E+03	7.085392E-02	6.099229E-04
3.772990E+03	7.179641E-02	6.179633E-04
3.775264E+03	7.286025E-02	6.270460E-04
3.777539E+03	7.383893E-02	6.353937E-04
3.779814E+03	7.480340E-02	6.436172E-04
3.782089E+03	7.592394E-02	6.531814E-04
3.784364E+03	7.691678E-02	6.616448E-04
3.786638E+03	7.799472E-02	6.708382E-04
3.788913E+03	7.915781E-02	6.807616E-04
3.791188E+03	8.024288E-02	6.900117E-04
3.793463E+03	8.133498E-02	6.993202E-04
3.795738E+03	8.242708E-02	7.086263E-04
3.798012E+03	8.351917E-02	7.179301E-04
3.800287E+03	8.456163E-02	7.268051E-04
3.802563E+03	8.578138E-02	7.372016E-04
3.804838E+03	8.702950E-02	7.478394E-04
3.807112E+03	8.808612E-02	7.568294E-04
3.809387E+03	8.922074E-02	7.664872E-04
3.811662E+03	9.034826E-02	7.760817E-04
3.813937E+03	9.139771E-02	7.850033E-04
3.816212E+03	9.242591E-02	7.937404E-04
3.818486E+03	9.344702E-02	8.024144E-04
3.820761E+03	9.446101E-02	8.110252E-04
3.823036E+03	9.539695E-02	8.189639E-04
3.825311E+03	9.624068E-02	8.261091E-04
3.827586E+03	9.693545E-02	8.319741E-04
3.829861E+03	9.770826E-02	8.385075E-04
3.832136E+03	9.839592E-02	8.443085E-04
3.834411E+03	9.911905E-02	8.504125E-04
3.836686E+03	9.980669E-02	8.562106E-04
3.838961E+03	1.004730E-01	8.618246E-04
3.841235E+03	1.010614E-01	8.667683E-04
3.843510E+03	1.017206E-01	8.723187E-04
3.845785E+03	1.022310E-01	8.765909E-04
3.848060E+03	1.026278E-01	8.798887E-04
3.850335E+03	1.030388E-01	8.833072E-04
3.852609E+03	1.034710E-01	8.869074E-04
3.854884E+03	1.038252E-01	8.898377E-04
3.857159E+03	1.040235E-01	8.914304E-04
3.859435E+03	1.042075E-01	8.929010E-04
3.861710E+03	1.042780E-01	8.933986E-04
3.863984E+03	1.042209E-01	8.928029E-04
3.866259E+03	1.043197E-01	8.935435E-04
3.868534E+03	1.042839E-01	8.931296E-04
3.870809E+03	1.043402E-01	8.935057E-04
3.873083E+03	1.043611E-01	8.935780E-04
3.875358E+03	1.043748E-01	8.935889E-04
3.877633E+03	1.042609E-01	8.925074E-04
3.879908E+03	1.042392E-01	8.922152E-04
3.882183E+03	1.043381E-01	8.929553E-04
3.884457E+03	1.043944E-01	8.933305E-04
3.886733E+03	1.046068E-01	8.950410E-04
3.889008E+03	1.047553E-01	8.962048E-04
3.891283E+03	1.048897E-01	8.972469E-04
3.893558E+03	1.049814E-01	8.979245E-04
3.895832E+03	1.048959E-01	8.970860E-04
3.898107E+03	1.048600E-01	8.966718E-04
3.900382E+03	1.050227E-01	8.979558E-04
3.902657E+03	1.048804E-01	8.966322E-04
3.904932E+03	1.046247E-01	8.943389E-04
3.907206E+03	1.044328E-01	8.925915E-04
3.909481E+03	1.042054E-01	8.905417E-04
3.911756E+03	1.038078E-01	8.870375E-04
3.914031E+03	1.033393E-01	8.829287E-04
3.916306E+03	1.029701E-01	8.796687E-04
3.918581E+03	1.024803E-01	8.753800E-04
3.920856E+03	1.019125E-01	8.704257E-04
3.923131E+03	1.013944E-01	8.658968E-04
3.925406E+03	1.007486E-01	8.602786E-04
3.927680E+03	9.993970E-02	8.532694E-04
3.929955E+03	9.917333E-02	8.466249E-04
3.932230E+03	9.842121E-02	8.401035E-04
3.934505E+03	9.772580E-02	8.340677E-04
3.936780E+03	9.705162E-02	8.282145E-04
3.939054E+03	9.639169E-02	8.224843E-04
3.941329E+03	9.563954E-02	8.159686E-04
3.943605E+03	9.500800E-02	8.104833E-04
3.945880E+03	9.434803E-02	8.047568E-04
3.948155E+03	9.363846E-02	7.986087E-04
3.950429E+03	9.295727E-02	7.927040E-04
3.952704E+03	9.236122E-02	7.875266E-04
3.954979E+03	9.185729E-02	7.831359E-04
3.957254E+03	9.117611E-02	7.772352E-04
3.959528E+03	9.049494E-02	7.713361E-04
3.961803E+03	9.006906E-02	7.676139E-04
3.964078E+03	8.964318E-02	7.638927E-04
3.966353E+03	8.913218E-02	7.594471E-04
3.968628E+03	8.874178E-02	7.560299E-04
3.970903E+03	8.854991E-02	7.543047E-04
3.973178E+03	8.820917E-02	7.513120E-04
3.975453E+03	8.798892E-02	7.493461E-04
3.977728E+03	8.783967E-02	7.479852E-04
3.980003E+03	8.778253E-02	7.474089E-04
3.982277E+03	8.781052E-02	7.475574E-04
3.984552E+03	8.785264E-02	7.478262E-04
3.986827E+03	8.786644E-02	7.478538E-04
3.989102E+03	8.805753E-02	7.493902E-04
3.991377E+03	8.834078E-02	7.517105E-04
3.993651E+03	8.858856E-02	7.537284E-04
3.995926E+03	8.880802E-02	7.555048E-04
3.998201E+03	8.918342E-02	7.586073E-04
4.000477E+03	8.948794E-02	7.611061E-04
4.002752E+03	8.990590E-02	7.645690E-04
4.005026E+03	9.043021E-02	7.689354E-04
4.007301E+03	9.088363E-02	7.726980E-04
4.009576E+03	9.133704E-02	7.764596E-04
4.011851E+03	9.177626E-02	7.800997E-04
4.014126E+03	9.217292E-02	7.833771E-04
4.016400E+03	9.261922E-02	7.870757E-04
4.018675E+03	9.297331E-02	7.899898E-04
4.020950E+03	9.331326E-02	7.927830E-04
4.023225E+03	9.365315E-02	7.955751E-04
4.025499E+03	9.400727E-02	7.984874E-04
4.027774E+03	9.432588E-02	8.010973E-04
4.030050E+03	9.455237E-02	8.029243E-04
4.032325E+03	9.471502E-02	8.042089E-04
4.034600E+03	9.478546E-02	8.047102E-04
4.036874E+03	9.477084E-02	8.044894E-04
4.039149E+03	9.475621E-02	8.042685E-04
4.041424E+03	9.459273E-02	8.027844E-04
4.043699E+03	9.440083E-02	8.010595E-04
4.045974E+03	9.433655E-02	8.004178E-04
4.048248E+03	9.421558E-02	7.992954E-04
4.050523E+03	9.393862E-02	7.968499E-04
4.052798E+03	9.361206E-02	7.939844E-04
4.055073E+03	9.324999E-02	7.908184E-04
4.057347E+03	9.279577E-02	7.868718E-04
4.059623E+03	9.248335E-02	7.841283E-04
4.061898E+03	9.210715E-02	7.808449E-04
4.064173E+03	9.174514E-02	7.776824E-04
4.066448E+03	9.145401E-02	7.751215E-04
4.068723E+03	9.099980E-02	7.711791E-04
4.070997E+03	9.051723E-02	7.669974E-04
4.073272E+03	9.007017E-02	7.631176E-04
4.075547E+03	8.970103E-02	7.598987E-04
4.077822E+03	8.932485E-02	7.566210E-04
4.080096E+03	8.907629E-02	7.544250E-04
4.082371E+03	8.877808E-02	7.518090E-04
4.084646E+03	8.843732E-02	7.488333E-04
4.086922E+03	8.807533E-02	7.456787E-04
4.089197E+03	8.755023E-02	7.411439E-04
4.091471E+03	8.733004E-02	7.391913E-04
4.093746E+03	8.720910E-02	7.380789E-04
4.096021E+03	8.715193E-02	7.375065E-04
4.098296E+03	8.696012E-02	7.357950E-04
4.100570E+03	8.678953E-02	7.342634E-04
4.102845E+03	8.670399E-02	7.334517E-04
4.105120E+03	8.671065E-02	7.334200E-04
4.107395E+03	8.661808E-02	7.325491E-04
4.109670E+03	8.664601E-02	7.326974E-04
4.111945E+03	8.682987E-02	7.341640E-04
4.114219E+03	8.690744E-02	7.347318E-04
4.116495E+03	8.703460E-02	7.357186E-04
4.118770E+03	8.706962E-02	7.359263E-04
4.121045E+03	8.714005E-02	7.364333E-04
4.123320E+03	8.737359E-02	7.383184E-04
4.125594E+03	8.751492E-02	7.394241E-04
4.127869E+03	8.754280E-02	7.395709E-04
4.130144E+03	8.764872E-02	7.403770E-04
4.132419E+03	8.775460E-02	7.411825E-04
4.134693E+03	8.776833E-02	7.412097E-04
4.136968E+03	8.785293E-02	7.418352E-04
4.139243E+03	8.794467E-02	7.425209E-04
4.141518E+03	8.790876E-02	7.421288E-04
4.143794E+03	8.790121E-02	7.419763E-04
4.146068E+03	8.779444E-02	7.409863E-04
4.148343E+03	8.759548E-02	7.392186E-04
4.150618E+03	8.731857E-02	7.367935E-04
4.152893E+03	8.685734E-02	7.328139E-04
4.155167E+03	8.659461E-02	7.305099E-04
4.157442E+03	8.643111E-02	7.290434E-04
4.159717E+03	8.621803E-02	7.271591E-04
4.161992E+03	8.590567E-02	7.244380E-04
4.164267E+03	8.566422E-02	7.223156E-04
4.166541E+03	8.539442E-02	7.199545E-04
4.168816E+03	8.493321E-02	7.159805E-04
4.171091E+03	8.458540E-02	7.129634E-04
4.173367E+03	8.419511E-02	7.095888E-04
4.175642E+03	8.384736E-02	7.065736E-04
4.177916E+03	8.339326E-02	7.026631E-04
4.180191E+03	8.300297E-02	6.992911E-04
4.182466E+03	8.261973E-02	6.959792E-04
4.184741E+03	8.230036E-02	6.932061E-04
4.187016E+03	8.178954E-02	6.888214E-04
4.189290E+03	8.114411E-02	6.833042E-04
4.191565E+03	8.062621E-02	6.788621E-04
4.193840E+03	8.021468E-02	6.753165E-04
4.196115E+03	7.979605E-02	6.717121E-04
4.198390E+03	7.941998E-02	6.684667E-04
4.200665E+03	7.896591E-02	6.645657E-04
4.202940E+03	7.842681E-02	6.599502E-04
4.205215E+03	7.802948E-02	6.565285E-04
4.207490E+03	7.764628E-02	6.532265E-04
4.209765E+03	7.727022E-02	6.499854E-04
4.212039E+03	7.697920E-02	6.474604E-04
4.214314E+03	7.664568E-02	6.445786E-04
4.216589E+03	7.629794E-02	6.415779E-04
4.218864E+03	7.606365E-02	6.395317E-04
4.221138E+03	7.574428E-02	6.367709E-04
4.223413E+03	7.537533E-02	6.335939E-04
4.225688E+03	7.507014E-02	6.309536E-04
4.227963E+03	7.473659E-02	6.280756E-04
4.230239E+03	7.436765E-02	6.249009E-04
4.232513E+03	7.418295E-02	6.232750E-04
4.234788E+03	7.399116E-02	6.215898E-04
4.237063E+03	7.372143E-02	6.192505E-04
4.239338E+03	7.349424E-02	6.172690E-04
4.241613E+03	7.323870E-02	6.150498E-04
4.243887E+03	7.296189E-02	6.126527E-04
4.246162E+03	7.278428E-02	6.110890E-04
4.248437E+03	7.255710E-02	6.091095E-04
4.250712E+03	7.244326E-02	6.080818E-04
4.252987E+03	7.238618E-02	6.075309E-04
4.255261E+03	7.227238E-02	6.065041E-04
4.257537E+03	7.208060E-02	6.048232E-04
4.259812E+03	7.193136E-02	6.034996E-04
4.262087E+03	7.181048E-02	6.024143E-04
4.264362E+03	7.168250E-02	6.012698E-04
4.266636E+03	7.169627E-02	6.013143E-04
4.268911E+03	7.153994E-02	5.999324E-04
4.271186E+03	7.148990E-02	5.994421E-04
4.273461E+03	7.148948E-02	5.993679E-04
4.275735E+03	7.158117E-02	6.000660E-04
4.278010E+03	7.164455E-02	6.005266E-04
4.280285E+03	7.159451E-02	6.000365E-04
4.282560E+03	7.156573E-02	5.997248E-04
4.284835E+03	7.171413E-02	6.008976E-04
4.287110E+03	7.201134E-02	6.033171E-04
4.289385E+03	7.218808E-02	6.047268E-04
4.291660E+03	7.245693E-02	6.069076E-04
