#wls	flux	fluxerr
1.591660E+03	6.028938E-04	1.517670E-05
1.631451E+03	6.064593E-04	1.525339E-05
1.671243E+03	6.099993E-04	1.532893E-05
1.711034E+03	6.137330E-04	1.540883E-05
1.750826E+03	6.174303E-04	1.548728E-05
1.790617E+03	6.213150E-04	1.556989E-05
1.830409E+03	6.253868E-04	1.565661E-05
1.870200E+03	6.296449E-04	1.574739E-05
1.909992E+03	6.343241E-04	1.584809E-05
1.949783E+03	6.391961E-04	1.595293E-05
1.989575E+03	6.446175E-04	1.607079E-05
2.029366E+03	6.505996E-04	1.620188E-05
2.069158E+03	6.570388E-04	1.634355E-05
2.108949E+03	6.643063E-04	1.650497E-05
2.148741E+03	6.723065E-04	1.668367E-05
2.188532E+03	6.811864E-04	1.688320E-05
2.228324E+03	6.909810E-04	1.710433E-05
2.268115E+03	7.016139E-04	1.734503E-05
2.307907E+03	7.133760E-04	1.761238E-05
2.347698E+03	7.260911E-04	1.790190E-05
2.387490E+03	7.399560E-04	1.821828E-05
2.427281E+03	7.549433E-04	1.856070E-05
2.467073E+03	7.711629E-04	1.893168E-05
2.506864E+03	7.886253E-04	1.933131E-05
2.546656E+03	8.076072E-04	1.976615E-05
2.586447E+03	8.282923E-04	2.024049E-05
2.626239E+03	8.507715E-04	2.075626E-05
2.666030E+03	8.754156E-04	2.132222E-05
2.705821E+03	9.023851E-04	2.194194E-05
2.745613E+03	9.320010E-04	2.262284E-05
2.785404E+03	9.646279E-04	2.337332E-05
2.825196E+03	1.000668E-03	2.420263E-05
2.864987E+03	1.040298E-03	2.511448E-05
2.904779E+03	1.084112E-03	2.612258E-05
2.944570E+03	1.132597E-03	2.723792E-05
2.984362E+03	1.186521E-03	2.847814E-05
2.994310E+03	1.200932E-03	2.880952E-05
3.004258E+03	1.215801E-03	2.915146E-05
3.014206E+03	1.231138E-03	2.950415E-05
3.024153E+03	1.246803E-03	2.986430E-05
3.034101E+03	1.262805E-03	3.023202E-05
3.044049E+03	1.279440E-03	3.061442E-05
3.053997E+03	1.296422E-03	3.100465E-05
3.063945E+03	1.314054E-03	3.140990E-05
3.073893E+03	1.332045E-03	3.182318E-05
3.083841E+03	1.350547E-03	3.224815E-05
3.093789E+03	1.369565E-03	3.268489E-05
3.103736E+03	1.389104E-03	3.313348E-05
3.113684E+03	1.409166E-03	3.359396E-05
3.123632E+03	1.429910E-03	3.407006E-05
3.133580E+03	1.451025E-03	3.455440E-05
3.143528E+03	1.472825E-03	3.505439E-05
3.153476E+03	1.495311E-03	3.557006E-05
3.163424E+03	1.518324E-03	3.609755E-05
3.173372E+03	1.542021E-03	3.664062E-05
3.183319E+03	1.566236E-03	3.719526E-05
3.193267E+03	1.591292E-03	3.776911E-05
3.203215E+03	1.616853E-03	3.835418E-05
3.213163E+03	1.643075E-03	3.895412E-05
3.223111E+03	1.669946E-03	3.956864E-05
3.233059E+03	1.697626E-03	4.020148E-05
3.243007E+03	1.725929E-03	4.084822E-05
3.252955E+03	1.754838E-03	4.150840E-05
3.262902E+03	1.784506E-03	4.218563E-05
3.272850E+03	1.814912E-03	4.287938E-05
3.282798E+03	1.846034E-03	4.358905E-05
3.292746E+03	1.877844E-03	4.431398E-05
3.302694E+03	1.910491E-03	4.505765E-05
3.312642E+03	1.943763E-03	4.581503E-05
3.322590E+03	1.977622E-03	4.658517E-05
3.332538E+03	2.012212E-03	4.737142E-05
3.342485E+03	2.047676E-03	4.817714E-05
3.352433E+03	2.083600E-03	4.899252E-05
3.362381E+03	2.120308E-03	4.982518E-05
3.372329E+03	2.157564E-03	5.066950E-05
3.382277E+03	2.195697E-03	5.153320E-05
3.392225E+03	2.234273E-03	5.240606E-05
3.402173E+03	2.273624E-03	5.329579E-05
3.412120E+03	2.313504E-03	5.419663E-05
3.422068E+03	2.354055E-03	5.511186E-05
3.432016E+03	2.395226E-03	5.604024E-05
3.441964E+03	2.436967E-03	5.698060E-05
3.451912E+03	2.479432E-03	5.793645E-05
3.461860E+03	2.522378E-03	5.890213E-05
3.471808E+03	2.565966E-03	5.988134E-05
3.481756E+03	2.610161E-03	6.087322E-05
3.491703E+03	2.655135E-03	6.188176E-05
3.501651E+03	2.700665E-03	6.290171E-05
3.511599E+03	2.746935E-03	6.393733E-05
3.521547E+03	2.793933E-03	6.498830E-05
3.531495E+03	2.841656E-03	6.605449E-05
3.541443E+03	2.890304E-03	6.714051E-05
3.551391E+03	2.939683E-03	6.824182E-05
3.561339E+03	2.990005E-03	6.936329E-05
3.571286E+03	3.041087E-03	7.050060E-05
3.581234E+03	3.093347E-03	7.166344E-05
3.591182E+03	3.146610E-03	7.284762E-05
3.601130E+03	3.200899E-03	7.405369E-05
3.611078E+03	3.256243E-03	7.528222E-05
3.621026E+03	3.312867E-03	7.653836E-05
3.630974E+03	3.370600E-03	7.781808E-05
3.640922E+03	3.429466E-03	7.912190E-05
3.650869E+03	3.489883E-03	8.045935E-05
3.660817E+03	3.551470E-03	8.182159E-05
3.670765E+03	3.614238E-03	8.320881E-05
3.680713E+03	3.678580E-03	8.462998E-05
3.690661E+03	3.744094E-03	8.607577E-05
3.700609E+03	3.810954E-03	8.755009E-05
3.710557E+03	3.878925E-03	8.904750E-05
3.720505E+03	3.948150E-03	9.057119E-05
3.730452E+03	4.018553E-03	9.211933E-05
3.740400E+03	4.090037E-03	9.368967E-05
3.750348E+03	4.162290E-03	9.527500E-05
3.760296E+03	4.235361E-03	9.687635E-05
3.770244E+03	4.308886E-03	9.848538E-05
3.780192E+03	4.382857E-03	1.001018E-04
3.790140E+03	4.456854E-03	1.017162E-04
3.800088E+03	4.530623E-03	1.033225E-04
3.810035E+03	4.603878E-03	1.049144E-04
3.819983E+03	4.676309E-03	1.064847E-04
3.829931E+03	4.747582E-03	1.080259E-04
3.839879E+03	4.817153E-03	1.095257E-04
3.849827E+03	4.885022E-03	1.109842E-04
3.859775E+03	4.950252E-03	1.123801E-04
3.869723E+03	5.012823E-03	1.137131E-04
3.879671E+03	5.072172E-03	1.149707E-04
3.889618E+03	5.127748E-03	1.161405E-04
3.899566E+03	5.179557E-03	1.172228E-04
3.909514E+03	5.226743E-03	1.181984E-04
3.919462E+03	5.269383E-03	1.190694E-04
3.929410E+03	5.307054E-03	1.198264E-04
3.939358E+03	5.339579E-03	1.204657E-04
3.949306E+03	5.366674E-03	1.209811E-04
3.959254E+03	5.388279E-03	1.213716E-04
3.969201E+03	5.404566E-03	1.216415E-04
3.979149E+03	5.415309E-03	1.217857E-04
3.989097E+03	5.420652E-03	1.218080E-04
3.999045E+03	5.420992E-03	1.217174E-04
4.008993E+03	5.416451E-03	1.215171E-04
4.018941E+03	5.407380E-03	1.212152E-04
4.028889E+03	5.394040E-03	1.208177E-04
4.038836E+03	5.376877E-03	1.203348E-04
4.048784E+03	5.356387E-03	1.197780E-04
4.058732E+03	5.333083E-03	1.191588E-04
4.068680E+03	5.307368E-03	1.184864E-04
4.078628E+03	5.279783E-03	1.177730E-04
4.088576E+03	5.250886E-03	1.170311E-04
4.098524E+03	5.221085E-03	1.162700E-04
4.108472E+03	5.191047E-03	1.155044E-04
4.118419E+03	5.161151E-03	1.147430E-04
4.128367E+03	5.131765E-03	1.139937E-04
4.138315E+03	5.103484E-03	1.132699E-04
4.148263E+03	5.076612E-03	1.125781E-04
4.158211E+03	5.051679E-03	1.119301E-04
4.168159E+03	5.028837E-03	1.113292E-04
4.178107E+03	5.008548E-03	1.107854E-04
4.188055E+03	4.991036E-03	1.103036E-04
4.198002E+03	4.976703E-03	1.098924E-04
4.207950E+03	4.965634E-03	1.095536E-04
4.217898E+03	4.958296E-03	1.092973E-04
4.227846E+03	4.954740E-03	1.091245E-04
4.237794E+03	4.955306E-03	1.090423E-04
4.247742E+03	4.960222E-03	1.090555E-04
4.257690E+03	4.969512E-03	1.091645E-04
4.267638E+03	4.983573E-03	1.093776E-04
4.277585E+03	5.002591E-03	1.096988E-04
4.287533E+03	5.026570E-03	1.101278E-04
4.297481E+03	5.055769E-03	1.106700E-04
4.307429E+03	5.090335E-03	1.113283E-04
4.317377E+03	5.130295E-03	1.121030E-04
4.327325E+03	5.175842E-03	1.129980E-04
4.337273E+03	5.227028E-03	1.140141E-04
4.347221E+03	5.283777E-03	1.151493E-04
4.357168E+03	5.346063E-03	1.164028E-04
4.367116E+03	5.413689E-03	1.177698E-04
4.377064E+03	5.486676E-03	1.192507E-04
4.387012E+03	5.564603E-03	1.208358E-04
4.396960E+03	5.647151E-03	1.225181E-04
4.406908E+03	5.733901E-03	1.242881E-04
4.416856E+03	5.824345E-03	1.261347E-04
4.426804E+03	5.917888E-03	1.280446E-04
4.436751E+03	6.013630E-03	1.299983E-04
4.446699E+03	6.110860E-03	1.319804E-04
4.456647E+03	6.208785E-03	1.339735E-04
4.466595E+03	6.306243E-03	1.359527E-04
4.476543E+03	6.402369E-03	1.378993E-04
4.486491E+03	6.495890E-03	1.397859E-04
4.496439E+03	6.585769E-03	1.415906E-04
4.506387E+03	6.670896E-03	1.432896E-04
4.516334E+03	6.750064E-03	1.448573E-04
4.526282E+03	6.822249E-03	1.462722E-04
4.536230E+03	6.886493E-03	1.475141E-04
4.546178E+03	6.941983E-03	1.485661E-04
4.556126E+03	6.987943E-03	1.494122E-04
4.566074E+03	7.023970E-03	1.500443E-04
4.576022E+03	7.049567E-03	1.504524E-04
4.585970E+03	7.064825E-03	1.506390E-04
4.595917E+03	7.069567E-03	1.506010E-04
4.605865E+03	7.064384E-03	1.503517E-04
4.615813E+03	7.049505E-03	1.498965E-04
4.625761E+03	7.025602E-03	1.492502E-04
4.635709E+03	6.993681E-03	1.484347E-04
4.645657E+03	6.954405E-03	1.474646E-04
4.655605E+03	6.908898E-03	1.463642E-04
4.665553E+03	6.858323E-03	1.451583E-04
4.675500E+03	6.803595E-03	1.438668E-04
4.685448E+03	6.745815E-03	1.425130E-04
4.695396E+03	6.686119E-03	1.411211E-04
4.705344E+03	6.625420E-03	1.397106E-04
4.715292E+03	6.564722E-03	1.383027E-04
4.725240E+03	6.504854E-03	1.369147E-04
4.735188E+03	6.446546E-03	1.355620E-04
4.745135E+03	6.390419E-03	1.342576E-04
4.755083E+03	6.337160E-03	1.330157E-04
4.765031E+03	6.287180E-03	1.318449E-04
4.774979E+03	6.240792E-03	1.307514E-04
4.784927E+03	6.198153E-03	1.297384E-04
4.794875E+03	6.159417E-03	1.288089E-04
4.804823E+03	6.124530E-03	1.279616E-04
4.814771E+03	6.093675E-03	1.272000E-04
4.824718E+03	6.066676E-03	1.265202E-04
4.834666E+03	6.043465E-03	1.259206E-04
4.844614E+03	6.024093E-03	1.254021E-04
4.854562E+03	6.008294E-03	1.249589E-04
4.864510E+03	5.995949E-03	1.245884E-04
4.874458E+03	5.987075E-03	1.242906E-04
4.884406E+03	5.981510E-03	1.240621E-04
4.894354E+03	5.979169E-03	1.239008E-04
4.904301E+03	5.980097E-03	1.238075E-04
4.914249E+03	5.984289E-03	1.237820E-04
4.924197E+03	5.991734E-03	1.238239E-04
4.934145E+03	6.002654E-03	1.239374E-04
4.944093E+03	6.017187E-03	1.241254E-04
4.954041E+03	6.035437E-03	1.243896E-04
4.963989E+03	6.057653E-03	1.247351E-04
4.973937E+03	6.084048E-03	1.251661E-04
4.983884E+03	6.114893E-03	1.256878E-04
4.993832E+03	6.150397E-03	1.263043E-04
5.003780E+03	6.190664E-03	1.270176E-04
5.013728E+03	6.235990E-03	1.278333E-04
5.023676E+03	6.286348E-03	1.287507E-04
5.033624E+03	6.341939E-03	1.297737E-04
5.043572E+03	6.402782E-03	1.309023E-04
5.053520E+03	6.468764E-03	1.321340E-04
5.063467E+03	6.539865E-03	1.334680E-04
5.073415E+03	6.615988E-03	1.349022E-04
5.083363E+03	6.696779E-03	1.364291E-04
5.093311E+03	6.782095E-03	1.380455E-04
5.103259E+03	6.871527E-03	1.397429E-04
5.113207E+03	6.964733E-03	1.415141E-04
5.123155E+03	7.061172E-03	1.433480E-04
5.133103E+03	7.160392E-03	1.452353E-04
5.143050E+03	7.261784E-03	1.471634E-04
5.152998E+03	7.364699E-03	1.491192E-04
5.162946E+03	7.468398E-03	1.510876E-04
5.172894E+03	7.572105E-03	1.530529E-04
5.182842E+03	7.674971E-03	1.549980E-04
5.192790E+03	7.776098E-03	1.569049E-04
5.202738E+03	7.874626E-03	1.587563E-04
5.212686E+03	7.969409E-03	1.605293E-04
5.222633E+03	8.059613E-03	1.622073E-04
5.232581E+03	8.144228E-03	1.637703E-04
5.242529E+03	8.222073E-03	1.651949E-04
5.252477E+03	8.292323E-03	1.664649E-04
5.262425E+03	8.354033E-03	1.675617E-04
5.272373E+03	8.406208E-03	1.684659E-04
5.282321E+03	8.448029E-03	1.691615E-04
5.292269E+03	8.478834E-03	1.696359E-04
5.302216E+03	8.497903E-03	1.698752E-04
5.312164E+03	8.504789E-03	1.698711E-04
5.322112E+03	8.499016E-03	1.696147E-04
5.332060E+03	8.480411E-03	1.691033E-04
5.342008E+03	8.448760E-03	1.683331E-04
5.351956E+03	8.404189E-03	1.673074E-04
5.361904E+03	8.346785E-03	1.660285E-04
5.371851E+03	8.276962E-03	1.645053E-04
5.381799E+03	8.195200E-03	1.627479E-04
5.391747E+03	8.102033E-03	1.607675E-04
5.401695E+03	7.998294E-03	1.585811E-04
5.411643E+03	7.884790E-03	1.562052E-04
5.421591E+03	7.762673E-03	1.536631E-04
5.431539E+03	7.632882E-03	1.509737E-04
5.441487E+03	7.496613E-03	1.481610E-04
5.451434E+03	7.355286E-03	1.452534E-04
5.461382E+03	7.210065E-03	1.422740E-04
5.471330E+03	7.062378E-03	1.392510E-04
5.481278E+03	6.913588E-03	1.362116E-04
5.491226E+03	6.765067E-03	1.331827E-04
5.501174E+03	6.618069E-03	1.301888E-04
5.511122E+03	6.473958E-03	1.272569E-04
5.521070E+03	6.333894E-03	1.244093E-04
5.531017E+03	6.199203E-03	1.216720E-04
5.540965E+03	6.070751E-03	1.190618E-04
5.550913E+03	5.949616E-03	1.165993E-04
5.560861E+03	5.836580E-03	1.142996E-04
5.570809E+03	5.732442E-03	1.121780E-04
5.580757E+03	5.637782E-03	1.102453E-04
5.590705E+03	5.553178E-03	1.085125E-04
5.600653E+03	5.479008E-03	1.069864E-04
5.610600E+03	5.415652E-03	1.056741E-04
5.620548E+03	5.363288E-03	1.045785E-04
5.630496E+03	5.322130E-03	1.037034E-04
5.640444E+03	5.292180E-03	1.030484E-04
5.650392E+03	5.273484E-03	1.026138E-04
5.660340E+03	5.265931E-03	1.023971E-04
5.670288E+03	5.269249E-03	1.023926E-04
5.680236E+03	5.283322E-03	1.025976E-04
5.690183E+03	5.307647E-03	1.030019E-04
5.700131E+03	5.341876E-03	1.035984E-04
5.710079E+03	5.385464E-03	1.043762E-04
5.720027E+03	5.437720E-03	1.053216E-04
5.729975E+03	5.497884E-03	1.064197E-04
5.739923E+03	5.565101E-03	1.076535E-04
5.749871E+03	5.638452E-03	1.090053E-04
5.759819E+03	5.716765E-03	1.104520E-04
5.769766E+03	5.798995E-03	1.119735E-04
5.779714E+03	5.883856E-03	1.135448E-04
5.789662E+03	5.970008E-03	1.151401E-04
5.799610E+03	6.056239E-03	1.167361E-04
5.809558E+03	6.141119E-03	1.183052E-04
5.819506E+03	6.223403E-03	1.198235E-04
5.829454E+03	6.301855E-03	1.212675E-04
5.839402E+03	6.375282E-03	1.226144E-04
5.849349E+03	6.442646E-03	1.238444E-04
5.859297E+03	6.503151E-03	1.249425E-04
5.869245E+03	6.556035E-03	1.258943E-04
5.879193E+03	6.600792E-03	1.266904E-04
5.889141E+03	6.637128E-03	1.273255E-04
5.899089E+03	6.664950E-03	1.277980E-04
5.909037E+03	6.684375E-03	1.281104E-04
5.918985E+03	6.695583E-03	1.282665E-04
5.928932E+03	6.699264E-03	1.282798E-04
5.938880E+03	6.695881E-03	1.281592E-04
5.948828E+03	6.686292E-03	1.279214E-04
5.958776E+03	6.671405E-03	1.275840E-04
5.968724E+03	6.652197E-03	1.271657E-04
5.978672E+03	6.629572E-03	1.266840E-04
5.988620E+03	6.604716E-03	1.261615E-04
5.998568E+03	6.578602E-03	1.256170E-04
6.008515E+03	6.552170E-03	1.250684E-04
6.018463E+03	6.526358E-03	1.245335E-04
6.028411E+03	6.502009E-03	1.240286E-04
6.038359E+03	6.479817E-03	1.235667E-04
6.048307E+03	6.460458E-03	1.231608E-04
6.058255E+03	6.444318E-03	1.228181E-04
6.068203E+03	6.431748E-03	1.225454E-04
6.078150E+03	6.422964E-03	1.223466E-04
6.088098E+03	6.418003E-03	1.222225E-04
6.098046E+03	6.416748E-03	1.221708E-04
6.107994E+03	6.419035E-03	1.221883E-04
6.117942E+03	6.424531E-03	1.222687E-04
6.127890E+03	6.432806E-03	1.224038E-04
6.137838E+03	6.443298E-03	1.225829E-04
6.147786E+03	6.455443E-03	1.227954E-04
6.157733E+03	6.468637E-03	1.230297E-04
6.167681E+03	6.482383E-03	1.232763E-04
6.177629E+03	6.496115E-03	1.235247E-04
6.187577E+03	6.509400E-03	1.237666E-04
6.197525E+03	6.521774E-03	1.239931E-04
6.207473E+03	6.532729E-03	1.241948E-04
6.217421E+03	6.541882E-03	1.243643E-04
6.227369E+03	6.548889E-03	1.244952E-04
6.237316E+03	6.553469E-03	1.245821E-04
6.247264E+03	6.555267E-03	1.246184E-04
6.257212E+03	6.554257E-03	1.246035E-04
6.267160E+03	6.550219E-03	1.245333E-04
6.277108E+03	6.543059E-03	1.244061E-04
6.287056E+03	6.532884E-03	1.242238E-04
6.297004E+03	6.519652E-03	1.239857E-04
6.306952E+03	6.503588E-03	1.236960E-04
6.316899E+03	6.484755E-03	1.233559E-04
6.326847E+03	6.463400E-03	1.229702E-04
6.336795E+03	6.439793E-03	1.225439E-04
6.346743E+03	6.414103E-03	1.220802E-04
6.356691E+03	6.386637E-03	1.215849E-04
6.366639E+03	6.357722E-03	1.210641E-04
6.376587E+03	6.327606E-03	1.205226E-04
6.386535E+03	6.296540E-03	1.199649E-04
6.396482E+03	6.264819E-03	1.193967E-04
6.406430E+03	6.232662E-03	1.188221E-04
6.416378E+03	6.200131E-03	1.182421E-04
6.426326E+03	6.166687E-03	1.176465E-04
6.436274E+03	6.131822E-03	1.170253E-04
6.446222E+03	6.095051E-03	1.163694E-04
6.456170E+03	6.056006E-03	1.156715E-04
6.466118E+03	6.014221E-03	1.149226E-04
6.476065E+03	5.969168E-03	1.141125E-04
6.486013E+03	5.920470E-03	1.132338E-04
6.495961E+03	5.867950E-03	1.122830E-04
6.505909E+03	5.811404E-03	1.112560E-04
6.515857E+03	5.750734E-03	1.101507E-04
6.525805E+03	5.686127E-03	1.089704E-04
6.535753E+03	5.617671E-03	1.077168E-04
6.545701E+03	5.545611E-03	1.063942E-04
6.555648E+03	5.470270E-03	1.050087E-04
6.565596E+03	5.392115E-03	1.035691E-04
6.575544E+03	5.311589E-03	1.020836E-04
6.585492E+03	5.229192E-03	1.005617E-04
6.595440E+03	5.145516E-03	9.901467E-05
6.605388E+03	5.060996E-03	9.745072E-05
6.615336E+03	4.976364E-03	9.588384E-05
6.625284E+03	4.892068E-03	9.432258E-05
6.635231E+03	4.808714E-03	9.277856E-05
6.645179E+03	4.726889E-03	9.126304E-05
6.655127E+03	4.647043E-03	8.978473E-05
6.665075E+03	4.569703E-03	8.835382E-05
6.675023E+03	4.495256E-03	8.697780E-05
6.684971E+03	4.424200E-03	8.566636E-05
6.694919E+03	4.356835E-03	8.442542E-05
6.704866E+03	4.293467E-03	8.326098E-05
6.714814E+03	4.234352E-03	8.217817E-05
6.724762E+03	4.179751E-03	8.118216E-05
6.734710E+03	4.129823E-03	8.027619E-05
6.744658E+03	4.084633E-03	7.946171E-05
6.754606E+03	4.044343E-03	7.874205E-05
6.764554E+03	4.008926E-03	7.811687E-05
6.774502E+03	3.978313E-03	7.758501E-05
6.784449E+03	3.952578E-03	7.714815E-05
6.794397E+03	3.931478E-03	7.680172E-05
6.804345E+03	3.914966E-03	7.654501E-05
6.814293E+03	3.902820E-03	7.637391E-05
6.824241E+03	3.894930E-03	7.628645E-05
6.834189E+03	3.890929E-03	7.627561E-05
6.844137E+03	3.890710E-03	7.633951E-05
6.854085E+03	3.893918E-03	7.647135E-05
6.864032E+03	3.900335E-03	7.666704E-05
6.873980E+03	3.909697E-03	7.692150E-05
6.883928E+03	3.921702E-03	7.722895E-05
6.893876E+03	3.936206E-03	7.758670E-05
6.903824E+03	3.952899E-03	7.798875E-05
6.913772E+03	3.971642E-03	7.843249E-05
6.923720E+03	3.992286E-03	7.891504E-05
6.933668E+03	4.014712E-03	7.943421E-05
6.943615E+03	4.038844E-03	7.998854E-05
6.953563E+03	4.064588E-03	8.057628E-05
6.963511E+03	4.091985E-03	8.119832E-05
6.973459E+03	4.121053E-03	8.185513E-05
6.983407E+03	4.151834E-03	8.254763E-05
6.993355E+03	4.184336E-03	8.327606E-05
7.003303E+03	4.218624E-03	8.404185E-05
7.013251E+03	4.254821E-03	8.484752E-05
7.023198E+03	4.292934E-03	8.569336E-05
7.033146E+03	4.333012E-03	8.658043E-05
7.043094E+03	4.375075E-03	8.750927E-05
7.053042E+03	4.419114E-03	8.847980E-05
7.062990E+03	4.465076E-03	8.949108E-05
7.072938E+03	4.512855E-03	9.054112E-05
7.082886E+03	4.562232E-03	9.162562E-05
7.092834E+03	4.612973E-03	9.273997E-05
7.102781E+03	4.664771E-03	9.387809E-05
7.112729E+03	4.717303E-03	9.503351E-05
7.122677E+03	4.769927E-03	9.619335E-05
7.132625E+03	4.822280E-03	9.735030E-05
7.142573E+03	4.873569E-03	9.848830E-05
7.152521E+03	4.923175E-03	9.959475E-05
7.162469E+03	4.970371E-03	1.006548E-04
7.172417E+03	5.014335E-03	1.016517E-04
7.182364E+03	5.054297E-03	1.025696E-04
7.192312E+03	5.089500E-03	1.033928E-04
7.202260E+03	5.119166E-03	1.041051E-04
7.212208E+03	5.142649E-03	1.046932E-04
7.222156E+03	5.159337E-03	1.051441E-04
7.232104E+03	5.168868E-03	1.054499E-04
7.242052E+03	5.170828E-03	1.056018E-04
7.252000E+03	5.165090E-03	1.055966E-04
7.261947E+03	5.151695E-03	1.054347E-04
7.271895E+03	5.130847E-03	1.051197E-04
7.281843E+03	5.102781E-03	1.046559E-04
7.291791E+03	5.068004E-03	1.040533E-04
7.301739E+03	5.027150E-03	1.033245E-04
7.311687E+03	4.980889E-03	1.024828E-04
7.321635E+03	4.930033E-03	1.015446E-04
7.331583E+03	4.875377E-03	1.005259E-04
7.341530E+03	4.817744E-03	9.944344E-05
7.351478E+03	4.758020E-03	9.831540E-05
7.361426E+03	4.697073E-03	9.715953E-05
7.371374E+03	4.635621E-03	9.599060E-05
7.381322E+03	4.574512E-03	9.482616E-05
7.391270E+03	4.514371E-03	9.367916E-05
7.401218E+03	4.455933E-03	9.256496E-05
7.411165E+03	4.399819E-03	9.149654E-05
7.421113E+03	4.346641E-03	9.048680E-05
7.431061E+03	4.296839E-03	8.954510E-05
7.441009E+03	4.250904E-03	8.868191E-05
7.450957E+03	4.209271E-03	8.790653E-05
7.460905E+03	4.172262E-03	8.722600E-05
7.470853E+03	4.140201E-03	8.664736E-05
7.480801E+03	4.113301E-03	8.617545E-05
7.490748E+03	4.091723E-03	8.581394E-05
7.500696E+03	4.075679E-03	8.556765E-05
7.510644E+03	4.065218E-03	8.543796E-05
7.520592E+03	4.060280E-03	8.542399E-05
7.530540E+03	4.060907E-03	8.552694E-05
7.540488E+03	4.066921E-03	8.574347E-05
7.550436E+03	4.078245E-03	8.607229E-05
7.560384E+03	4.094584E-03	8.650749E-05
7.570331E+03	4.115686E-03	8.704408E-05
7.580279E+03	4.141129E-03	8.767347E-05
7.590227E+03	4.170596E-03	8.838917E-05
7.600175E+03	4.203594E-03	8.918101E-05
7.610123E+03	4.239512E-03	9.003621E-05
7.620071E+03	4.277730E-03	9.094180E-05
7.630019E+03	4.317685E-03	9.188593E-05
7.639967E+03	4.358588E-03	9.285192E-05
7.649914E+03	4.399659E-03	9.382315E-05
7.659862E+03	4.440080E-03	9.478220E-05
7.669810E+03	4.479067E-03	9.571223E-05
7.679758E+03	4.515704E-03	9.659358E-05
7.689706E+03	4.549141E-03	9.740786E-05
7.699654E+03	4.578610E-03	9.813841E-05
7.709602E+03	4.603261E-03	9.876672E-05
7.719550E+03	4.622363E-03	9.927675E-05
