#wls	flux	fluxerr
1.591660E+03	4.995304E-04	1.933614E-05
1.631451E+03	5.053800E-04	1.954001E-05
1.671243E+03	5.115501E-04	1.975516E-05
1.711034E+03	5.179558E-04	1.997821E-05
1.750826E+03	5.247151E-04	2.021367E-05
1.790617E+03	5.318481E-04	2.046220E-05
1.830409E+03	5.394836E-04	2.072867E-05
1.870200E+03	5.475454E-04	2.101004E-05
1.909992E+03	5.561706E-04	2.131145E-05
1.949783E+03	5.653972E-04	2.163421E-05
1.989575E+03	5.753778E-04	2.198402E-05
2.029366E+03	5.861647E-04	2.236268E-05
2.069158E+03	5.977006E-04	2.276781E-05
2.108949E+03	6.102770E-04	2.321032E-05
2.148741E+03	6.238530E-04	2.368840E-05
2.188532E+03	6.386288E-04	2.420937E-05
2.228324E+03	6.545782E-04	2.477195E-05
2.268115E+03	6.720500E-04	2.538899E-05
2.307907E+03	6.909167E-04	2.605531E-05
2.347698E+03	7.115615E-04	2.678493E-05
2.387490E+03	7.340079E-04	2.757827E-05
2.427281E+03	7.584193E-04	2.844096E-05
2.467073E+03	7.851139E-04	2.938435E-05
2.506864E+03	8.143005E-04	3.041559E-05
2.546656E+03	8.462084E-04	3.154252E-05
2.586447E+03	8.810856E-04	3.277357E-05
2.626239E+03	9.192021E-04	3.411786E-05
2.666030E+03	9.610006E-04	3.559083E-05
2.705821E+03	1.006796E-03	3.720297E-05
2.745613E+03	1.056917E-03	3.896515E-05
2.785404E+03	1.112034E-03	4.090067E-05
2.825196E+03	1.172503E-03	4.302098E-05
2.864987E+03	1.238661E-03	4.533666E-05
2.904779E+03	1.311365E-03	4.787717E-05
2.944570E+03	1.391097E-03	5.065779E-05
2.984362E+03	1.478466E-03	5.369828E-05
2.994310E+03	1.501600E-03	5.450228E-05
3.004258E+03	1.525234E-03	5.532312E-05
3.014206E+03	1.549366E-03	5.616071E-05
3.024153E+03	1.573997E-03	5.701499E-05
3.034101E+03	1.599122E-03	5.788580E-05
3.044049E+03	1.624952E-03	5.878070E-05
3.053997E+03	1.651273E-03	5.969191E-05
3.063945E+03	1.678081E-03	6.061920E-05
3.073893E+03	1.705586E-03	6.157014E-05
3.083841E+03	1.733568E-03	6.253669E-05
3.093789E+03	1.762238E-03	6.352647E-05
3.103736E+03	1.791367E-03	6.453116E-05
3.113684E+03	1.821170E-03	6.555842E-05
3.123632E+03	1.851640E-03	6.660793E-05
3.133580E+03	1.882536E-03	6.767102E-05
3.143528E+03	1.914306E-03	6.876370E-05
3.153476E+03	1.946474E-03	6.986884E-05
3.163424E+03	1.979257E-03	7.099413E-05
3.173372E+03	2.012638E-03	7.213893E-05
3.183319E+03	2.046599E-03	7.330253E-05
3.193267E+03	2.081359E-03	7.449274E-05
3.203215E+03	2.116659E-03	7.570021E-05
3.213163E+03	2.152474E-03	7.692399E-05
3.223111E+03	2.188778E-03	7.816311E-05
3.233059E+03	2.225790E-03	7.942528E-05
3.243007E+03	2.263484E-03	8.070956E-05
3.252955E+03	2.301580E-03	8.200590E-05
3.262902E+03	2.340296E-03	8.332199E-05
3.272850E+03	2.379598E-03	8.465659E-05
3.282798E+03	2.419451E-03	8.600840E-05
3.292746E+03	2.459819E-03	8.737604E-05
3.302694E+03	2.500660E-03	8.875803E-05
3.312642E+03	2.542193E-03	9.016203E-05
3.322590E+03	2.583857E-03	9.156808E-05
3.332538E+03	2.626386E-03	9.300220E-05
3.342485E+03	2.669214E-03	9.444426E-05
3.352433E+03	2.712292E-03	9.589246E-05
3.362381E+03	2.756096E-03	9.736362E-05
3.372329E+03	2.800048E-03	9.883729E-05
3.382277E+03	2.844627E-03	1.003302E-04
3.392225E+03	2.889247E-03	1.018218E-04
3.402173E+03	2.934385E-03	1.033288E-04
3.412120E+03	2.979986E-03	1.048493E-04
3.422068E+03	3.025728E-03	1.063717E-04
3.432016E+03	3.071818E-03	1.079035E-04
3.441964E+03	3.118200E-03	1.094425E-04
3.451912E+03	3.164545E-03	1.109772E-04
3.461860E+03	3.211329E-03	1.125243E-04
3.471808E+03	3.258492E-03	1.140816E-04
3.481756E+03	3.305436E-03	1.156281E-04
3.491703E+03	3.352902E-03	1.171899E-04
3.501651E+03	3.400293E-03	1.187458E-04
3.511599E+03	3.447813E-03	1.203032E-04
3.521547E+03	3.495398E-03	1.218597E-04
3.531495E+03	3.542985E-03	1.234130E-04
3.541443E+03	3.590508E-03	1.249610E-04
3.551391E+03	3.638168E-03	1.265105E-04
3.561339E+03	3.685896E-03	1.280592E-04
3.571286E+03	3.733625E-03	1.296048E-04
3.581234E+03	3.781288E-03	1.311448E-04
3.591182E+03	3.828814E-03	1.326768E-04
3.601130E+03	3.876137E-03	1.341985E-04
3.611078E+03	3.923442E-03	1.357164E-04
3.621026E+03	3.970402E-03	1.372191E-04
3.630974E+03	4.017197E-03	1.387129E-04
3.640922E+03	4.064006E-03	1.402040E-04
3.650869E+03	4.110248E-03	1.416723E-04
3.660817E+03	4.156345E-03	1.431323E-04
3.670765E+03	4.201975E-03	1.445731E-04
3.680713E+03	4.247297E-03	1.460001E-04
3.690661E+03	4.292230E-03	1.474105E-04
3.700609E+03	4.336686E-03	1.488015E-04
3.710557E+03	4.380588E-03	1.501703E-04
3.720505E+03	4.423842E-03	1.515138E-04
3.730452E+03	4.466605E-03	1.528374E-04
3.740400E+03	4.508547E-03	1.541299E-04
3.750348E+03	4.550041E-03	1.554041E-04
3.760296E+03	4.590542E-03	1.566414E-04
3.770244E+03	4.630190E-03	1.578468E-04
3.780192E+03	4.668894E-03	1.590171E-04
3.790140E+03	4.706797E-03	1.601573E-04
3.800088E+03	4.743797E-03	1.612641E-04
3.810035E+03	4.779391E-03	1.623205E-04
3.819983E+03	4.814138E-03	1.633454E-04
3.829931E+03	4.847744E-03	1.643291E-04
3.839879E+03	4.879938E-03	1.652626E-04
3.849827E+03	4.911054E-03	1.661571E-04
3.859775E+03	4.940637E-03	1.669975E-04
3.869723E+03	4.969025E-03	1.677953E-04
3.879671E+03	4.996166E-03	1.685489E-04
3.889618E+03	5.021638E-03	1.692442E-04
3.899566E+03	5.045792E-03	1.698931E-04
3.909514E+03	5.068602E-03	1.704950E-04
3.919462E+03	5.089870E-03	1.710433E-04
3.929410E+03	5.109777E-03	1.715442E-04
3.939358E+03	5.128322E-03	1.719979E-04
3.949306E+03	5.145347E-03	1.723991E-04
3.959254E+03	5.160892E-03	1.727494E-04
3.969201E+03	5.175323E-03	1.730612E-04
3.979149E+03	5.188193E-03	1.733197E-04
3.989097E+03	5.199889E-03	1.735379E-04
3.999045E+03	5.210481E-03	1.737183E-04
4.008993E+03	5.219889E-03	1.738584E-04
4.018941E+03	5.228203E-03	1.739612E-04
4.028889E+03	5.235519E-03	1.740302E-04
4.038836E+03	5.241949E-03	1.740690E-04
4.048784E+03	5.247597E-03	1.740812E-04
4.058732E+03	5.252449E-03	1.740666E-04
4.068680E+03	5.256764E-03	1.740337E-04
4.078628E+03	5.260538E-03	1.739825E-04
4.088576E+03	5.263779E-03	1.739133E-04
4.098524E+03	5.266754E-03	1.738349E-04
4.108472E+03	5.269475E-03	1.737479E-04
4.118419E+03	5.272091E-03	1.736571E-04
4.128367E+03	5.274738E-03	1.735671E-04
4.138315E+03	5.277317E-03	1.734746E-04
4.148263E+03	5.280096E-03	1.733884E-04
4.158211E+03	5.283102E-03	1.733094E-04
4.168159E+03	5.286466E-03	1.732419E-04
4.178107E+03	5.290213E-03	1.731867E-04
4.188055E+03	5.294361E-03	1.731443E-04
4.198002E+03	5.299038E-03	1.731189E-04
4.207950E+03	5.304368E-03	1.731145E-04
4.217898E+03	5.310245E-03	1.731276E-04
4.227846E+03	5.316786E-03	1.731620E-04
4.237794E+03	5.323980E-03	1.732172E-04
4.247742E+03	5.331924E-03	1.732964E-04
4.257690E+03	5.340503E-03	1.733957E-04
4.267638E+03	5.349888E-03	1.735206E-04
4.277585E+03	5.359848E-03	1.736637E-04
4.287533E+03	5.370443E-03	1.738268E-04
4.297481E+03	5.381723E-03	1.740114E-04
4.307429E+03	5.393532E-03	1.742124E-04
4.317377E+03	5.405893E-03	1.744307E-04
4.327325E+03	5.418639E-03	1.746607E-04
4.337273E+03	5.431685E-03	1.748997E-04
4.347221E+03	5.445030E-03	1.751477E-04
4.357168E+03	5.458563E-03	1.754010E-04
4.367116E+03	5.472006E-03	1.756507E-04
4.377064E+03	5.485405E-03	1.758984E-04
4.387012E+03	5.498548E-03	1.761373E-04
4.396960E+03	5.511303E-03	1.763632E-04
4.406908E+03	5.523534E-03	1.765718E-04
4.416856E+03	5.535095E-03	1.767584E-04
4.426804E+03	5.545755E-03	1.769160E-04
4.436751E+03	5.555533E-03	1.770450E-04
4.446699E+03	5.564269E-03	1.771406E-04
4.456647E+03	5.571980E-03	1.772035E-04
4.466595E+03	5.578581E-03	1.772309E-04
4.476543E+03	5.583852E-03	1.772162E-04
4.486491E+03	5.587957E-03	1.771646E-04
4.496439E+03	5.590671E-03	1.770691E-04
4.506387E+03	5.592093E-03	1.769331E-04
4.516334E+03	5.592028E-03	1.767505E-04
4.526282E+03	5.590496E-03	1.765221E-04
4.536230E+03	5.587556E-03	1.762499E-04
4.546178E+03	5.583181E-03	1.759332E-04
4.556126E+03	5.577365E-03	1.755720E-04
4.566074E+03	5.570116E-03	1.751668E-04
4.576022E+03	5.561516E-03	1.747202E-04
4.585970E+03	5.551606E-03	1.742336E-04
4.595917E+03	5.540425E-03	1.737085E-04
4.605865E+03	5.528098E-03	1.731488E-04
4.615813E+03	5.514707E-03	1.725573E-04
4.625761E+03	5.500390E-03	1.719385E-04
4.635709E+03	5.485310E-03	1.712974E-04
4.645657E+03	5.469504E-03	1.706353E-04
4.655605E+03	5.453147E-03	1.699579E-04
4.665553E+03	5.436423E-03	1.692707E-04
4.675500E+03	5.419524E-03	1.685800E-04
4.685448E+03	5.402517E-03	1.678877E-04
4.695396E+03	5.385655E-03	1.672018E-04
4.705344E+03	5.369012E-03	1.665246E-04
4.715292E+03	5.352857E-03	1.658644E-04
4.725240E+03	5.337248E-03	1.652229E-04
4.735188E+03	5.322384E-03	1.646063E-04
4.745135E+03	5.308395E-03	1.640186E-04
4.755083E+03	5.295395E-03	1.634631E-04
4.765031E+03	5.283624E-03	1.629473E-04
4.774979E+03	5.273062E-03	1.624704E-04
4.784927E+03	5.263928E-03	1.620391E-04
4.794875E+03	5.256298E-03	1.616556E-04
4.804823E+03	5.250242E-03	1.613220E-04
4.814771E+03	5.245824E-03	1.610400E-04
4.824718E+03	5.243087E-03	1.608108E-04
4.834666E+03	5.242124E-03	1.606373E-04
4.844614E+03	5.242974E-03	1.605203E-04
4.854562E+03	5.245649E-03	1.604601E-04
4.864510E+03	5.250231E-03	1.604591E-04
4.874458E+03	5.256598E-03	1.605133E-04
4.884406E+03	5.264880E-03	1.606266E-04
4.894354E+03	5.275065E-03	1.607985E-04
4.904301E+03	5.287143E-03	1.610285E-04
4.914249E+03	5.301160E-03	1.613178E-04
4.924197E+03	5.316969E-03	1.616620E-04
4.934145E+03	5.334664E-03	1.620636E-04
4.944093E+03	5.354210E-03	1.625214E-04
4.954041E+03	5.375506E-03	1.630323E-04
4.963989E+03	5.398616E-03	1.635980E-04
4.973937E+03	5.423376E-03	1.642136E-04
4.983884E+03	5.449841E-03	1.648804E-04
4.993832E+03	5.477877E-03	1.655944E-04
5.003780E+03	5.507403E-03	1.663530E-04
5.013728E+03	5.538403E-03	1.671557E-04
5.023676E+03	5.570712E-03	1.679972E-04
5.033624E+03	5.604290E-03	1.688765E-04
5.043572E+03	5.639023E-03	1.697899E-04
5.053520E+03	5.674726E-03	1.707318E-04
5.063467E+03	5.711326E-03	1.717000E-04
5.073415E+03	5.748687E-03	1.726903E-04
5.083363E+03	5.786645E-03	1.736978E-04
5.093311E+03	5.825052E-03	1.747179E-04
5.103259E+03	5.863726E-03	1.757453E-04
5.113207E+03	5.902498E-03	1.767749E-04
5.123155E+03	5.941171E-03	1.778008E-04
5.133103E+03	5.979564E-03	1.788176E-04
5.143050E+03	6.017464E-03	1.798190E-04
5.152998E+03	6.054678E-03	1.807992E-04
5.162946E+03	6.090990E-03	1.817518E-04
5.172894E+03	6.126190E-03	1.826708E-04
5.182842E+03	6.160071E-03	1.835500E-04
5.192790E+03	6.192418E-03	1.843830E-04
5.202738E+03	6.223022E-03	1.851639E-04
5.212686E+03	6.251754E-03	1.858888E-04
5.222633E+03	6.278285E-03	1.865482E-04
5.232581E+03	6.302484E-03	1.871383E-04
5.242529E+03	6.324189E-03	1.876545E-04
5.252477E+03	6.343228E-03	1.880917E-04
5.262425E+03	6.359391E-03	1.884440E-04
5.272373E+03	6.372679E-03	1.887116E-04
5.282321E+03	6.382844E-03	1.888874E-04
5.292269E+03	6.389871E-03	1.889709E-04
5.302216E+03	6.393609E-03	1.889581E-04
5.312164E+03	6.394089E-03	1.888499E-04
5.322112E+03	6.391283E-03	1.886459E-04
5.332060E+03	6.385126E-03	1.883442E-04
5.342008E+03	6.375712E-03	1.879477E-04
5.351956E+03	6.363028E-03	1.874564E-04
5.361904E+03	6.347144E-03	1.868724E-04
5.371851E+03	6.328230E-03	1.862009E-04
5.381799E+03	6.306340E-03	1.854437E-04
5.391747E+03	6.281562E-03	1.846035E-04
5.401695E+03	6.254179E-03	1.836888E-04
5.411643E+03	6.224323E-03	1.827035E-04
5.421591E+03	6.192120E-03	1.816516E-04
5.431539E+03	6.157916E-03	1.805432E-04
5.441487E+03	6.121815E-03	1.793815E-04
5.451434E+03	6.084049E-03	1.781733E-04
5.461382E+03	6.044935E-03	1.769280E-04
5.471330E+03	6.004713E-03	1.756528E-04
5.481278E+03	5.963578E-03	1.743533E-04
5.491226E+03	5.921775E-03	1.730367E-04
5.501174E+03	5.879622E-03	1.717123E-04
5.511122E+03	5.837244E-03	1.703838E-04
5.521070E+03	5.795046E-03	1.690630E-04
5.531017E+03	5.753142E-03	1.677533E-04
5.540965E+03	5.711812E-03	1.664626E-04
5.550913E+03	5.671196E-03	1.651951E-04
5.560861E+03	5.631597E-03	1.639596E-04
5.570809E+03	5.593085E-03	1.627580E-04
5.580757E+03	5.555864E-03	1.615962E-04
5.590705E+03	5.520135E-03	1.604800E-04
5.600653E+03	5.485910E-03	1.594097E-04
5.610600E+03	5.453413E-03	1.583917E-04
5.620548E+03	5.422616E-03	1.574251E-04
5.630496E+03	5.393703E-03	1.565151E-04
5.640444E+03	5.366618E-03	1.556602E-04
5.650392E+03	5.341500E-03	1.548641E-04
5.660340E+03	5.318263E-03	1.541245E-04
5.670288E+03	5.296966E-03	1.534428E-04
5.680236E+03	5.277591E-03	1.528186E-04
5.690183E+03	5.260114E-03	1.522509E-04
5.700131E+03	5.244439E-03	1.517371E-04
5.710079E+03	5.230561E-03	1.512769E-04
5.720027E+03	5.218364E-03	1.508670E-04
5.729975E+03	5.207820E-03	1.505063E-04
5.739923E+03	5.198741E-03	1.501896E-04
5.749871E+03	5.191135E-03	1.499169E-04
5.759819E+03	5.184847E-03	1.496837E-04
5.769766E+03	5.179776E-03	1.494872E-04
5.779714E+03	5.175807E-03	1.493240E-04
5.789662E+03	5.172780E-03	1.491894E-04
5.799610E+03	5.170626E-03	1.490815E-04
5.809558E+03	5.169189E-03	1.489958E-04
5.819506E+03	5.168356E-03	1.489289E-04
5.829454E+03	5.168069E-03	1.488793E-04
5.839402E+03	5.168126E-03	1.488411E-04
5.849349E+03	5.168478E-03	1.488129E-04
5.859297E+03	5.169034E-03	1.487921E-04
5.869245E+03	5.169660E-03	1.487750E-04
5.879193E+03	5.170280E-03	1.487592E-04
5.889141E+03	5.170876E-03	1.487444E-04
5.899089E+03	5.171290E-03	1.487260E-04
5.909037E+03	5.171571E-03	1.487054E-04
5.918985E+03	5.171528E-03	1.486772E-04
5.928932E+03	5.171277E-03	1.486448E-04
5.938880E+03	5.170645E-03	1.486031E-04
5.948828E+03	5.169714E-03	1.485546E-04
5.958776E+03	5.168424E-03	1.484976E-04
5.968724E+03	5.166771E-03	1.484320E-04
5.978672E+03	5.164706E-03	1.483564E-04
5.988620E+03	5.162285E-03	1.482725E-04
5.998568E+03	5.159517E-03	1.481805E-04
6.008515E+03	5.156364E-03	1.480793E-04
6.018463E+03	5.152788E-03	1.479680E-04
6.028411E+03	5.148903E-03	1.478498E-04
6.038359E+03	5.144620E-03	1.477221E-04
6.048307E+03	5.140002E-03	1.475869E-04
6.058255E+03	5.135007E-03	1.474428E-04
6.068203E+03	5.129641E-03	1.472902E-04
6.078150E+03	5.123907E-03	1.471291E-04
6.088098E+03	5.117755E-03	1.469581E-04
6.098046E+03	5.111177E-03	1.467769E-04
6.107994E+03	5.104165E-03	1.465855E-04
6.117942E+03	5.096703E-03	1.463833E-04
6.127890E+03	5.088724E-03	1.461684E-04
6.137838E+03	5.080302E-03	1.459429E-04
6.147786E+03	5.071408E-03	1.457062E-04
6.157733E+03	5.062012E-03	1.454572E-04
6.167681E+03	5.051980E-03	1.451921E-04
6.177629E+03	5.041371E-03	1.449127E-04
6.187577E+03	5.030095E-03	1.446163E-04
6.197525E+03	5.018110E-03	1.443019E-04
6.207473E+03	5.005420E-03	1.439693E-04
6.217421E+03	4.991929E-03	1.436160E-04
6.227369E+03	4.977689E-03	1.432434E-04
6.237316E+03	4.962605E-03	1.428488E-04
6.247264E+03	4.946680E-03	1.424321E-04
6.257212E+03	4.929915E-03	1.419935E-04
6.267160E+03	4.912267E-03	1.415317E-04
6.277108E+03	4.893692E-03	1.410454E-04
6.287056E+03	4.874147E-03	1.405332E-04
6.297004E+03	4.853689E-03	1.399969E-04
6.306952E+03	4.832181E-03	1.394324E-04
6.316899E+03	4.809685E-03	1.388415E-04
6.326847E+03	4.786165E-03	1.382231E-04
6.336795E+03	4.761541E-03	1.375747E-04
6.346743E+03	4.735930E-03	1.368997E-04
6.356691E+03	4.709206E-03	1.361943E-04
6.366639E+03	4.681396E-03	1.354591E-04
6.376587E+03	4.652528E-03	1.346948E-04
6.386535E+03	4.622589E-03	1.339009E-04
6.396482E+03	4.591574E-03	1.330772E-04
6.406430E+03	4.559535E-03	1.322251E-04
6.416378E+03	4.526541E-03	1.313463E-04
6.426326E+03	4.492665E-03	1.304429E-04
6.436274E+03	4.457950E-03	1.295161E-04
6.446222E+03	4.422491E-03	1.285683E-04
6.456170E+03	4.386434E-03	1.276039E-04
6.466118E+03	4.349791E-03	1.266230E-04
6.476065E+03	4.312714E-03	1.256299E-04
6.486013E+03	4.275130E-03	1.246224E-04
6.495961E+03	4.237105E-03	1.236023E-04
6.505909E+03	4.198753E-03	1.225728E-04
6.515857E+03	4.160010E-03	1.215320E-04
6.525805E+03	4.121037E-03	1.204845E-04
6.535753E+03	4.081867E-03	1.194311E-04
6.545701E+03	4.042532E-03	1.183727E-04
6.555648E+03	4.003196E-03	1.173141E-04
6.565596E+03	3.963896E-03	1.162561E-04
6.575544E+03	3.924711E-03	1.152012E-04
6.585492E+03	3.885722E-03	1.141515E-04
6.595440E+03	3.847008E-03	1.131095E-04
6.605388E+03	3.808692E-03	1.120785E-04
6.615336E+03	3.770810E-03	1.110597E-04
6.625284E+03	3.733440E-03	1.100554E-04
6.635231E+03	3.696699E-03	1.090689E-04
6.645179E+03	3.660657E-03	1.081024E-04
6.655127E+03	3.625346E-03	1.071567E-04
6.665075E+03	3.590911E-03	1.062361E-04
6.675023E+03	3.557336E-03	1.053403E-04
6.684971E+03	3.524719E-03	1.044721E-04
6.694919E+03	3.493114E-03	1.036331E-04
6.704866E+03	3.462570E-03	1.028249E-04
6.714814E+03	3.433132E-03	1.020488E-04
6.724762E+03	3.404878E-03	1.013072E-04
6.734710E+03	3.377805E-03	1.006000E-04
6.744658E+03	3.351978E-03	9.992936E-05
6.754606E+03	3.327383E-03	9.929478E-05
6.764554E+03	3.304040E-03	9.869699E-05
6.774502E+03	3.282036E-03	9.813866E-05
6.784449E+03	3.261306E-03	9.761793E-05
6.794397E+03	3.241853E-03	9.713494E-05
6.804345E+03	3.223750E-03	9.669202E-05
6.814293E+03	3.206917E-03	9.628683E-05
6.824241E+03	3.191381E-03	9.592030E-05
6.834189E+03	3.177129E-03	9.559208E-05
6.844137E+03	3.164141E-03	9.530173E-05
6.854085E+03	3.152398E-03	9.504869E-05
6.864032E+03	3.141872E-03	9.483230E-05
6.873980E+03	3.132500E-03	9.465069E-05
6.883928E+03	3.124324E-03	9.450523E-05
6.893876E+03	3.117235E-03	9.439274E-05
6.903824E+03	3.111272E-03	9.431444E-05
6.913772E+03	3.106319E-03	9.426697E-05
6.923720E+03	3.102411E-03	9.425142E-05
6.933668E+03	3.099427E-03	9.426424E-05
6.943615E+03	3.097360E-03	9.430526E-05
6.953563E+03	3.096162E-03	9.437307E-05
6.963511E+03	3.095781E-03	9.446621E-05
6.973459E+03	3.096127E-03	9.458199E-05
6.983407E+03	3.097222E-03	9.472112E-05
6.993355E+03	3.098935E-03	9.487966E-05
7.003303E+03	3.101207E-03	9.505585E-05
7.013251E+03	3.104054E-03	9.525025E-05
7.023198E+03	3.107303E-03	9.545754E-05
7.033146E+03	3.111003E-03	9.567931E-05
7.043094E+03	3.114978E-03	9.591014E-05
7.053042E+03	3.119238E-03	9.615039E-05
7.062990E+03	3.123718E-03	9.639803E-05
7.072938E+03	3.128275E-03	9.664867E-05
7.082886E+03	3.132920E-03	9.690264E-05
7.092834E+03	3.137547E-03	9.715669E-05
7.102781E+03	3.142091E-03	9.740874E-05
7.112729E+03	3.146448E-03	9.765560E-05
7.122677E+03	3.150633E-03	9.789767E-05
7.132625E+03	3.154509E-03	9.813064E-05
7.142573E+03	3.158094E-03	9.835505E-05
7.152521E+03	3.161217E-03	9.856555E-05
7.162469E+03	3.163945E-03	9.876414E-05
7.172417E+03	3.166154E-03	9.894688E-05
7.182364E+03	3.167804E-03	9.911246E-05
7.192312E+03	3.168897E-03	9.926092E-05
7.202260E+03	3.169368E-03	9.939008E-05
7.212208E+03	3.169195E-03	9.949918E-05
7.222156E+03	3.168400E-03	9.958890E-05
7.232104E+03	3.166900E-03	9.965648E-05
7.242052E+03	3.164773E-03	9.970430E-05
7.252000E+03	3.161987E-03	9.973131E-05
7.261947E+03	3.158519E-03	9.973664E-05
7.271895E+03	3.154470E-03	9.972346E-05
7.281843E+03	3.149793E-03	9.969015E-05
7.291791E+03	3.144562E-03	9.963904E-05
7.301739E+03	3.138821E-03	9.957143E-05
7.311687E+03	3.132620E-03	9.948881E-05
7.321635E+03	3.126012E-03	9.939285E-05
7.331583E+03	3.119015E-03	9.928406E-05
7.341530E+03	3.111732E-03	9.916563E-05
7.351478E+03	3.104225E-03	9.903957E-05
7.361426E+03	3.096562E-03	9.890794E-05
7.371374E+03	3.088809E-03	9.877288E-05
7.381322E+03	3.080991E-03	9.863518E-05
7.391270E+03	3.073255E-03	9.849950E-05
7.401218E+03	3.065665E-03	9.836788E-05
7.411165E+03	3.058240E-03	9.824100E-05
7.421113E+03	3.051078E-03	9.812198E-05
7.431061E+03	3.044154E-03	9.801004E-05
7.441009E+03	3.037556E-03	9.790803E-05
7.450957E+03	3.031325E-03	9.781733E-05
7.460905E+03	3.025459E-03	9.773789E-05
7.470853E+03	3.020029E-03	9.767205E-05
7.480801E+03	3.015018E-03	9.761926E-05
7.490748E+03	3.010481E-03	9.758141E-05
7.500696E+03	3.006388E-03	9.755752E-05
7.510644E+03	3.002740E-03	9.754768E-05
7.520592E+03	2.999530E-03	9.755170E-05
7.530540E+03	2.996743E-03	9.756916E-05
7.540488E+03	2.994397E-03	9.760063E-05
7.550436E+03	2.992384E-03	9.764269E-05
7.560384E+03	2.990745E-03	9.769668E-05
7.570331E+03	2.989399E-03	9.775997E-05
7.580279E+03	2.988294E-03	9.783093E-05
7.590227E+03	2.987376E-03	9.790779E-05
7.600175E+03	2.986624E-03	9.798983E-05
7.610123E+03	2.985893E-03	9.807236E-05
7.620071E+03	2.985154E-03	9.815440E-05
7.630019E+03	2.984373E-03	9.823485E-05
7.639967E+03	2.983438E-03	9.830995E-05
7.649914E+03	2.982233E-03	9.837593E-05
7.659862E+03	2.980763E-03	9.843286E-05
7.669810E+03	2.978952E-03	9.847821E-05
7.679758E+03	2.976650E-03	9.850697E-05
7.689706E+03	2.973864E-03	9.851936E-05
7.699654E+03	2.970450E-03	9.851052E-05
7.709602E+03	2.966426E-03	9.848097E-05
7.719550E+03	2.961738E-03	9.842885E-05
