#wls	flux	fluxerr
1.591660E+03	3.040777E-04	4.858929E-05
1.631451E+03	3.141614E-04	5.019981E-05
1.671243E+03	3.247960E-04	5.189828E-05
1.711034E+03	3.360679E-04	5.369852E-05
1.750826E+03	3.478893E-04	5.558646E-05
1.790617E+03	3.604087E-04	5.758584E-05
1.830409E+03	3.736611E-04	5.970226E-05
1.870200E+03	3.876161E-04	6.193082E-05
1.909992E+03	4.023714E-04	6.428715E-05
1.949783E+03	4.179641E-04	6.677716E-05
1.989575E+03	4.345022E-04	6.941807E-05
2.029366E+03	4.519534E-04	7.220475E-05
2.069158E+03	4.704292E-04	7.515495E-05
2.108949E+03	4.899693E-04	7.827503E-05
2.148741E+03	5.106124E-04	8.157115E-05
2.188532E+03	5.324785E-04	8.506248E-05
2.228324E+03	5.556068E-04	8.875522E-05
2.268115E+03	5.800328E-04	9.265506E-05
2.307907E+03	6.058789E-04	9.678153E-05
2.347698E+03	6.331762E-04	1.011396E-04
2.387490E+03	6.619464E-04	1.057326E-04
2.427281E+03	6.924076E-04	1.105955E-04
2.467073E+03	7.244714E-04	1.157140E-04
2.506864E+03	7.581332E-04	1.210875E-04
2.546656E+03	7.937067E-04	1.267659E-04
2.586447E+03	8.309484E-04	1.327104E-04
2.626239E+03	8.701604E-04	1.389692E-04
2.666030E+03	9.111707E-04	1.455148E-04
2.705821E+03	9.541405E-04	1.523728E-04
2.745613E+03	9.988426E-04	1.595070E-04
2.785404E+03	1.045654E-03	1.669775E-04
2.825196E+03	1.094163E-03	1.747186E-04
2.864987E+03	1.144571E-03	1.827625E-04
2.904779E+03	1.196657E-03	1.910735E-04
2.944570E+03	1.250430E-03	1.996534E-04
2.984362E+03	1.305870E-03	2.084987E-04
2.994310E+03	1.319828E-03	2.107256E-04
3.004258E+03	1.333968E-03	2.129816E-04
3.014206E+03	1.348287E-03	2.152660E-04
3.024153E+03	1.362636E-03	2.175551E-04
3.034101E+03	1.377008E-03	2.198479E-04
3.044049E+03	1.391539E-03	2.221661E-04
3.053997E+03	1.406080E-03	2.244858E-04
3.063945E+03	1.420625E-03	2.268060E-04
3.073893E+03	1.435308E-03	2.291484E-04
3.083841E+03	1.450126E-03	2.315121E-04
3.093789E+03	1.464924E-03	2.338726E-04
3.103736E+03	1.479841E-03	2.362521E-04
3.113684E+03	1.494724E-03	2.386261E-04
3.123632E+03	1.509710E-03	2.410165E-04
3.133580E+03	1.524791E-03	2.434221E-04
3.143528E+03	1.539814E-03	2.458183E-04
3.153476E+03	1.555062E-03	2.482504E-04
3.163424E+03	1.570235E-03	2.506704E-04
3.173372E+03	1.585323E-03	2.530770E-04
3.183319E+03	1.600611E-03	2.555154E-04
3.193267E+03	1.615798E-03	2.579375E-04
3.203215E+03	1.631166E-03	2.603885E-04
3.213163E+03	1.646415E-03	2.628203E-04
3.223111E+03	1.661825E-03	2.652781E-04
3.233059E+03	1.677098E-03	2.677137E-04
3.243007E+03	1.692514E-03	2.701721E-04
3.252955E+03	1.707772E-03	2.726053E-04
3.262902E+03	1.723154E-03	2.750582E-04
3.272850E+03	1.738504E-03	2.775060E-04
3.282798E+03	1.753812E-03	2.799470E-04
3.292746E+03	1.769068E-03	2.823796E-04
3.302694E+03	1.784406E-03	2.848253E-04
3.312642E+03	1.799671E-03	2.872593E-04
3.322590E+03	1.814997E-03	2.897029E-04
3.332538E+03	1.830228E-03	2.921314E-04
3.342485E+03	1.845355E-03	2.945432E-04
3.352433E+03	1.860510E-03	2.969595E-04
3.362381E+03	1.875539E-03	2.993555E-04
3.372329E+03	1.890574E-03	3.017525E-04
3.382277E+03	1.905604E-03	3.041486E-04
3.392225E+03	1.920617E-03	3.065418E-04
3.402173E+03	1.935460E-03	3.089080E-04
3.412120E+03	1.950264E-03	3.112679E-04
3.422068E+03	1.965017E-03	3.136195E-04
3.432016E+03	1.979708E-03	3.159612E-04
3.441964E+03	1.994186E-03	3.182690E-04
3.451912E+03	2.008719E-03	3.205853E-04
3.461860E+03	2.023155E-03	3.228863E-04
3.471808E+03	2.037483E-03	3.251699E-04
3.481756E+03	2.051694E-03	3.274346E-04
3.491703E+03	2.065774E-03	3.296786E-04
3.501651E+03	2.079714E-03	3.319001E-04
3.511599E+03	2.093637E-03	3.341189E-04
3.521547E+03	2.107398E-03	3.363116E-04
3.531495E+03	2.121117E-03	3.384978E-04
3.541443E+03	2.134652E-03	3.406544E-04
3.551391E+03	2.147993E-03	3.427800E-04
3.561339E+03	2.161260E-03	3.448938E-04
3.571286E+03	2.174441E-03	3.469938E-04
3.581234E+03	2.187396E-03	3.490577E-04
3.591182E+03	2.200244E-03	3.511046E-04
3.601130E+03	2.212975E-03	3.531325E-04
3.611078E+03	2.225576E-03	3.551399E-04
3.621026E+03	2.238039E-03	3.571250E-04
3.630974E+03	2.250227E-03	3.590664E-04
3.640922E+03	2.262381E-03	3.610021E-04
3.650869E+03	2.274244E-03	3.628914E-04
3.660817E+03	2.286051E-03	3.647717E-04
3.670765E+03	2.297671E-03	3.666222E-04
3.680713E+03	2.309095E-03	3.684412E-04
3.690661E+03	2.320314E-03	3.702276E-04
3.700609E+03	2.331438E-03	3.719988E-04
3.710557E+03	2.342341E-03	3.737346E-04
3.720505E+03	2.353014E-03	3.754339E-04
3.730452E+03	2.363567E-03	3.771137E-04
3.740400E+03	2.373876E-03	3.787546E-04
3.750348E+03	2.383934E-03	3.803556E-04
3.760296E+03	2.393961E-03	3.819514E-04
3.770244E+03	2.403723E-03	3.835049E-04
3.780192E+03	2.413215E-03	3.850155E-04
3.790140E+03	2.422543E-03	3.864997E-04
3.800088E+03	2.431699E-03	3.879565E-04
3.810035E+03	2.440677E-03	3.893847E-04
3.819983E+03	2.449366E-03	3.907669E-04
3.829931E+03	2.457866E-03	3.921189E-04
3.839879E+03	2.466174E-03	3.934402E-04
3.849827E+03	2.474284E-03	3.947300E-04
3.859775E+03	2.482092E-03	3.959714E-04
3.869723E+03	2.489697E-03	3.971804E-04
3.879671E+03	2.497193E-03	3.983721E-04
3.889618E+03	2.504380E-03	3.995144E-04
3.899566E+03	2.511354E-03	4.006228E-04
3.909514E+03	2.518115E-03	4.016970E-04
3.919462E+03	2.524565E-03	4.027217E-04
3.929410E+03	2.530893E-03	4.037270E-04
3.939358E+03	2.536912E-03	4.046827E-04
3.949306E+03	2.542714E-03	4.056040E-04
3.959254E+03	2.548300E-03	4.064907E-04
3.969201E+03	2.553670E-03	4.073430E-04
3.979149E+03	2.558738E-03	4.081470E-04
3.989097E+03	2.563593E-03	4.089171E-04
3.999045E+03	2.568239E-03	4.096537E-04
4.008993E+03	2.572591E-03	4.103435E-04
4.018941E+03	2.576654E-03	4.109873E-04
4.028889E+03	2.580519E-03	4.115994E-04
4.038836E+03	2.584187E-03	4.121800E-04
4.048784E+03	2.587499E-03	4.127038E-04
4.058732E+03	2.590625E-03	4.131980E-04
4.068680E+03	2.593490E-03	4.136505E-04
4.078628E+03	2.596100E-03	4.140623E-04
4.088576E+03	2.598385E-03	4.144223E-04
4.098524E+03	2.600432E-03	4.147444E-04
4.108472E+03	2.602249E-03	4.150296E-04
4.118419E+03	2.603842E-03	4.152792E-04
4.128367E+03	2.605072E-03	4.154709E-04
4.138315E+03	2.606099E-03	4.156303E-04
4.148263E+03	2.606859E-03	4.157469E-04
4.158211E+03	2.607362E-03	4.158227E-04
4.168159E+03	2.607550E-03	4.158482E-04
4.178107E+03	2.607505E-03	4.158365E-04
4.188055E+03	2.607170E-03	4.157785E-04
4.198002E+03	2.606558E-03	4.156765E-04
4.207950E+03	2.605750E-03	4.155431E-04
4.217898E+03	2.604559E-03	4.153487E-04
4.227846E+03	2.603198E-03	4.151272E-04
4.237794E+03	2.601486E-03	4.148497E-04
4.247742E+03	2.599568E-03	4.145393E-04
4.257690E+03	2.597330E-03	4.141781E-04
4.267638E+03	2.594854E-03	4.137787E-04
4.277585E+03	2.592153E-03	4.133436E-04
4.287533E+03	2.589123E-03	4.128558E-04
4.297481E+03	2.585841E-03	4.123281E-04
4.307429E+03	2.582324E-03	4.117629E-04
4.317377E+03	2.578531E-03	4.111536E-04
4.327325E+03	2.574537E-03	4.105123E-04
4.337273E+03	2.570244E-03	4.098235E-04
4.347221E+03	2.565729E-03	4.090992E-04
4.357168E+03	2.560952E-03	4.083331E-04
4.367116E+03	2.555934E-03	4.075286E-04
4.377064E+03	2.550746E-03	4.066970E-04
4.387012E+03	2.545243E-03	4.058153E-04
4.396960E+03	2.539607E-03	4.049124E-04
4.406908E+03	2.533696E-03	4.039655E-04
4.416856E+03	2.527581E-03	4.029864E-04
4.426804E+03	2.521281E-03	4.019777E-04
4.436751E+03	2.514814E-03	4.009423E-04
4.446699E+03	2.508148E-03	3.998752E-04
4.456647E+03	2.501250E-03	3.987713E-04
4.466595E+03	2.494240E-03	3.976495E-04
4.476543E+03	2.487083E-03	3.965043E-04
4.486491E+03	2.479703E-03	3.953236E-04
4.496439E+03	2.472260E-03	3.941328E-04
4.506387E+03	2.464629E-03	3.929121E-04
4.516334E+03	2.456874E-03	3.916718E-04
4.526282E+03	2.449013E-03	3.904145E-04
4.536230E+03	2.441062E-03	3.891428E-04
4.546178E+03	2.433035E-03	3.878592E-04
4.556126E+03	2.424904E-03	3.865590E-04
4.566074E+03	2.416685E-03	3.852448E-04
4.576022E+03	2.408394E-03	3.839191E-04
4.585970E+03	2.400087E-03	3.825911E-04
4.595917E+03	2.391695E-03	3.812493E-04
4.605865E+03	2.383314E-03	3.799096E-04
4.615813E+03	2.374917E-03	3.785672E-04
4.625761E+03	2.366475E-03	3.772177E-04
4.635709E+03	2.358043E-03	3.758697E-04
4.645657E+03	2.349630E-03	3.745250E-04
4.655605E+03	2.341251E-03	3.731855E-04
4.665553E+03	2.332874E-03	3.718466E-04
4.675500E+03	2.324552E-03	3.705163E-04
4.685448E+03	2.316293E-03	3.691962E-04
4.695396E+03	2.308105E-03	3.678876E-04
4.705344E+03	2.299960E-03	3.665858E-04
4.715292E+03	2.291942E-03	3.653042E-04
4.725240E+03	2.283981E-03	3.640318E-04
4.735188E+03	2.276122E-03	3.627756E-04
4.745135E+03	2.268371E-03	3.615366E-04
4.755083E+03	2.260694E-03	3.603096E-04
4.765031E+03	2.253170E-03	3.591070E-04
4.774979E+03	2.245764E-03	3.579232E-04
4.784927E+03	2.238479E-03	3.567587E-04
4.794875E+03	2.231351E-03	3.556193E-04
4.804823E+03	2.224344E-03	3.544993E-04
4.814771E+03	2.217459E-03	3.533987E-04
4.824718E+03	2.210729E-03	3.523228E-04
4.834666E+03	2.204152E-03	3.512713E-04
4.844614E+03	2.197689E-03	3.502382E-04
4.854562E+03	2.191373E-03	3.492283E-04
4.864510E+03	2.185199E-03	3.482413E-04
4.874458E+03	2.179197E-03	3.472815E-04
4.884406E+03	2.173293E-03	3.463376E-04
4.894354E+03	2.167551E-03	3.454194E-04
4.904301E+03	2.161964E-03	3.445260E-04
4.914249E+03	2.156494E-03	3.436511E-04
4.924197E+03	2.151134E-03	3.427939E-04
4.934145E+03	2.145944E-03	3.419639E-04
4.944093E+03	2.140853E-03	3.411495E-04
4.954041E+03	2.135886E-03	3.403551E-04
4.963989E+03	2.131070E-03	3.395847E-04
4.973937E+03	2.126366E-03	3.388321E-04
4.983884E+03	2.121766E-03	3.380963E-04
4.993832E+03	2.117298E-03	3.373813E-04
5.003780E+03	2.112921E-03	3.366810E-04
5.013728E+03	2.108662E-03	3.359995E-04
5.023676E+03	2.104482E-03	3.353307E-04
5.033624E+03	2.100439E-03	3.346835E-04
5.043572E+03	2.096462E-03	3.340470E-04
5.053520E+03	2.092576E-03	3.334252E-04
5.063467E+03	2.088777E-03	3.328170E-04
5.073415E+03	2.085087E-03	3.322264E-04
5.083363E+03	2.081440E-03	3.316425E-04
5.093311E+03	2.077890E-03	3.310743E-04
5.103259E+03	2.074372E-03	3.305110E-04
5.113207E+03	2.070970E-03	3.299662E-04
5.123155E+03	2.067587E-03	3.294246E-04
5.133103E+03	2.064278E-03	3.288948E-04
5.143050E+03	2.061008E-03	3.283713E-04
5.152998E+03	2.057772E-03	3.278530E-04
5.162946E+03	2.054593E-03	3.273440E-04
5.172894E+03	2.051437E-03	3.268386E-04
5.182842E+03	2.048298E-03	3.263360E-04
5.192790E+03	2.045173E-03	3.258356E-04
5.202738E+03	2.042084E-03	3.253410E-04
5.212686E+03	2.039029E-03	3.248518E-04
5.222633E+03	2.035942E-03	3.243576E-04
5.232581E+03	2.032879E-03	3.238672E-04
5.242529E+03	2.029776E-03	3.233704E-04
5.252477E+03	2.026688E-03	3.228760E-04
5.262425E+03	2.023581E-03	3.223787E-04
5.272373E+03	2.020451E-03	3.218777E-04
5.282321E+03	2.017294E-03	3.213725E-04
5.292269E+03	2.014107E-03	3.208624E-04
5.302216E+03	2.010886E-03	3.203469E-04
5.312164E+03	2.007598E-03	3.198208E-04
5.322112E+03	2.004297E-03	3.192929E-04
5.332060E+03	2.000923E-03	3.187532E-04
5.342008E+03	1.997502E-03	3.182059E-04
5.351956E+03	1.994001E-03	3.176460E-04
5.361904E+03	1.990475E-03	3.170822E-04
5.371851E+03	1.986836E-03	3.165003E-04
5.381799E+03	1.983165E-03	3.159134E-04
5.391747E+03	1.979376E-03	3.153077E-04
5.401695E+03	1.975550E-03	3.146963E-04
5.411643E+03	1.971630E-03	3.140697E-04
5.421591E+03	1.967611E-03	3.134276E-04
5.431539E+03	1.963522E-03	3.127741E-04
5.441487E+03	1.959331E-03	3.121045E-04
5.451434E+03	1.955064E-03	3.114230E-04
5.461382E+03	1.950720E-03	3.107290E-04
5.471330E+03	1.946268E-03	3.100180E-04
5.481278E+03	1.941708E-03	3.092897E-04
5.491226E+03	1.937093E-03	3.085527E-04
5.501174E+03	1.932366E-03	3.077980E-04
5.511122E+03	1.927526E-03	3.070252E-04
5.521070E+03	1.922626E-03	3.062429E-04
5.531017E+03	1.917610E-03	3.054423E-04
5.540965E+03	1.912532E-03	3.046317E-04
5.550913E+03	1.907337E-03	3.038025E-04
5.560861E+03	1.902076E-03	3.029629E-04
5.570809E+03	1.896724E-03	3.021086E-04
5.580757E+03	1.891277E-03	3.012394E-04
5.590705E+03	1.885763E-03	3.003595E-04
5.600653E+03	1.880153E-03	2.994645E-04
5.610600E+03	1.874448E-03	2.985542E-04
5.620548E+03	1.868699E-03	2.976371E-04
5.630496E+03	1.862854E-03	2.967045E-04
5.640444E+03	1.856937E-03	2.957606E-04
5.650392E+03	1.850948E-03	2.948053E-04
5.660340E+03	1.844913E-03	2.938428E-04
5.670288E+03	1.838780E-03	2.928645E-04
5.680236E+03	1.832600E-03	2.918787E-04
5.690183E+03	1.826346E-03	2.908814E-04
5.700131E+03	1.820045E-03	2.898765E-04
5.710079E+03	1.813669E-03	2.888598E-04
5.720027E+03	1.807245E-03	2.878354E-04
5.729975E+03	1.800773E-03	2.868034E-04
5.739923E+03	1.794227E-03	2.857596E-04
5.749871E+03	1.787631E-03	2.847079E-04
5.759819E+03	1.781012E-03	2.836526E-04
5.769766E+03	1.774318E-03	2.825855E-04
5.779714E+03	1.767576E-03	2.815105E-04
5.789662E+03	1.760809E-03	2.804318E-04
5.799610E+03	1.753968E-03	2.793413E-04
5.809558E+03	1.747103E-03	2.782469E-04
5.819506E+03	1.740189E-03	2.771449E-04
5.829454E+03	1.733227E-03	2.760351E-04
5.839402E+03	1.726240E-03	2.749215E-04
5.849349E+03	1.719181E-03	2.737963E-04
5.859297E+03	1.712098E-03	2.726675E-04
5.869245E+03	1.704992E-03	2.715350E-04
5.879193E+03	1.697813E-03	2.703910E-04
5.889141E+03	1.690612E-03	2.692434E-04
5.899089E+03	1.683365E-03	2.680885E-04
5.909037E+03	1.676096E-03	2.669302E-04
5.918985E+03	1.668756E-03	2.657607E-04
5.928932E+03	1.661396E-03	2.645879E-04
5.938880E+03	1.653991E-03	2.634081E-04
5.948828E+03	1.646542E-03	2.622212E-04
5.958776E+03	1.639051E-03	2.610276E-04
5.968724E+03	1.631541E-03	2.598311E-04
5.978672E+03	1.623965E-03	2.586242E-04
5.988620E+03	1.616373E-03	2.574146E-04
5.998568E+03	1.608717E-03	2.561950E-04
6.008515E+03	1.601046E-03	2.549730E-04
6.018463E+03	1.593313E-03	2.537413E-04
6.028411E+03	1.585544E-03	2.525037E-04
6.038359E+03	1.577763E-03	2.512643E-04
6.048307E+03	1.569924E-03	2.500157E-04
6.058255E+03	1.562030E-03	2.487583E-04
6.068203E+03	1.554127E-03	2.474995E-04
6.078150E+03	1.546170E-03	2.462323E-04
6.088098E+03	1.538162E-03	2.449569E-04
6.098046E+03	1.530150E-03	2.436809E-04
6.107994E+03	1.522089E-03	2.423971E-04
6.117942E+03	1.513982E-03	2.411061E-04
6.127890E+03	1.505853E-03	2.398115E-04
6.137838E+03	1.497703E-03	2.385137E-04
6.147786E+03	1.489513E-03	2.372095E-04
6.157733E+03	1.481284E-03	2.358991E-04
6.167681E+03	1.473040E-03	2.345864E-04
6.177629E+03	1.464762E-03	2.332683E-04
6.187577E+03	1.456473E-03	2.319485E-04
6.197525E+03	1.448154E-03	2.306240E-04
6.207473E+03	1.439808E-03	2.292950E-04
6.217421E+03	1.431457E-03	2.279656E-04
6.227369E+03	1.423084E-03	2.266325E-04
6.237316E+03	1.414712E-03	2.252995E-04
6.247264E+03	1.406321E-03	2.239637E-04
6.257212E+03	1.397915E-03	2.226254E-04
6.267160E+03	1.389517E-03	2.212885E-04
6.277108E+03	1.381130E-03	2.199533E-04
6.287056E+03	1.372713E-03	2.186135E-04
6.297004E+03	1.364333E-03	2.172795E-04
6.306952E+03	1.355950E-03	2.159450E-04
6.316899E+03	1.347566E-03	2.146104E-04
6.326847E+03	1.339204E-03	2.132795E-04
6.336795E+03	1.330867E-03	2.119525E-04
6.346743E+03	1.322537E-03	2.106265E-04
6.356691E+03	1.314234E-03	2.093050E-04
6.366639E+03	1.305962E-03	2.079884E-04
6.376587E+03	1.297722E-03	2.066770E-04
6.386535E+03	1.289496E-03	2.053677E-04
6.396482E+03	1.281325E-03	2.040672E-04
6.406430E+03	1.273170E-03	2.027693E-04
6.416378E+03	1.265071E-03	2.014804E-04
6.426326E+03	1.257010E-03	2.001976E-04
6.436274E+03	1.248988E-03	1.989209E-04
6.446222E+03	1.241004E-03	1.976502E-04
6.456170E+03	1.233078E-03	1.963889E-04
6.466118E+03	1.225191E-03	1.951338E-04
6.476065E+03	1.217343E-03	1.938849E-04
6.486013E+03	1.209572E-03	1.926484E-04
6.495961E+03	1.201840E-03	1.914180E-04
6.505909E+03	1.194146E-03	1.901936E-04
6.515857E+03	1.186528E-03	1.889815E-04
6.525805E+03	1.178948E-03	1.877753E-04
6.535753E+03	1.171444E-03	1.865811E-04
6.545701E+03	1.163976E-03	1.853929E-04
6.555648E+03	1.156583E-03	1.842166E-04
6.565596E+03	1.149246E-03	1.830491E-04
6.575544E+03	1.141982E-03	1.818934E-04
6.585492E+03	1.134773E-03	1.807463E-04
6.595440E+03	1.127637E-03	1.796110E-04
6.605388E+03	1.120555E-03	1.784842E-04
6.615336E+03	1.113547E-03	1.773691E-04
6.625284E+03	1.106610E-03	1.762655E-04
6.635231E+03	1.099746E-03	1.751735E-04
6.645179E+03	1.092954E-03	1.740929E-04
6.655127E+03	1.086216E-03	1.730209E-04
6.665075E+03	1.079586E-03	1.719662E-04
6.675023E+03	1.073010E-03	1.709200E-04
6.684971E+03	1.066524E-03	1.698881E-04
6.694919E+03	1.060109E-03	1.688677E-04
6.704866E+03	1.053785E-03	1.678616E-04
6.714814E+03	1.047532E-03	1.668670E-04
6.724762E+03	1.041369E-03	1.658866E-04
6.734710E+03	1.035296E-03	1.649205E-04
6.744658E+03	1.029295E-03	1.639659E-04
6.754606E+03	1.023401E-03	1.630283E-04
6.764554E+03	1.017579E-03	1.621023E-04
6.774502E+03	1.011848E-03	1.611907E-04
6.784449E+03	1.006206E-03	1.602933E-04
6.794397E+03	1.000654E-03	1.594102E-04
6.804345E+03	9.951919E-04	1.585415E-04
6.814293E+03	9.898371E-04	1.576899E-04
6.824241E+03	9.845555E-04	1.568499E-04
6.834189E+03	9.793813E-04	1.560270E-04
6.844137E+03	9.742974E-04	1.552185E-04
6.854085E+03	9.693038E-04	1.544244E-04
6.864032E+03	9.644005E-04	1.536446E-04
6.873980E+03	9.596050E-04	1.528820E-04
6.883928E+03	9.548998E-04	1.521339E-04
6.893876E+03	9.502857E-04	1.514002E-04
6.903824E+03	9.457623E-04	1.506809E-04
6.913772E+03	9.413466E-04	1.499789E-04
6.923720E+03	9.370217E-04	1.492913E-04
6.933668E+03	9.327882E-04	1.486182E-04
6.943615E+03	9.286626E-04	1.479623E-04
6.953563E+03	9.246120E-04	1.473184E-04
6.963511E+03	9.206689E-04	1.466916E-04
6.973459E+03	9.168180E-04	1.460795E-04
6.983407E+03	9.130585E-04	1.454819E-04
6.993355E+03	9.093909E-04	1.448990E-04
7.003303E+03	9.058155E-04	1.443308E-04
7.013251E+03	9.023483E-04	1.437798E-04
7.023198E+03	8.989574E-04	1.432410E-04
7.033146E+03	8.956591E-04	1.427169E-04
7.043094E+03	8.924378E-04	1.422051E-04
7.053042E+03	8.893247E-04	1.417105E-04
7.062990E+03	8.862894E-04	1.412283E-04
7.072938E+03	8.833471E-04	1.407609E-04
7.082886E+03	8.804978E-04	1.403083E-04
7.092834E+03	8.777267E-04	1.398682E-04
7.102781E+03	8.750341E-04	1.394406E-04
7.112729E+03	8.724353E-04	1.390280E-04
7.122677E+03	8.698994E-04	1.386253E-04
7.132625E+03	8.674741E-04	1.382403E-04
7.142573E+03	8.651120E-04	1.378654E-04
7.152521E+03	8.628297E-04	1.375031E-04
7.162469E+03	8.606275E-04	1.371537E-04
7.172417E+03	8.585054E-04	1.368169E-04
7.182364E+03	8.564485E-04	1.364906E-04
7.192312E+03	8.544877E-04	1.361796E-04
7.202260E+03	8.525777E-04	1.358767E-04
7.212208E+03	8.507493E-04	1.355868E-04
7.222156E+03	8.490025E-04	1.353099E-04
7.232104E+03	8.473229E-04	1.350437E-04
7.242052E+03	8.456960E-04	1.347859E-04
7.252000E+03	8.441519E-04	1.345412E-04
7.261947E+03	8.426761E-04	1.343075E-04
7.271895E+03	8.412689E-04	1.340847E-04
7.281843E+03	8.399309E-04	1.338729E-04
7.291791E+03	8.386478E-04	1.336699E-04
7.301739E+03	8.374346E-04	1.334780E-04
7.311687E+03	8.362920E-04	1.332974E-04
7.321635E+03	8.352051E-04	1.331257E-04
7.331583E+03	8.341748E-04	1.329629E-04
7.341530E+03	8.332167E-04	1.328117E-04
7.351478E+03	8.323158E-04	1.326696E-04
7.361426E+03	8.314725E-04	1.325366E-04
7.371374E+03	8.307030E-04	1.324154E-04
7.381322E+03	8.299922E-04	1.323036E-04
7.391270E+03	8.293262E-04	1.321990E-04
7.401218E+03	8.287346E-04	1.321061E-04
7.411165E+03	8.282037E-04	1.320230E-04
7.421113E+03	8.277190E-04	1.319472E-04
7.431061E+03	8.273103E-04	1.318836E-04
7.441009E+03	8.269642E-04	1.318299E-04
7.450957E+03	8.266652E-04	1.317837E-04
7.460905E+03	8.264295E-04	1.317476E-04
7.470853E+03	8.262575E-04	1.317217E-04
7.480801E+03	8.261493E-04	1.317059E-04
7.490748E+03	8.261060E-04	1.317005E-04
7.500696E+03	8.261284E-04	1.317056E-04
7.510644E+03	8.262012E-04	1.317187E-04
7.520592E+03	8.263404E-04	1.317424E-04
7.530540E+03	8.265464E-04	1.317767E-04
7.540488E+03	8.268203E-04	1.318219E-04
7.550436E+03	8.271469E-04	1.318754E-04
7.560384E+03	8.275574E-04	1.319424E-04
7.570331E+03	8.280218E-04	1.320179E-04
7.580279E+03	8.285564E-04	1.321046E-04
7.590227E+03	8.291612E-04	1.322025E-04
7.600175E+03	8.298221E-04	1.323094E-04
7.610123E+03	8.305696E-04	1.324301E-04
7.620071E+03	8.313739E-04	1.325598E-04
7.630019E+03	8.322515E-04	1.327013E-04
7.639967E+03	8.332019E-04	1.328543E-04
7.649914E+03	8.342271E-04	1.330193E-04
7.659862E+03	8.353110E-04	1.331936E-04
7.669810E+03	8.364857E-04	1.333824E-04
7.679758E+03	8.377207E-04	1.335808E-04
7.689706E+03	8.390323E-04	1.337915E-04
7.699654E+03	8.404054E-04	1.340119E-04
7.709602E+03	8.418714E-04	1.342472E-04
7.719550E+03	8.434004E-04	1.344926E-04
