#wls	flux	fluxerr
1.591660E+03	2.896571E-04	2.860667E-05
1.631451E+03	2.992792E-04	2.955600E-05
1.671243E+03	3.094608E-04	3.056048E-05
1.711034E+03	3.201184E-04	3.161188E-05
1.750826E+03	3.313845E-04	3.272328E-05
1.790617E+03	3.432288E-04	3.389165E-05
1.830409E+03	3.556744E-04	3.511929E-05
1.870200E+03	3.688069E-04	3.641463E-05
1.909992E+03	3.825902E-04	3.777408E-05
1.949783E+03	3.971789E-04	3.921293E-05
1.989575E+03	4.124691E-04	4.072087E-05
2.029366E+03	4.286213E-04	4.231375E-05
2.069158E+03	4.455932E-04	4.398738E-05
2.108949E+03	4.634818E-04	4.575131E-05
2.148741E+03	4.823128E-04	4.760806E-05
2.188532E+03	5.021087E-04	4.955984E-05
2.228324E+03	5.228884E-04	5.160849E-05
2.268115E+03	5.448351E-04	5.377209E-05
2.307907E+03	5.677973E-04	5.603563E-05
2.347698E+03	5.919560E-04	5.841697E-05
2.387490E+03	6.172277E-04	6.090785E-05
2.427281E+03	6.437944E-04	6.352620E-05
2.467073E+03	6.715556E-04	6.626207E-05
2.506864E+03	7.005900E-04	6.912320E-05
2.546656E+03	7.309733E-04	7.211701E-05
2.586447E+03	7.625652E-04	7.522967E-05
2.626239E+03	7.955233E-04	7.847666E-05
2.666030E+03	8.297865E-04	8.185192E-05
2.705821E+03	8.653868E-04	8.535860E-05
2.745613E+03	9.022287E-04	8.898722E-05
2.785404E+03	9.404301E-04	9.274937E-05
2.825196E+03	9.796204E-04	9.660849E-05
2.864987E+03	1.020120E-03	1.005961E-04
2.904779E+03	1.061635E-03	1.046832E-04
2.944570E+03	1.104085E-03	1.088619E-04
2.984362E+03	1.147497E-03	1.131348E-04
2.994310E+03	1.158536E-03	1.142212E-04
3.004258E+03	1.169488E-03	1.152990E-04
3.014206E+03	1.180605E-03	1.163930E-04
3.024153E+03	1.191625E-03	1.174775E-04
3.034101E+03	1.202802E-03	1.185773E-04
3.044049E+03	1.214002E-03	1.196794E-04
3.053997E+03	1.225221E-03	1.207833E-04
3.063945E+03	1.236453E-03	1.218885E-04
3.073893E+03	1.247695E-03	1.229945E-04
3.083841E+03	1.259070E-03	1.241137E-04
3.093789E+03	1.270316E-03	1.252201E-04
3.103736E+03	1.281685E-03	1.263386E-04
3.113684E+03	1.293174E-03	1.274688E-04
3.123632E+03	1.304517E-03	1.285846E-04
3.133580E+03	1.315969E-03	1.297111E-04
3.143528E+03	1.327394E-03	1.308349E-04
3.153476E+03	1.338788E-03	1.319555E-04
3.163424E+03	1.350273E-03	1.330852E-04
3.173372E+03	1.361716E-03	1.342106E-04
3.183319E+03	1.373111E-03	1.353311E-04
3.193267E+03	1.384581E-03	1.364591E-04
3.203215E+03	1.395991E-03	1.375811E-04
3.213163E+03	1.407465E-03	1.387094E-04
3.223111E+03	1.418868E-03	1.398306E-04
3.233059E+03	1.430323E-03	1.409568E-04
3.243007E+03	1.441693E-03	1.420748E-04
3.252955E+03	1.453105E-03	1.431967E-04
3.262902E+03	1.464551E-03	1.443219E-04
3.272850E+03	1.475894E-03	1.454370E-04
3.282798E+03	1.487130E-03	1.465414E-04
3.292746E+03	1.498511E-03	1.476600E-04
3.302694E+03	1.509641E-03	1.487540E-04
3.312642E+03	1.520904E-03	1.498610E-04
3.322590E+03	1.532035E-03	1.509548E-04
3.332538E+03	1.543284E-03	1.520602E-04
3.342485E+03	1.554259E-03	1.531387E-04
3.352433E+03	1.565340E-03	1.542275E-04
3.362381E+03	1.576391E-03	1.553133E-04
3.372329E+03	1.587279E-03	1.563829E-04
3.382277E+03	1.598124E-03	1.574484E-04
3.392225E+03	1.608921E-03	1.585090E-04
3.402173E+03	1.619663E-03	1.595641E-04
3.412120E+03	1.630343E-03	1.606132E-04
3.422068E+03	1.640956E-03	1.616554E-04
3.432016E+03	1.651494E-03	1.626903E-04
3.441964E+03	1.661951E-03	1.637172E-04
3.451912E+03	1.672322E-03	1.647355E-04
3.461860E+03	1.682723E-03	1.657568E-04
3.471808E+03	1.692901E-03	1.667561E-04
3.481756E+03	1.702975E-03	1.677449E-04
3.491703E+03	1.713059E-03	1.687348E-04
3.501651E+03	1.723026E-03	1.697131E-04
3.511599E+03	1.732870E-03	1.706792E-04
3.521547E+03	1.742584E-03	1.716325E-04
3.531495E+03	1.752164E-03	1.725726E-04
3.541443E+03	1.761725E-03	1.735106E-04
3.551391E+03	1.771139E-03	1.744342E-04
3.561339E+03	1.780521E-03	1.753546E-04
3.571286E+03	1.789746E-03	1.762595E-04
3.581234E+03	1.798809E-03	1.771484E-04
3.591182E+03	1.807823E-03	1.780323E-04
3.601130E+03	1.816665E-03	1.788993E-04
3.611078E+03	1.825331E-03	1.797489E-04
3.621026E+03	1.833931E-03	1.805920E-04
3.630974E+03	1.842460E-03	1.814281E-04
3.640922E+03	1.850799E-03	1.822454E-04
3.650869E+03	1.859057E-03	1.830547E-04
3.660817E+03	1.867117E-03	1.838444E-04
3.670765E+03	1.874976E-03	1.846143E-04
3.680713E+03	1.882852E-03	1.853858E-04
3.690661E+03	1.890518E-03	1.861366E-04
3.700609E+03	1.898081E-03	1.868772E-04
3.710557E+03	1.905429E-03	1.875967E-04
3.720505E+03	1.912667E-03	1.883052E-04
3.730452E+03	1.919792E-03	1.890025E-04
3.740400E+03	1.926692E-03	1.896778E-04
3.750348E+03	1.933473E-03	1.903413E-04
3.760296E+03	1.940132E-03	1.909926E-04
3.770244E+03	1.946561E-03	1.916213E-04
3.780192E+03	1.952965E-03	1.922476E-04
3.790140E+03	1.959136E-03	1.928508E-04
3.800088E+03	1.965074E-03	1.934311E-04
3.810035E+03	1.970979E-03	1.940081E-04
3.819983E+03	1.976648E-03	1.945618E-04
3.829931E+03	1.982181E-03	1.951020E-04
3.839879E+03	1.987574E-03	1.956286E-04
3.849827E+03	1.992733E-03	1.961320E-04
3.859775E+03	1.997752E-03	1.966216E-04
3.869723E+03	2.002631E-03	1.970974E-04
3.879671E+03	2.007369E-03	1.975594E-04
3.889618E+03	2.011874E-03	1.979983E-04
3.899566E+03	2.016239E-03	1.984235E-04
3.909514E+03	2.020465E-03	1.988349E-04
3.919462E+03	2.024461E-03	1.992236E-04
3.929410E+03	2.028320E-03	1.995989E-04
3.939358E+03	2.032042E-03	1.999607E-04
3.949306E+03	2.035541E-03	2.003005E-04
3.959254E+03	2.038820E-03	2.006186E-04
3.969201E+03	2.041968E-03	2.009239E-04
3.979149E+03	2.044987E-03	2.012164E-04
3.989097E+03	2.047796E-03	2.014882E-04
3.999045E+03	2.050396E-03	2.017395E-04
4.008993E+03	2.052877E-03	2.019789E-04
4.018941E+03	2.055157E-03	2.021987E-04
4.028889E+03	2.057241E-03	2.023991E-04
4.038836E+03	2.059215E-03	2.025887E-04
4.048784E+03	2.060922E-03	2.027521E-04
4.058732E+03	2.062527E-03	2.029053E-04
4.068680E+03	2.063956E-03	2.030412E-04
4.078628E+03	2.065135E-03	2.031526E-04
4.088576E+03	2.066226E-03	2.032552E-04
4.098524E+03	2.067080E-03	2.033346E-04
4.108472E+03	2.067780E-03	2.033988E-04
4.118419E+03	2.068332E-03	2.034484E-04
4.128367E+03	2.068668E-03	2.034768E-04
4.138315E+03	2.068869E-03	2.034920E-04
4.148263E+03	2.068869E-03	2.034873E-04
4.158211E+03	2.068747E-03	2.034706E-04
4.168159E+03	2.068438E-03	2.034355E-04
4.178107E+03	2.067951E-03	2.033830E-04
4.188055E+03	2.067225E-03	2.033069E-04
4.198002E+03	2.066406E-03	2.032217E-04
4.207950E+03	2.065433E-03	2.031213E-04
4.217898E+03	2.064248E-03	2.030001E-04
4.227846E+03	2.062992E-03	2.028719E-04
4.237794E+03	2.061475E-03	2.027181E-04
4.247742E+03	2.059839E-03	2.025525E-04
4.257690E+03	2.058091E-03	2.023760E-04
4.267638E+03	2.056113E-03	2.021768E-04
4.277585E+03	2.054041E-03	2.019684E-04
4.287533E+03	2.051760E-03	2.017395E-04
4.297481E+03	2.049403E-03	2.015031E-04
4.307429E+03	2.046856E-03	2.012480E-04
4.317377E+03	2.044190E-03	2.009813E-04
4.327325E+03	2.041356E-03	2.006981E-04
4.337273E+03	2.038422E-03	2.004051E-04
4.347221E+03	2.035340E-03	2.000975E-04
4.357168E+03	2.032178E-03	1.997819E-04
4.367116E+03	2.028828E-03	1.994481E-04
4.377064E+03	2.025361E-03	1.991027E-04
4.387012E+03	2.021786E-03	1.987467E-04
4.396960E+03	2.018112E-03	1.983811E-04
4.406908E+03	2.014295E-03	1.980013E-04
4.416856E+03	2.010399E-03	1.976138E-04
4.426804E+03	2.006433E-03	1.972195E-04
4.436751E+03	2.002301E-03	1.968089E-04
4.446699E+03	1.998118E-03	1.963933E-04
4.456647E+03	1.993842E-03	1.959686E-04
4.466595E+03	1.989482E-03	1.955357E-04
4.476543E+03	1.984997E-03	1.950904E-04
4.486491E+03	1.980498E-03	1.946438E-04
4.496439E+03	1.975892E-03	1.941868E-04
4.506387E+03	1.971241E-03	1.937253E-04
4.516334E+03	1.966501E-03	1.932552E-04
4.526282E+03	1.961732E-03	1.927823E-04
4.536230E+03	1.956895E-03	1.923026E-04
4.546178E+03	1.952044E-03	1.918216E-04
4.556126E+03	1.947141E-03	1.913356E-04
4.566074E+03	1.942147E-03	1.908406E-04
4.576022E+03	1.937163E-03	1.903467E-04
4.585970E+03	1.932152E-03	1.898501E-04
4.595917E+03	1.927120E-03	1.893515E-04
4.605865E+03	1.922074E-03	1.888515E-04
4.615813E+03	1.917021E-03	1.883510E-04
4.625761E+03	1.911968E-03	1.878504E-04
4.635709E+03	1.906878E-03	1.873462E-04
4.645657E+03	1.901800E-03	1.868432E-04
4.655605E+03	1.896740E-03	1.863421E-04
4.665553E+03	1.891662E-03	1.858392E-04
4.675500E+03	1.886612E-03	1.853392E-04
4.685448E+03	1.881597E-03	1.848426E-04
4.695396E+03	1.876621E-03	1.843498E-04
4.705344E+03	1.871646E-03	1.838572E-04
4.715292E+03	1.866676E-03	1.833651E-04
4.725240E+03	1.861799E-03	1.828822E-04
4.735188E+03	1.856894E-03	1.823965E-04
4.745135E+03	1.852087E-03	1.819205E-04
4.755083E+03	1.847299E-03	1.814465E-04
4.765031E+03	1.842534E-03	1.809747E-04
4.774979E+03	1.837834E-03	1.805094E-04
4.784927E+03	1.833200E-03	1.800506E-04
4.794875E+03	1.828595E-03	1.795946E-04
4.804823E+03	1.824059E-03	1.791455E-04
4.814771E+03	1.819593E-03	1.787033E-04
4.824718E+03	1.815158E-03	1.782641E-04
4.834666E+03	1.810794E-03	1.778320E-04
4.844614E+03	1.806501E-03	1.774068E-04
4.854562E+03	1.802239E-03	1.769847E-04
4.864510E+03	1.798085E-03	1.765733E-04
4.874458E+03	1.793961E-03	1.761649E-04
4.884406E+03	1.789869E-03	1.757596E-04
4.894354E+03	1.785880E-03	1.753645E-04
4.904301E+03	1.781957E-03	1.749759E-04
4.914249E+03	1.778061E-03	1.745900E-04
4.924197E+03	1.774228E-03	1.742102E-04
4.934145E+03	1.770490E-03	1.738399E-04
4.944093E+03	1.766775E-03	1.734718E-04
4.954041E+03	1.763152E-03	1.731128E-04
4.963989E+03	1.759547E-03	1.727556E-04
4.973937E+03	1.756029E-03	1.724070E-04
4.983884E+03	1.752561E-03	1.720633E-04
4.993832E+03	1.749139E-03	1.717241E-04
5.003780E+03	1.745761E-03	1.713893E-04
5.013728E+03	1.742424E-03	1.710586E-04
5.023676E+03	1.739161E-03	1.707351E-04
5.033624E+03	1.735933E-03	1.704152E-04
5.043572E+03	1.732773E-03	1.701019E-04
5.053520E+03	1.729609E-03	1.697882E-04
5.063467E+03	1.726541E-03	1.694840E-04
5.073415E+03	1.723462E-03	1.691787E-04
5.083363E+03	1.720439E-03	1.688790E-04
5.093311E+03	1.717469E-03	1.685844E-04
5.103259E+03	1.714514E-03	1.682914E-04
5.113207E+03	1.711571E-03	1.679996E-04
5.123155E+03	1.708671E-03	1.677122E-04
5.133103E+03	1.705812E-03	1.674286E-04
5.143050E+03	1.702957E-03	1.671455E-04
5.152998E+03	1.700102E-03	1.668625E-04
5.162946E+03	1.697312E-03	1.665858E-04
5.172894E+03	1.694484E-03	1.663054E-04
5.182842E+03	1.691714E-03	1.660308E-04
5.192790E+03	1.688933E-03	1.657552E-04
5.202738E+03	1.686172E-03	1.654814E-04
5.212686E+03	1.683396E-03	1.652062E-04
5.222633E+03	1.680632E-03	1.649324E-04
5.232581E+03	1.677880E-03	1.646596E-04
5.242529E+03	1.675105E-03	1.643846E-04
5.252477E+03	1.672367E-03	1.641132E-04
5.262425E+03	1.669567E-03	1.638360E-04
5.272373E+03	1.666801E-03	1.635619E-04
5.282321E+03	1.664000E-03	1.632845E-04
5.292269E+03	1.661195E-03	1.630067E-04
5.302216E+03	1.658351E-03	1.627251E-04
5.312164E+03	1.655529E-03	1.624458E-04
5.322112E+03	1.652665E-03	1.621622E-04
5.332060E+03	1.649755E-03	1.618742E-04
5.342008E+03	1.646859E-03	1.615877E-04
5.351956E+03	1.643914E-03	1.612963E-04
5.361904E+03	1.640949E-03	1.610030E-04
5.371851E+03	1.637961E-03	1.607075E-04
5.381799E+03	1.634917E-03	1.604065E-04
5.391747E+03	1.631878E-03	1.601060E-04
5.401695E+03	1.628779E-03	1.597997E-04
5.411643E+03	1.625650E-03	1.594904E-04
5.421591E+03	1.622457E-03	1.591749E-04
5.431539E+03	1.619261E-03	1.588592E-04
5.441487E+03	1.615999E-03	1.585370E-04
5.451434E+03	1.612699E-03	1.582111E-04
5.461382E+03	1.609361E-03	1.578814E-04
5.471330E+03	1.606012E-03	1.575508E-04
5.481278E+03	1.602560E-03	1.572101E-04
5.491226E+03	1.599095E-03	1.568681E-04
5.501174E+03	1.595585E-03	1.565218E-04
5.511122E+03	1.592029E-03	1.561709E-04
5.521070E+03	1.588425E-03	1.558154E-04
5.531017E+03	1.584772E-03	1.554551E-04
5.540965E+03	1.581069E-03	1.550899E-04
5.550913E+03	1.577314E-03	1.547197E-04
5.560861E+03	1.573537E-03	1.543473E-04
5.570809E+03	1.569676E-03	1.539667E-04
5.580757E+03	1.565790E-03	1.535838E-04
5.590705E+03	1.561849E-03	1.531954E-04
5.600653E+03	1.557880E-03	1.528044E-04
5.610600E+03	1.553825E-03	1.524049E-04
5.620548E+03	1.549740E-03	1.520025E-04
5.630496E+03	1.545625E-03	1.515973E-04
5.640444E+03	1.541451E-03	1.511862E-04
5.650392E+03	1.537215E-03	1.507691E-04
5.660340E+03	1.532947E-03	1.503489E-04
5.670288E+03	1.528617E-03	1.499227E-04
5.680236E+03	1.524253E-03	1.494931E-04
5.690183E+03	1.519853E-03	1.490602E-04
5.700131E+03	1.515390E-03	1.486210E-04
5.710079E+03	1.510892E-03	1.481783E-04
5.720027E+03	1.506327E-03	1.477293E-04
5.729975E+03	1.501755E-03	1.472795E-04
5.739923E+03	1.497116E-03	1.468232E-04
5.749871E+03	1.492439E-03	1.463632E-04
5.759819E+03	1.487696E-03	1.458967E-04
5.769766E+03	1.482941E-03	1.454292E-04
5.779714E+03	1.478147E-03	1.449579E-04
5.789662E+03	1.473285E-03	1.444799E-04
5.799610E+03	1.468412E-03	1.440008E-04
5.809558E+03	1.463470E-03	1.435151E-04
5.819506E+03	1.458487E-03	1.430253E-04
5.829454E+03	1.453491E-03	1.425343E-04
5.839402E+03	1.448426E-03	1.420366E-04
5.849349E+03	1.443347E-03	1.415376E-04
5.859297E+03	1.438227E-03	1.410346E-04
5.869245E+03	1.433038E-03	1.405248E-04
5.879193E+03	1.427834E-03	1.400136E-04
5.889141E+03	1.422588E-03	1.394983E-04
5.899089E+03	1.417300E-03	1.389790E-04
5.909037E+03	1.411970E-03	1.384556E-04
5.918985E+03	1.406625E-03	1.379307E-04
5.928932E+03	1.401211E-03	1.373991E-04
5.938880E+03	1.395781E-03	1.368660E-04
5.948828E+03	1.390310E-03	1.363289E-04
5.958776E+03	1.384797E-03	1.357877E-04
5.968724E+03	1.379269E-03	1.352451E-04
5.978672E+03	1.373672E-03	1.346957E-04
5.988620E+03	1.368060E-03	1.341450E-04
5.998568E+03	1.362408E-03	1.335902E-04
6.008515E+03	1.356740E-03	1.330340E-04
6.018463E+03	1.351004E-03	1.324713E-04
6.028411E+03	1.345255E-03	1.319072E-04
6.038359E+03	1.339465E-03	1.313391E-04
6.048307E+03	1.333635E-03	1.307672E-04
6.058255E+03	1.327791E-03	1.301939E-04
6.068203E+03	1.321882E-03	1.296143E-04
6.078150E+03	1.315959E-03	1.290335E-04
6.088098E+03	1.309998E-03	1.284488E-04
6.098046E+03	1.304025E-03	1.278630E-04
6.107994E+03	1.298014E-03	1.272736E-04
6.117942E+03	1.291965E-03	1.266804E-04
6.127890E+03	1.285879E-03	1.260838E-04
6.137838E+03	1.279758E-03	1.254836E-04
6.147786E+03	1.273626E-03	1.248825E-04
6.157733E+03	1.267459E-03	1.242779E-04
6.167681E+03	1.261284E-03	1.236725E-04
6.177629E+03	1.255048E-03	1.230614E-04
6.187577E+03	1.248805E-03	1.224494E-04
6.197525E+03	1.242555E-03	1.218368E-04
6.207473E+03	1.236247E-03	1.212187E-04
6.217421E+03	1.229934E-03	1.206000E-04
6.227369E+03	1.223590E-03	1.199784E-04
6.237316E+03	1.217242E-03	1.193563E-04
6.247264E+03	1.210865E-03	1.187315E-04
6.257212E+03	1.204460E-03	1.181040E-04
6.267160E+03	1.198053E-03	1.174763E-04
6.277108E+03	1.191620E-03	1.168461E-04
6.287056E+03	1.185186E-03	1.162158E-04
6.297004E+03	1.178727E-03	1.155832E-04
6.306952E+03	1.172270E-03	1.149507E-04
6.316899E+03	1.165790E-03	1.143161E-04
6.326847E+03	1.159290E-03	1.136794E-04
6.336795E+03	1.152793E-03	1.130432E-04
6.346743E+03	1.146301E-03	1.124074E-04
6.356691E+03	1.139791E-03	1.117699E-04
6.366639E+03	1.133288E-03	1.111331E-04
6.376587E+03	1.126769E-03	1.104948E-04
6.386535E+03	1.120282E-03	1.098596E-04
6.396482E+03	1.113759E-03	1.092209E-04
6.406430E+03	1.107270E-03	1.085856E-04
6.416378E+03	1.100769E-03	1.079492E-04
6.426326E+03	1.094282E-03	1.073141E-04
6.436274E+03	1.087809E-03	1.066804E-04
6.446222E+03	1.081351E-03	1.060482E-04
6.456170E+03	1.074910E-03	1.054177E-04
6.466118E+03	1.068463E-03	1.047866E-04
6.476065E+03	1.062057E-03	1.041596E-04
6.486013E+03	1.055649E-03	1.035324E-04
6.495961E+03	1.049261E-03	1.029072E-04
6.505909E+03	1.042918E-03	1.022863E-04
6.515857E+03	1.036596E-03	1.016676E-04
6.525805E+03	1.030278E-03	1.010492E-04
6.535753E+03	1.024006E-03	1.004354E-04
6.545701E+03	1.017760E-03	9.982415E-05
6.555648E+03	1.011541E-03	9.921559E-05
6.565596E+03	1.005372E-03	9.861193E-05
6.575544E+03	9.992328E-04	9.801114E-05
6.585492E+03	9.931237E-04	9.741335E-05
6.595440E+03	9.870668E-04	9.682067E-05
6.605388E+03	9.810426E-04	9.623122E-05
6.615336E+03	9.750513E-04	9.564499E-05
6.625284E+03	9.691156E-04	9.506424E-05
6.635231E+03	9.632146E-04	9.448688E-05
6.645179E+03	9.573712E-04	9.391518E-05
6.655127E+03	9.515849E-04	9.334908E-05
6.665075E+03	9.458364E-04	9.278669E-05
6.675023E+03	9.401468E-04	9.223008E-05
6.684971E+03	9.344972E-04	9.167740E-05
6.694919E+03	9.289080E-04	9.113063E-05
6.704866E+03	9.233799E-04	9.058988E-05
6.714814E+03	9.178937E-04	9.005322E-05
6.724762E+03	9.124899E-04	8.952465E-05
6.734710E+03	9.071298E-04	8.900036E-05
6.744658E+03	9.018331E-04	8.848230E-05
6.754606E+03	8.966004E-04	8.797051E-05
6.764554E+03	8.914131E-04	8.746318E-05
6.774502E+03	8.863110E-04	8.696419E-05
6.784449E+03	8.812547E-04	8.646971E-05
6.794397E+03	8.762651E-04	8.598177E-05
6.804345E+03	8.713422E-04	8.550036E-05
6.814293E+03	8.665058E-04	8.502743E-05
6.824241E+03	8.617176E-04	8.455923E-05
6.834189E+03	8.569973E-04	8.409770E-05
6.844137E+03	8.523456E-04	8.364288E-05
6.854085E+03	8.477623E-04	8.319478E-05
6.864032E+03	8.432483E-04	8.275347E-05
6.873980E+03	8.387849E-04	8.231712E-05
6.883928E+03	8.344097E-04	8.188942E-05
6.893876E+03	8.301048E-04	8.146862E-05
6.903824E+03	8.258698E-04	8.105466E-05
6.913772E+03	8.217050E-04	8.064760E-05
6.923720E+03	8.175929E-04	8.024570E-05
6.933668E+03	8.135701E-04	7.985256E-05
6.943615E+03	8.096184E-04	7.946639E-05
6.953563E+03	8.057200E-04	7.908544E-05
6.963511E+03	8.018931E-04	7.871151E-05
6.973459E+03	7.981564E-04	7.834642E-05
6.983407E+03	7.944733E-04	7.798659E-05
6.993355E+03	7.908627E-04	7.763388E-05
7.003303E+03	7.873238E-04	7.728819E-05
7.013251E+03	7.838404E-04	7.694793E-05
7.023198E+03	7.804470E-04	7.661651E-05
7.033146E+03	7.771086E-04	7.629049E-05
7.043094E+03	7.738433E-04	7.597162E-05
7.053042E+03	7.706509E-04	7.565992E-05
7.062990E+03	7.675144E-04	7.535369E-05
7.072938E+03	7.644513E-04	7.505467E-05
7.082886E+03	7.614618E-04	7.476286E-05
7.092834E+03	7.585281E-04	7.447652E-05
7.102781E+03	7.556687E-04	7.419748E-05
7.112729E+03	7.528657E-04	7.392396E-05
7.122677E+03	7.501366E-04	7.365769E-05
7.132625E+03	7.474818E-04	7.339872E-05
7.142573E+03	7.448672E-04	7.314368E-05
7.152521E+03	7.423269E-04	7.289594E-05
7.162469E+03	7.398610E-04	7.265549E-05
7.172417E+03	7.374527E-04	7.242070E-05
7.182364E+03	7.351026E-04	7.219161E-05
7.192312E+03	7.328102E-04	7.196818E-05
7.202260E+03	7.305930E-04	7.175213E-05
7.212208E+03	7.284173E-04	7.154015E-05
7.222156E+03	7.263173E-04	7.133560E-05
7.232104E+03	7.242754E-04	7.113676E-05
7.242052E+03	7.222930E-04	7.094375E-05
7.252000E+03	7.203692E-04	7.075649E-05
7.261947E+03	7.185049E-04	7.057507E-05
7.271895E+03	7.166834E-04	7.039784E-05
7.281843E+03	7.149381E-04	7.022810E-05
7.291791E+03	7.132526E-04	7.006423E-05
7.301739E+03	7.116105E-04	6.990461E-05
7.311687E+03	7.100287E-04	6.975091E-05
7.321635E+03	7.085069E-04	6.960310E-05
7.331583E+03	7.070296E-04	6.945967E-05
7.341530E+03	7.056290E-04	6.932375E-05
7.351478E+03	7.042735E-04	6.919226E-05
7.361426E+03	7.029620E-04	6.906511E-05
7.371374E+03	7.017119E-04	6.894397E-05
7.381322E+03	7.005235E-04	6.882889E-05
7.391270E+03	6.993806E-04	6.871828E-05
7.401218E+03	6.982990E-04	6.861368E-05
7.411165E+03	6.972634E-04	6.851360E-05
7.421113E+03	6.962737E-04	6.841803E-05
7.431061E+03	6.953467E-04	6.832861E-05
7.441009E+03	6.944818E-04	6.824530E-05
7.450957E+03	6.936476E-04	6.816500E-05
7.460905E+03	6.928759E-04	6.809084E-05
7.470853E+03	6.921679E-04	6.802293E-05
7.480801E+03	6.914904E-04	6.795802E-05
7.490748E+03	6.908765E-04	6.789936E-05
7.500696E+03	6.903099E-04	6.784534E-05
7.510644E+03	6.898077E-04	6.779765E-05
7.520592E+03	6.893533E-04	6.775465E-05
7.530540E+03	6.889304E-04	6.771475E-05
7.540488E+03	6.885719E-04	6.768119E-05
7.550436E+03	6.882783E-04	6.765399E-05
7.560384E+03	6.880167E-04	6.762994E-05
7.570331E+03	6.878042E-04	6.761071E-05
7.580279E+03	6.876565E-04	6.759786E-05
7.590227E+03	6.875580E-04	6.758983E-05
7.600175E+03	6.875090E-04	6.758668E-05
7.610123E+03	6.875091E-04	6.758835E-05
7.620071E+03	6.875588E-04	6.759489E-05
7.630019E+03	6.876580E-04	6.760630E-05
7.639967E+03	6.878072E-04	6.762262E-05
7.649914E+03	6.880059E-04	6.764382E-05
7.659862E+03	6.882547E-04	6.766993E-05
7.669810E+03	6.885539E-04	6.770100E-05
7.679758E+03	6.889031E-04	6.773699E-05
7.689706E+03	6.893023E-04	6.777789E-05
7.699654E+03	6.897519E-04	6.782376E-05
7.709602E+03	6.902691E-04	6.787627E-05
7.719550E+03	6.908200E-04	6.793210E-05
