#wls	flux	fluxerr
1.591660E+03	1.241769E-04	2.835344E-05
1.631451E+03	1.274751E-04	2.910622E-05
1.671243E+03	1.308903E-04	2.988568E-05
1.711034E+03	1.344017E-04	3.068710E-05
1.750826E+03	1.380573E-04	3.152141E-05
1.790617E+03	1.418119E-04	3.237830E-05
1.830409E+03	1.456907E-04	3.326352E-05
1.870200E+03	1.496949E-04	3.417735E-05
1.909992E+03	1.538258E-04	3.512007E-05
1.949783E+03	1.580842E-04	3.609188E-05
1.989575E+03	1.624707E-04	3.709291E-05
2.029366E+03	1.669855E-04	3.812318E-05
2.069158E+03	1.716283E-04	3.918265E-05
2.108949E+03	1.763983E-04	4.027113E-05
2.148741E+03	1.813245E-04	4.139524E-05
2.188532E+03	1.863458E-04	4.254099E-05
2.228324E+03	1.915208E-04	4.372180E-05
2.268115E+03	1.968166E-04	4.493016E-05
2.307907E+03	2.022628E-04	4.617281E-05
2.347698E+03	2.078239E-04	4.744165E-05
2.387490E+03	2.134953E-04	4.873562E-05
2.427281E+03	2.193070E-04	5.006156E-05
2.467073E+03	2.252192E-04	5.141040E-05
2.506864E+03	2.312255E-04	5.278065E-05
2.546656E+03	2.373929E-04	5.418766E-05
2.586447E+03	2.436042E-04	5.560461E-05
2.626239E+03	2.499646E-04	5.705555E-05
2.666030E+03	2.563903E-04	5.852135E-05
2.705821E+03	2.629119E-04	6.000896E-05
2.745613E+03	2.695209E-04	6.151647E-05
2.785404E+03	2.761670E-04	6.303240E-05
2.825196E+03	2.828811E-04	6.456377E-05
2.864987E+03	2.896535E-04	6.610839E-05
2.904779E+03	2.964740E-04	6.766395E-05
2.944570E+03	3.033322E-04	6.922805E-05
2.984362E+03	3.101728E-04	7.078805E-05
2.994310E+03	3.119279E-04	7.118830E-05
3.004258E+03	3.136333E-04	7.157721E-05
3.014206E+03	3.153789E-04	7.197529E-05
3.024153E+03	3.170740E-04	7.236183E-05
3.034101E+03	3.188092E-04	7.275751E-05
3.044049E+03	3.205387E-04	7.315192E-05
3.053997E+03	3.222628E-04	7.354506E-05
3.063945E+03	3.239807E-04	7.393681E-05
3.073893E+03	3.256926E-04	7.432717E-05
3.083841E+03	3.273981E-04	7.471606E-05
3.093789E+03	3.291435E-04	7.511406E-05
3.103736E+03	3.308358E-04	7.549993E-05
3.113684E+03	3.325677E-04	7.589485E-05
3.123632E+03	3.342928E-04	7.628819E-05
3.133580E+03	3.359636E-04	7.666916E-05
3.143528E+03	3.376740E-04	7.705914E-05
3.153476E+03	3.394240E-04	7.745818E-05
3.163424E+03	3.411191E-04	7.784467E-05
3.173372E+03	3.428062E-04	7.822933E-05
3.183319E+03	3.445328E-04	7.862300E-05
3.193267E+03	3.462034E-04	7.900390E-05
3.203215E+03	3.479134E-04	7.939377E-05
3.213163E+03	3.496148E-04	7.978169E-05
3.223111E+03	3.513075E-04	8.016762E-05
3.233059E+03	3.529914E-04	8.055152E-05
3.243007E+03	3.546660E-04	8.093331E-05
3.252955E+03	3.563798E-04	8.132405E-05
3.262902E+03	3.580360E-04	8.170162E-05
3.272850E+03	3.597311E-04	8.208806E-05
3.282798E+03	3.614165E-04	8.247231E-05
3.292746E+03	3.630435E-04	8.284322E-05
3.302694E+03	3.647093E-04	8.322298E-05
3.312642E+03	3.663650E-04	8.360041E-05
3.322590E+03	3.680595E-04	8.398671E-05
3.332538E+03	3.696947E-04	8.435947E-05
3.342485E+03	3.713194E-04	8.472984E-05
3.352433E+03	3.729827E-04	8.510901E-05
3.362381E+03	3.745860E-04	8.547448E-05
3.372329E+03	3.762278E-04	8.584873E-05
3.382277E+03	3.778587E-04	8.622051E-05
3.392225E+03	3.794787E-04	8.658977E-05
3.402173E+03	3.810874E-04	8.695647E-05
3.412120E+03	3.826849E-04	8.732059E-05
3.422068E+03	3.843208E-04	8.769350E-05
3.432016E+03	3.858955E-04	8.805242E-05
3.441964E+03	3.874585E-04	8.840867E-05
3.451912E+03	3.890600E-04	8.877371E-05
3.461860E+03	3.906498E-04	8.913606E-05
3.471808E+03	3.922278E-04	8.949573E-05
3.481756E+03	3.937940E-04	8.985270E-05
3.491703E+03	3.953482E-04	9.020693E-05
3.501651E+03	3.968904E-04	9.055842E-05
3.511599E+03	3.984205E-04	9.090714E-05
3.521547E+03	3.999385E-04	9.125310E-05
3.531495E+03	4.014948E-04	9.160780E-05
3.541443E+03	4.029884E-04	9.194817E-05
3.551391E+03	4.045202E-04	9.229729E-05
3.561339E+03	4.060398E-04	9.264360E-05
3.571286E+03	4.074962E-04	9.297550E-05
3.581234E+03	4.089910E-04	9.331614E-05
3.591182E+03	4.104734E-04	9.365396E-05
3.601130E+03	4.119433E-04	9.398894E-05
3.611078E+03	4.134518E-04	9.433270E-05
3.621026E+03	4.148968E-04	9.466198E-05
3.630974E+03	4.163293E-04	9.498839E-05
3.640922E+03	4.178002E-04	9.532359E-05
3.650869E+03	4.192076E-04	9.564428E-05
3.660817E+03	4.206536E-04	9.597378E-05
3.670765E+03	4.220872E-04	9.630043E-05
3.680713E+03	4.234568E-04	9.661251E-05
3.690661E+03	4.248653E-04	9.693345E-05
3.700609E+03	4.262612E-04	9.725151E-05
3.710557E+03	4.276447E-04	9.756674E-05
3.720505E+03	4.290157E-04	9.787911E-05
3.730452E+03	4.303743E-04	9.818866E-05
3.740400E+03	4.317204E-04	9.849534E-05
3.750348E+03	4.331056E-04	9.881095E-05
3.760296E+03	4.344270E-04	9.911200E-05
3.770244E+03	4.357359E-04	9.941021E-05
3.780192E+03	4.370841E-04	9.971738E-05
3.790140E+03	4.383686E-04	1.000100E-04
3.800088E+03	4.396923E-04	1.003116E-04
3.810035E+03	4.409524E-04	1.005986E-04
3.819983E+03	4.422519E-04	1.008947E-04
3.829931E+03	4.435393E-04	1.011880E-04
3.839879E+03	4.448147E-04	1.014785E-04
3.849827E+03	4.460266E-04	1.017546E-04
3.859775E+03	4.472780E-04	1.020397E-04
3.869723E+03	4.485177E-04	1.023220E-04
3.879671E+03	4.497456E-04	1.026018E-04
3.889618E+03	4.509616E-04	1.028788E-04
3.899566E+03	4.521661E-04	1.031531E-04
3.909514E+03	4.533588E-04	1.034248E-04
3.919462E+03	4.545401E-04	1.036939E-04
3.929410E+03	4.557098E-04	1.039603E-04
3.939358E+03	4.568682E-04	1.042241E-04
3.949306E+03	4.580150E-04	1.044854E-04
3.959254E+03	4.592021E-04	1.047558E-04
3.969201E+03	4.603264E-04	1.050118E-04
3.979149E+03	4.614396E-04	1.052654E-04
3.989097E+03	4.625415E-04	1.055163E-04
3.999045E+03	4.636325E-04	1.057648E-04
4.008993E+03	4.647638E-04	1.060225E-04
4.018941E+03	4.658327E-04	1.062659E-04
4.028889E+03	4.668908E-04	1.065069E-04
4.038836E+03	4.679379E-04	1.067454E-04
4.048784E+03	4.689742E-04	1.069814E-04
4.058732E+03	4.700511E-04	1.072266E-04
4.068680E+03	4.710661E-04	1.074578E-04
4.078628E+03	4.720702E-04	1.076864E-04
4.088576E+03	4.730638E-04	1.079127E-04
4.098524E+03	4.740468E-04	1.081365E-04
4.108472E+03	4.750704E-04	1.083696E-04
4.118419E+03	4.760322E-04	1.085886E-04
4.128367E+03	4.769836E-04	1.088053E-04
4.138315E+03	4.779243E-04	1.090195E-04
4.148263E+03	4.788547E-04	1.092314E-04
4.158211E+03	4.797745E-04	1.094408E-04
4.168159E+03	4.806840E-04	1.096479E-04
4.178107E+03	4.815829E-04	1.098526E-04
4.188055E+03	4.824714E-04	1.100549E-04
4.198002E+03	4.833493E-04	1.102548E-04
4.207950E+03	4.842167E-04	1.104523E-04
4.217898E+03	4.850228E-04	1.106358E-04
4.227846E+03	4.858692E-04	1.108285E-04
4.237794E+03	4.867050E-04	1.110188E-04
4.247742E+03	4.874795E-04	1.111951E-04
4.257690E+03	4.882939E-04	1.113805E-04
4.267638E+03	4.890470E-04	1.115520E-04
4.277585E+03	4.898399E-04	1.117325E-04
4.287533E+03	4.905714E-04	1.118990E-04
4.297481E+03	4.913424E-04	1.120745E-04
4.307429E+03	4.920519E-04	1.122360E-04
4.317377E+03	4.927503E-04	1.123950E-04
4.327325E+03	4.934376E-04	1.125515E-04
4.337273E+03	4.941134E-04	1.127053E-04
4.347221E+03	4.947779E-04	1.128566E-04
4.357168E+03	4.954308E-04	1.130052E-04
4.367116E+03	4.960719E-04	1.131511E-04
4.377064E+03	4.966512E-04	1.132829E-04
4.387012E+03	4.972684E-04	1.134234E-04
4.396960E+03	4.978236E-04	1.135498E-04
4.406908E+03	4.984163E-04	1.136847E-04
4.416856E+03	4.989467E-04	1.138054E-04
4.426804E+03	4.994643E-04	1.139232E-04
4.436751E+03	4.999692E-04	1.140381E-04
4.446699E+03	5.004609E-04	1.141500E-04
4.456647E+03	5.009394E-04	1.142588E-04
4.466595E+03	5.014043E-04	1.143646E-04
4.476543E+03	5.018555E-04	1.144673E-04
4.486491E+03	5.022432E-04	1.145555E-04
4.496439E+03	5.026661E-04	1.146517E-04
4.506387E+03	5.030253E-04	1.147334E-04
4.516334E+03	5.033697E-04	1.148117E-04
4.526282E+03	5.036992E-04	1.148867E-04
4.536230E+03	5.040134E-04	1.149581E-04
4.546178E+03	5.043121E-04	1.150260E-04
4.556126E+03	5.045461E-04	1.150792E-04
4.566074E+03	5.048128E-04	1.151398E-04
4.576022E+03	5.050144E-04	1.151856E-04
4.585970E+03	5.052480E-04	1.152387E-04
4.595917E+03	5.054160E-04	1.152769E-04
4.605865E+03	5.055667E-04	1.153111E-04
4.615813E+03	5.056999E-04	1.153413E-04
4.625761E+03	5.057667E-04	1.153564E-04
4.635709E+03	5.058639E-04	1.153784E-04
4.645657E+03	5.058944E-04	1.153852E-04
4.655605E+03	5.059544E-04	1.153988E-04
4.665553E+03	5.059472E-04	1.153970E-04
4.675500E+03	5.059208E-04	1.153909E-04
4.685448E+03	5.058749E-04	1.153803E-04
4.695396E+03	5.057615E-04	1.153543E-04
4.705344E+03	5.056761E-04	1.153347E-04
4.715292E+03	5.055230E-04	1.152997E-04
4.725240E+03	5.053497E-04	1.152601E-04
4.735188E+03	5.051561E-04	1.152159E-04
4.745135E+03	5.049422E-04	1.151671E-04
4.755083E+03	5.047079E-04	1.151136E-04
4.765031E+03	5.044531E-04	1.150554E-04
4.774979E+03	5.041309E-04	1.149819E-04
4.784927E+03	5.037887E-04	1.149038E-04
4.794875E+03	5.034265E-04	1.148212E-04
4.804823E+03	5.030446E-04	1.147340E-04
4.814771E+03	5.026431E-04	1.146425E-04
4.824718E+03	5.021761E-04	1.145360E-04
4.834666E+03	5.017369E-04	1.144358E-04
4.844614E+03	5.012330E-04	1.143209E-04
4.854562E+03	5.007113E-04	1.142019E-04
4.864510E+03	5.001724E-04	1.140790E-04
4.874458E+03	4.996166E-04	1.139523E-04
4.884406E+03	4.989988E-04	1.138115E-04
4.894354E+03	4.984112E-04	1.136775E-04
4.904301E+03	4.977627E-04	1.135296E-04
4.914249E+03	4.970998E-04	1.133785E-04
4.924197E+03	4.964231E-04	1.132242E-04
4.934145E+03	4.956879E-04	1.130566E-04
4.944093E+03	4.949853E-04	1.128965E-04
4.954041E+03	4.942255E-04	1.127233E-04
4.963989E+03	4.934544E-04	1.125475E-04
4.973937E+03	4.926725E-04	1.123693E-04
4.983884E+03	4.918804E-04	1.121887E-04
4.993832E+03	4.910342E-04	1.119959E-04
5.003780E+03	4.902233E-04	1.118110E-04
5.013728E+03	4.893597E-04	1.116142E-04
5.023676E+03	4.884882E-04	1.114156E-04
5.033624E+03	4.876094E-04	1.112153E-04
5.043572E+03	4.866801E-04	1.110035E-04
5.053520E+03	4.857883E-04	1.108002E-04
5.063467E+03	4.848471E-04	1.105857E-04
5.073415E+03	4.839009E-04	1.103701E-04
5.083363E+03	4.829499E-04	1.101533E-04
5.093311E+03	4.819948E-04	1.099357E-04
5.103259E+03	4.810359E-04	1.097171E-04
5.113207E+03	4.800307E-04	1.094881E-04
5.123155E+03	4.790228E-04	1.092584E-04
5.133103E+03	4.780127E-04	1.090282E-04
5.143050E+03	4.770005E-04	1.087975E-04
5.152998E+03	4.759869E-04	1.085665E-04
5.162946E+03	4.749299E-04	1.083256E-04
5.172894E+03	4.739141E-04	1.080942E-04
5.182842E+03	4.728560E-04	1.078531E-04
5.192790E+03	4.717979E-04	1.076119E-04
5.202738E+03	4.707400E-04	1.073709E-04
5.212686E+03	4.696412E-04	1.071205E-04
5.222633E+03	4.685849E-04	1.068798E-04
5.232581E+03	4.674885E-04	1.066299E-04
5.242529E+03	4.663936E-04	1.063805E-04
5.252477E+03	4.653005E-04	1.061314E-04
5.262425E+03	4.642096E-04	1.058828E-04
5.272373E+03	4.630800E-04	1.056254E-04
5.282321E+03	4.619938E-04	1.053779E-04
5.292269E+03	4.608698E-04	1.051218E-04
5.302216E+03	4.597488E-04	1.048664E-04
5.312164E+03	4.586309E-04	1.046117E-04
5.322112E+03	4.575164E-04	1.043577E-04
5.332060E+03	4.563653E-04	1.040954E-04
5.342008E+03	4.552580E-04	1.038431E-04
5.351956E+03	4.541144E-04	1.035826E-04
5.361904E+03	4.529750E-04	1.033230E-04
5.371851E+03	4.518397E-04	1.030643E-04
5.381799E+03	4.506691E-04	1.027976E-04
5.391747E+03	4.495423E-04	1.025408E-04
5.401695E+03	4.483806E-04	1.022761E-04
5.411643E+03	4.472624E-04	1.020214E-04
5.421591E+03	4.461097E-04	1.017587E-04
5.431539E+03	4.449229E-04	1.014883E-04
5.441487E+03	4.437797E-04	1.012279E-04
5.451434E+03	4.426409E-04	1.009684E-04
5.461382E+03	4.414684E-04	1.007013E-04
5.471330E+03	4.403006E-04	1.004352E-04
5.481278E+03	4.391758E-04	1.001789E-04
5.491226E+03	4.380175E-04	9.991502E-05
5.501174E+03	4.368260E-04	9.964354E-05
5.511122E+03	4.356771E-04	9.938179E-05
5.521070E+03	4.344951E-04	9.911250E-05
5.531017E+03	4.333555E-04	9.885285E-05
5.540965E+03	4.321828E-04	9.858568E-05
5.550913E+03	4.310147E-04	9.831955E-05
5.560861E+03	4.298510E-04	9.805442E-05
5.570809E+03	4.286918E-04	9.779032E-05
5.580757E+03	4.274999E-04	9.751876E-05
5.590705E+03	4.263492E-04	9.725658E-05
5.600653E+03	4.251658E-04	9.698696E-05
5.610600E+03	4.239865E-04	9.671828E-05
5.620548E+03	4.228111E-04	9.645050E-05
5.630496E+03	4.216397E-04	9.618361E-05
5.640444E+03	4.204720E-04	9.591757E-05
5.650392E+03	4.193079E-04	9.565236E-05
5.660340E+03	4.181110E-04	9.537966E-05
5.670288E+03	4.169176E-04	9.510776E-05
5.680236E+03	4.157634E-04	9.484481E-05
5.690183E+03	4.145764E-04	9.457437E-05
5.700131E+03	4.133923E-04	9.430458E-05
5.710079E+03	4.122110E-04	9.403544E-05
5.720027E+03	4.109969E-04	9.375881E-05
5.729975E+03	4.098207E-04	9.349083E-05
5.739923E+03	4.086115E-04	9.321532E-05
5.749871E+03	4.074396E-04	9.294833E-05
5.759819E+03	4.062346E-04	9.267378E-05
5.769766E+03	4.050314E-04	9.239964E-05
5.779714E+03	4.038298E-04	9.212587E-05
5.789662E+03	4.026297E-04	9.185245E-05
5.799610E+03	4.014308E-04	9.157929E-05
5.809558E+03	4.001984E-04	9.129849E-05
5.819506E+03	3.990015E-04	9.102578E-05
5.829454E+03	3.977708E-04	9.074536E-05
5.839402E+03	3.965408E-04	9.046510E-05
5.849349E+03	3.953453E-04	9.019270E-05
5.859297E+03	3.941157E-04	8.991253E-05
5.869245E+03	3.928861E-04	8.963236E-05
5.879193E+03	3.916561E-04	8.935210E-05
5.889141E+03	3.903921E-04	8.906409E-05
5.899089E+03	3.891612E-04	8.878361E-05
5.909037E+03	3.878959E-04	8.849529E-05
5.918985E+03	3.866630E-04	8.821436E-05
5.928932E+03	3.853955E-04	8.792555E-05
5.938880E+03	3.841268E-04	8.763644E-05
5.948828E+03	3.828894E-04	8.735449E-05
5.958776E+03	3.816173E-04	8.706461E-05
5.968724E+03	3.803432E-04	8.677428E-05
5.978672E+03	3.790343E-04	8.647600E-05
5.988620E+03	3.777557E-04	8.618464E-05
5.998568E+03	3.764747E-04	8.589273E-05
6.008515E+03	3.751586E-04	8.559280E-05
6.018463E+03	3.738719E-04	8.529959E-05
6.028411E+03	3.725501E-04	8.499836E-05
6.038359E+03	3.712572E-04	8.470373E-05
6.048307E+03	3.699289E-04	8.440100E-05
6.058255E+03	3.685972E-04	8.409752E-05
6.068203E+03	3.672621E-04	8.379324E-05
6.078150E+03	3.659231E-04	8.348808E-05
6.088098E+03	3.645802E-04	8.318203E-05
6.098046E+03	3.632333E-04	8.287507E-05
6.107994E+03	3.618823E-04	8.256717E-05
6.117942E+03	3.604959E-04	8.225118E-05
6.127890E+03	3.591363E-04	8.194131E-05
6.137838E+03	3.577413E-04	8.162336E-05
6.147786E+03	3.563727E-04	8.131144E-05
6.157733E+03	3.549687E-04	8.099144E-05
6.167681E+03	3.535602E-04	8.067038E-05
6.177629E+03	3.521773E-04	8.035520E-05
6.187577E+03	3.507594E-04	8.003200E-05
6.197525E+03	3.493365E-04	7.970769E-05
6.207473E+03	3.479089E-04	7.938228E-05
6.217421E+03	3.464764E-04	7.905576E-05
6.227369E+03	3.450390E-04	7.872812E-05
6.237316E+03	3.435968E-04	7.839936E-05
6.247264E+03	3.421199E-04	7.806272E-05
6.257212E+03	3.406680E-04	7.773175E-05
6.267160E+03	3.392112E-04	7.739967E-05
6.277108E+03	3.377202E-04	7.705979E-05
6.287056E+03	3.362540E-04	7.672555E-05
6.297004E+03	3.347537E-04	7.638355E-05
6.306952E+03	3.332781E-04	7.604716E-05
6.316899E+03	3.317690E-04	7.570313E-05
6.326847E+03	3.302556E-04	7.535812E-05
6.336795E+03	3.287380E-04	7.501215E-05
6.346743E+03	3.272447E-04	7.467172E-05
6.356691E+03	3.257189E-04	7.432388E-05
6.366639E+03	3.241893E-04	7.397517E-05
6.376587E+03	3.226560E-04	7.362560E-05
6.386535E+03	3.211191E-04	7.327522E-05
6.396482E+03	3.195789E-04	7.292407E-05
6.406430E+03	3.180355E-04	7.257219E-05
6.416378E+03	3.164615E-04	7.221331E-05
6.426326E+03	3.149123E-04	7.186012E-05
6.436274E+03	3.133605E-04	7.150632E-05
6.446222E+03	3.118063E-04	7.115196E-05
6.456170E+03	3.102228E-04	7.079092E-05
6.466118E+03	3.086646E-04	7.043565E-05
6.476065E+03	3.070779E-04	7.007386E-05
6.486013E+03	3.055165E-04	6.971785E-05
6.495961E+03	3.039274E-04	6.935552E-05
6.505909E+03	3.023640E-04	6.899905E-05
6.515857E+03	3.007736E-04	6.863641E-05
6.525805E+03	2.992092E-04	6.827970E-05
6.535753E+03	2.976185E-04	6.791700E-05
6.545701E+03	2.960281E-04	6.755436E-05
6.555648E+03	2.944385E-04	6.719188E-05
6.565596E+03	2.928498E-04	6.682961E-05
6.575544E+03	2.912878E-04	6.647344E-05
6.585492E+03	2.897016E-04	6.611175E-05
6.595440E+03	2.881173E-04	6.575048E-05
6.605388E+03	2.865350E-04	6.538966E-05
6.615336E+03	2.849552E-04	6.502941E-05
6.625284E+03	2.833780E-04	6.466975E-05
6.635231E+03	2.818038E-04	6.431077E-05
6.645179E+03	2.802328E-04	6.395253E-05
6.655127E+03	2.786409E-04	6.358950E-05
6.665075E+03	2.770775E-04	6.323298E-05
6.675023E+03	2.755183E-04	6.287740E-05
6.684971E+03	2.739636E-04	6.252285E-05
6.694919E+03	2.723895E-04	6.216388E-05
6.704866E+03	2.708445E-04	6.181154E-05
6.714814E+03	2.693049E-04	6.146043E-05
6.724762E+03	2.677471E-04	6.110517E-05
6.734710E+03	2.662190E-04	6.075668E-05
6.744658E+03	2.646969E-04	6.040958E-05
6.754606E+03	2.631580E-04	6.005861E-05
6.764554E+03	2.616491E-04	5.971448E-05
6.774502E+03	2.601241E-04	5.936668E-05
6.784449E+03	2.586063E-04	5.902054E-05
6.794397E+03	2.571191E-04	5.868135E-05
6.804345E+03	2.556167E-04	5.833872E-05
6.814293E+03	2.541226E-04	5.799795E-05
6.824241E+03	2.526590E-04	5.766417E-05
6.834189E+03	2.511815E-04	5.732720E-05
6.844137E+03	2.497128E-04	5.699221E-05
6.854085E+03	2.482529E-04	5.665927E-05
6.864032E+03	2.468023E-04	5.632842E-05
6.873980E+03	2.453828E-04	5.600465E-05
6.883928E+03	2.439509E-04	5.567808E-05
6.893876E+03	2.425287E-04	5.535371E-05
6.903824E+03	2.411164E-04	5.503160E-05
6.913772E+03	2.397142E-04	5.471178E-05
6.923720E+03	2.383222E-04	5.439430E-05
6.933668E+03	2.369405E-04	5.407916E-05
6.943615E+03	2.355484E-04	5.376164E-05
6.953563E+03	2.341880E-04	5.345136E-05
6.963511E+03	2.328385E-04	5.314356E-05
6.973459E+03	2.314998E-04	5.283823E-05
6.983407E+03	2.301722E-04	5.253542E-05
6.993355E+03	2.288354E-04	5.223050E-05
7.003303E+03	2.275303E-04	5.193282E-05
7.013251E+03	2.262366E-04	5.163776E-05
7.023198E+03	2.249343E-04	5.134071E-05
7.033146E+03	2.236638E-04	5.105093E-05
7.043094E+03	2.223850E-04	5.075924E-05
7.053042E+03	2.211379E-04	5.047480E-05
7.062990E+03	2.198830E-04	5.018855E-05
7.072938E+03	2.186598E-04	4.990955E-05
7.082886E+03	2.174289E-04	4.962880E-05
7.092834E+03	2.162102E-04	4.935082E-05
7.102781E+03	2.150232E-04	4.908007E-05
7.112729E+03	2.138289E-04	4.880765E-05
7.122677E+03	2.126471E-04	4.853807E-05
7.132625E+03	2.114775E-04	4.827131E-05
7.142573E+03	2.103204E-04	4.800736E-05
7.152521E+03	2.091945E-04	4.775056E-05
7.162469E+03	2.080622E-04	4.749227E-05
7.172417E+03	2.069422E-04	4.723681E-05
7.182364E+03	2.058348E-04	4.698420E-05
7.192312E+03	2.047397E-04	4.673442E-05
7.202260E+03	2.036387E-04	4.648328E-05
7.212208E+03	2.025689E-04	4.623924E-05
7.222156E+03	2.015113E-04	4.599802E-05
7.232104E+03	2.004663E-04	4.575964E-05
7.242052E+03	1.994157E-04	4.551999E-05
7.252000E+03	1.983956E-04	4.528731E-05
7.261947E+03	1.973879E-04	4.505746E-05
7.271895E+03	1.963748E-04	4.482637E-05
7.281843E+03	1.953921E-04	4.460220E-05
7.291791E+03	1.944039E-04	4.437678E-05
7.301739E+03	1.934459E-04	4.415827E-05
7.311687E+03	1.924825E-04	4.393851E-05
7.321635E+03	1.915316E-04	4.372160E-05
7.331583E+03	1.905929E-04	4.350749E-05
7.341530E+03	1.896840E-04	4.330016E-05
7.351478E+03	1.887699E-04	4.309166E-05
7.361426E+03	1.878679E-04	4.288590E-05
7.371374E+03	1.869781E-04	4.268295E-05
7.381322E+03	1.861005E-04	4.248276E-05
7.391270E+03	1.852349E-04	4.228530E-05
7.401218E+03	1.843813E-04	4.209059E-05
7.411165E+03	1.835227E-04	4.189474E-05
7.421113E+03	1.826930E-04	4.170548E-05
7.431061E+03	1.818749E-04	4.151888E-05
7.441009E+03	1.810520E-04	4.133116E-05
7.450957E+03	1.802576E-04	4.114995E-05
7.460905E+03	1.794580E-04	4.096757E-05
7.470853E+03	1.786867E-04	4.079163E-05
7.480801E+03	1.779104E-04	4.061455E-05
7.490748E+03	1.771620E-04	4.044384E-05
7.500696E+03	1.764086E-04	4.027199E-05
7.510644E+03	1.756665E-04	4.010271E-05
7.520592E+03	1.749357E-04	3.993603E-05
7.530540E+03	1.742161E-04	3.977186E-05
7.540488E+03	1.735075E-04	3.961025E-05
7.550436E+03	1.728101E-04	3.945116E-05
7.560384E+03	1.721235E-04	3.929455E-05
7.570331E+03	1.714479E-04	3.914044E-05
7.580279E+03	1.707670E-04	3.898513E-05
7.590227E+03	1.701128E-04	3.883592E-05
7.600175E+03	1.694692E-04	3.868912E-05
7.610123E+03	1.688204E-04	3.854111E-05
7.620071E+03	1.681978E-04	3.839912E-05
7.630019E+03	1.675699E-04	3.825590E-05
7.639967E+03	1.669523E-04	3.811502E-05
7.649914E+03	1.663607E-04	3.798007E-05
7.659862E+03	1.657634E-04	3.784384E-05
7.669810E+03	1.651762E-04	3.770991E-05
7.679758E+03	1.645991E-04	3.757826E-05
7.689706E+03	1.640318E-04	3.744887E-05
7.699654E+03	1.634743E-04	3.732172E-05
7.709602E+03	1.629111E-04	3.719324E-05
7.719550E+03	1.623729E-04	3.707049E-05
