#wls	flux	fluxerr
1.565435E+03	9.855885E-04	1.183443E-05
1.604571E+03	1.017257E-03	1.221348E-05
1.643707E+03	1.048628E-03	1.258886E-05
1.682843E+03	1.079476E-03	1.295785E-05
1.721979E+03	1.109529E-03	1.331719E-05
1.761115E+03	1.138120E-03	1.365887E-05
1.800250E+03	1.163903E-03	1.396673E-05
1.839386E+03	1.185738E-03	1.422711E-05
1.878522E+03	1.202069E-03	1.442136E-05
1.917658E+03	1.211641E-03	1.453445E-05
1.956794E+03	1.214325E-03	1.456486E-05
1.995930E+03	1.212697E-03	1.454349E-05
2.035066E+03	1.212997E-03	1.454520E-05
2.074202E+03	1.224610E-03	1.468249E-05
2.113338E+03	1.257033E-03	1.506918E-05
2.152473E+03	1.314822E-03	1.575975E-05
2.191609E+03	1.396028E-03	1.673071E-05
2.230745E+03	1.494245E-03	1.790518E-05
2.269881E+03	1.602171E-03	1.919555E-05
2.309017E+03	1.714170E-03	2.053425E-05
2.348153E+03	1.826838E-03	2.188048E-05
2.387289E+03	1.938586E-03	2.321519E-05
2.426425E+03	2.049264E-03	2.453656E-05
2.465560E+03	2.159130E-03	2.584768E-05
2.504696E+03	2.268917E-03	2.715731E-05
2.543832E+03	2.379199E-03	2.847231E-05
2.582968E+03	2.490636E-03	2.980054E-05
2.622104E+03	2.603657E-03	3.114712E-05
2.661240E+03	2.718627E-03	3.251639E-05
2.700376E+03	2.835837E-03	3.391179E-05
2.739512E+03	2.955427E-03	3.533495E-05
2.778647E+03	3.077478E-03	3.678683E-05
2.817783E+03	3.202189E-03	3.826976E-05
2.856919E+03	3.329547E-03	3.978353E-05
2.896055E+03	3.459918E-03	4.133249E-05
2.935191E+03	3.593368E-03	4.291739E-05
2.944975E+03	3.627338E-03	4.332072E-05
2.954759E+03	3.661467E-03	4.372591E-05
2.964543E+03	3.695748E-03	4.413286E-05
2.974327E+03	3.730382E-03	4.454395E-05
2.984111E+03	3.765433E-03	4.495997E-05
2.993895E+03	3.801041E-03	4.538257E-05
3.003679E+03	3.837243E-03	4.581222E-05
3.013463E+03	3.873910E-03	4.624736E-05
3.023247E+03	3.910997E-03	4.668743E-05
3.033031E+03	3.948626E-03	4.713392E-05
3.042815E+03	3.986596E-03	4.758442E-05
3.052599E+03	4.024954E-03	4.803947E-05
3.062383E+03	4.063583E-03	4.849771E-05
3.072167E+03	4.102698E-03	4.896167E-05
3.081951E+03	4.142022E-03	4.942805E-05
3.091735E+03	4.181614E-03	4.989757E-05
3.101518E+03	4.221526E-03	5.037084E-05
3.111302E+03	4.261731E-03	5.084752E-05
3.121086E+03	4.302051E-03	5.132552E-05
3.130870E+03	4.342705E-03	5.180741E-05
3.140654E+03	4.383514E-03	5.229110E-05
3.150438E+03	4.424534E-03	5.277722E-05
3.160222E+03	4.465676E-03	5.326472E-05
3.170006E+03	4.507002E-03	5.375435E-05
3.179790E+03	4.548495E-03	5.424588E-05
3.189574E+03	4.590138E-03	5.473914E-05
3.199358E+03	4.631849E-03	5.523312E-05
3.209142E+03	4.673691E-03	5.572859E-05
3.218926E+03	4.715651E-03	5.622539E-05
3.228710E+03	4.757645E-03	5.672252E-05
3.238494E+03	4.799739E-03	5.722075E-05
3.248278E+03	4.841845E-03	5.771906E-05
3.258062E+03	4.884041E-03	5.821836E-05
3.267846E+03	4.926235E-03	5.871755E-05
3.277630E+03	4.968426E-03	5.921663E-05
3.287414E+03	5.010605E-03	5.971548E-05
3.297198E+03	5.052770E-03	6.021408E-05
3.306982E+03	5.094917E-03	6.071238E-05
3.316766E+03	5.136963E-03	6.120941E-05
3.326550E+03	5.178988E-03	6.170609E-05
3.336334E+03	5.220831E-03	6.220053E-05
3.346118E+03	5.262643E-03	6.269451E-05
3.355902E+03	5.304274E-03	6.318626E-05
3.365686E+03	5.345725E-03	6.367577E-05
3.375470E+03	5.386997E-03	6.416307E-05
3.385254E+03	5.428011E-03	6.464721E-05
3.395038E+03	5.468845E-03	6.512913E-05
3.404822E+03	5.509427E-03	6.560796E-05
3.414606E+03	5.549687E-03	6.608286E-05
3.424389E+03	5.589624E-03	6.655385E-05
3.434173E+03	5.629175E-03	6.702016E-05
3.443957E+03	5.668410E-03	6.748261E-05
3.453741E+03	5.707126E-03	6.793880E-05
3.463525E+03	5.745392E-03	6.838957E-05
3.473309E+03	5.783147E-03	6.883416E-05
3.483093E+03	5.820395E-03	6.927264E-05
3.492877E+03	5.857005E-03	6.970344E-05
3.502661E+03	5.892913E-03	7.012581E-05
3.512445E+03	5.928201E-03	7.054072E-05
3.522229E+03	5.962665E-03	7.094574E-05
3.532013E+03	5.996392E-03	7.134193E-05
3.541797E+03	6.029315E-03	7.172847E-05
3.551581E+03	6.061312E-03	7.210391E-05
3.561365E+03	6.092331E-03	7.246765E-05
3.571149E+03	6.122384E-03	7.281984E-05
3.580933E+03	6.151349E-03	7.315900E-05
3.590717E+03	6.179305E-03	7.348611E-05
3.600501E+03	6.206072E-03	7.379900E-05
3.610285E+03	6.231662E-03	7.409782E-05
3.620069E+03	6.256031E-03	7.438207E-05
3.629853E+03	6.279191E-03	7.465188E-05
3.639637E+03	6.301028E-03	7.490591E-05
3.649421E+03	6.321563E-03	7.514441E-05
3.659205E+03	6.340750E-03	7.536681E-05
3.668989E+03	6.358608E-03	7.557337E-05
3.678773E+03	6.375092E-03	7.576356E-05
3.688557E+03	6.390217E-03	7.593753E-05
3.698341E+03	6.403947E-03	7.609489E-05
3.708125E+03	6.416230E-03	7.623502E-05
3.717909E+03	6.427217E-03	7.635971E-05
3.727693E+03	6.436735E-03	7.646689E-05
3.737477E+03	6.444875E-03	7.655768E-05
3.747260E+03	6.451707E-03	7.663290E-05
3.757044E+03	6.457137E-03	7.669144E-05
3.766828E+03	6.461180E-03	7.673347E-05
3.776612E+03	6.463914E-03	7.675994E-05
3.786396E+03	6.465364E-03	7.677113E-05
3.796180E+03	6.465544E-03	7.676722E-05
3.805964E+03	6.464413E-03	7.674773E-05
3.815748E+03	6.462050E-03	7.671360E-05
3.825532E+03	6.458472E-03	7.666502E-05
3.835316E+03	6.453695E-03	7.660222E-05
3.845100E+03	6.447737E-03	7.652538E-05
3.854884E+03	6.440615E-03	7.643472E-05
3.864668E+03	6.432403E-03	7.633112E-05
3.874452E+03	6.423118E-03	7.621479E-05
3.884236E+03	6.412715E-03	7.608520E-05
3.894020E+03	6.401330E-03	7.594396E-05
3.903804E+03	6.388913E-03	7.579048E-05
3.913588E+03	6.375537E-03	7.562563E-05
3.923372E+03	6.361219E-03	7.544962E-05
3.933156E+03	6.345915E-03	7.526192E-05
3.942940E+03	6.329750E-03	7.506404E-05
3.952724E+03	6.312679E-03	7.485542E-05
3.962508E+03	6.294771E-03	7.463690E-05
3.972292E+03	6.276039E-03	7.440862E-05
3.982076E+03	6.256493E-03	7.417072E-05
3.991860E+03	6.236146E-03	7.392334E-05
4.001644E+03	6.215059E-03	7.366723E-05
4.011428E+03	6.193195E-03	7.340192E-05
4.021212E+03	6.170559E-03	7.312750E-05
4.030996E+03	6.147272E-03	7.284540E-05
4.040780E+03	6.123238E-03	7.255448E-05
4.050564E+03	6.098515E-03	7.225542E-05
4.060348E+03	6.073119E-03	7.194843E-05
4.070131E+03	6.047054E-03	7.163355E-05
4.079915E+03	6.020330E-03	7.131091E-05
4.089699E+03	5.992961E-03	7.098067E-05
4.099483E+03	5.964950E-03	7.064286E-05
4.109267E+03	5.936310E-03	7.029767E-05
4.119051E+03	5.907047E-03	6.994513E-05
4.128835E+03	5.877172E-03	6.958540E-05
4.138619E+03	5.846645E-03	6.921799E-05
4.148403E+03	5.815473E-03	6.884300E-05
4.158187E+03	5.783714E-03	6.846112E-05
4.167971E+03	5.751379E-03	6.807248E-05
4.177755E+03	5.718379E-03	6.767601E-05
4.187539E+03	5.684771E-03	6.727241E-05
4.197323E+03	5.650564E-03	6.686178E-05
4.207107E+03	5.615772E-03	6.644430E-05
4.216891E+03	5.580402E-03	6.602004E-05
4.226675E+03	5.544412E-03	6.558851E-05
4.236459E+03	5.507917E-03	6.515106E-05
4.246243E+03	5.470824E-03	6.470662E-05
4.256027E+03	5.433244E-03	6.425649E-05
4.265811E+03	5.395182E-03	6.380072E-05
4.275595E+03	5.356702E-03	6.334009E-05
4.285379E+03	5.317806E-03	6.287461E-05
4.295163E+03	5.278559E-03	6.240505E-05
4.304947E+03	5.238962E-03	6.193144E-05
4.314731E+03	5.199125E-03	6.145506E-05
4.324515E+03	5.159053E-03	6.097598E-05
4.334299E+03	5.118755E-03	6.049431E-05
4.344083E+03	5.078334E-03	6.001126E-05
4.353867E+03	5.037795E-03	5.952690E-05
4.363651E+03	4.997195E-03	5.904191E-05
4.373435E+03	4.956634E-03	5.855745E-05
4.383219E+03	4.916068E-03	5.807302E-05
4.393003E+03	4.875602E-03	5.758984E-05
4.402786E+03	4.835289E-03	5.710856E-05
4.412570E+03	4.795129E-03	5.662917E-05
4.422354E+03	4.755184E-03	5.615239E-05
4.432138E+03	4.715501E-03	5.567880E-05
4.441922E+03	4.676132E-03	5.520898E-05
4.451706E+03	4.637131E-03	5.474360E-05
4.461490E+03	4.598507E-03	5.428274E-05
4.471274E+03	4.560267E-03	5.382651E-05
4.481058E+03	4.522552E-03	5.337654E-05
4.490842E+03	4.485330E-03	5.293247E-05
4.500626E+03	4.448606E-03	5.249436E-05
4.510410E+03	4.412483E-03	5.206342E-05
4.520194E+03	4.377007E-03	5.164019E-05
4.529978E+03	4.342115E-03	5.122392E-05
4.539762E+03	4.307984E-03	5.081669E-05
4.549546E+03	4.274502E-03	5.041720E-05
4.559330E+03	4.241811E-03	5.002712E-05
4.569114E+03	4.209928E-03	4.964663E-05
4.578898E+03	4.178863E-03	4.927585E-05
4.588682E+03	4.148644E-03	4.891512E-05
4.598466E+03	4.119285E-03	4.856459E-05
4.608250E+03	4.090889E-03	4.822547E-05
4.618034E+03	4.063438E-03	4.789757E-05
4.627818E+03	4.036956E-03	4.758113E-05
4.637602E+03	4.011507E-03	4.727694E-05
4.647386E+03	3.987036E-03	4.698433E-05
4.657170E+03	3.963694E-03	4.670507E-05
4.666954E+03	3.941380E-03	4.643798E-05
4.676738E+03	3.920206E-03	4.618436E-05
4.686522E+03	3.900192E-03	4.594446E-05
4.696306E+03	3.881276E-03	4.571755E-05
4.706090E+03	3.863517E-03	4.550429E-05
4.715874E+03	3.846941E-03	4.530501E-05
4.725657E+03	3.831427E-03	4.511828E-05
4.735441E+03	3.816977E-03	4.494410E-05
4.745225E+03	3.803543E-03	4.478194E-05
4.755009E+03	3.791048E-03	4.463084E-05
4.764793E+03	3.779437E-03	4.449020E-05
4.774577E+03	3.768718E-03	4.436007E-05
4.784361E+03	3.758798E-03	4.423938E-05
4.794145E+03	3.749689E-03	4.412825E-05
4.803929E+03	3.741268E-03	4.402524E-05
4.813713E+03	3.733545E-03	4.393046E-05
4.823497E+03	3.726486E-03	4.384352E-05
4.833281E+03	3.720023E-03	4.376361E-05
4.843065E+03	3.714167E-03	4.369085E-05
4.852849E+03	3.708854E-03	4.362450E-05
4.862633E+03	3.704100E-03	4.356474E-05
4.872417E+03	3.699844E-03	4.351085E-05
4.882201E+03	3.696068E-03	4.346261E-05
4.891985E+03	3.692714E-03	4.341936E-05
4.901769E+03	3.689844E-03	4.338180E-05
4.911553E+03	3.687365E-03	4.334885E-05
4.921337E+03	3.685265E-03	4.332037E-05
4.931121E+03	3.683569E-03	4.329664E-05
4.940905E+03	3.682229E-03	4.327710E-05
4.950689E+03	3.681234E-03	4.326163E-05
4.960473E+03	3.680575E-03	4.325012E-05
4.970257E+03	3.680246E-03	4.324248E-05
4.980041E+03	3.680201E-03	4.323820E-05
4.989825E+03	3.680434E-03	4.323718E-05
4.999609E+03	3.680979E-03	4.323983E-05
5.009393E+03	3.681755E-03	4.324520E-05
5.019177E+03	3.682834E-03	4.325414E-05
5.028961E+03	3.684099E-03	4.326526E-05
5.038745E+03	3.685624E-03	4.327945E-05
5.048528E+03	3.687370E-03	4.329622E-05
5.058312E+03	3.689333E-03	4.331556E-05
5.068096E+03	3.691515E-03	4.333746E-05
5.077880E+03	3.693876E-03	4.336147E-05
5.087664E+03	3.696416E-03	4.338759E-05
5.097448E+03	3.699099E-03	4.341537E-05
5.107232E+03	3.701999E-03	4.344572E-05
5.117016E+03	3.705004E-03	4.347731E-05
5.126800E+03	3.708155E-03	4.351060E-05
5.136584E+03	3.711451E-03	4.354559E-05
5.146368E+03	3.714894E-03	4.358233E-05
5.156152E+03	3.718412E-03	4.361993E-05
5.165936E+03	3.722043E-03	4.365886E-05
5.175720E+03	3.725752E-03	4.369871E-05
5.185504E+03	3.729540E-03	4.373950E-05
5.195288E+03	3.733374E-03	4.378082E-05
5.205072E+03	3.737292E-03	4.382314E-05
5.214856E+03	3.741223E-03	4.386560E-05
5.224640E+03	3.745168E-03	4.390824E-05
5.234424E+03	3.749092E-03	4.395063E-05
5.244208E+03	3.753036E-03	4.399326E-05
5.253992E+03	3.756888E-03	4.403483E-05
5.263776E+03	3.760690E-03	4.407580E-05
5.273560E+03	3.764406E-03	4.411578E-05
5.283344E+03	3.768000E-03	4.415433E-05
5.293128E+03	3.771363E-03	4.419017E-05
5.302912E+03	3.774456E-03	4.422288E-05
5.312696E+03	3.777246E-03	4.425202E-05
5.322480E+03	3.779544E-03	4.427542E-05
5.332264E+03	3.781314E-03	4.429264E-05
5.342048E+03	3.782404E-03	4.430192E-05
5.351832E+03	3.782741E-03	4.430238E-05
5.361616E+03	3.782439E-03	4.429538E-05
5.371399E+03	3.781460E-03	4.428047E-05
5.381183E+03	3.779919E-03	4.425899E-05
5.390967E+03	3.777855E-03	4.423141E-05
5.400751E+03	3.775420E-03	4.419950E-05
5.410535E+03	3.772577E-03	4.416284E-05
5.420319E+03	3.769401E-03	4.412231E-05
5.430103E+03	3.765894E-03	4.407793E-05
5.439887E+03	3.762169E-03	4.403102E-05
5.449671E+03	3.758189E-03	4.398115E-05
5.459455E+03	3.753992E-03	4.392876E-05
5.469239E+03	3.749577E-03	4.387386E-05
5.479023E+03	3.745021E-03	4.381733E-05
5.488807E+03	3.740285E-03	4.375872E-05
5.498591E+03	3.735407E-03	4.369849E-05
5.508375E+03	3.730425E-03	4.363706E-05
5.518159E+03	3.725338E-03	4.357444E-05
5.527943E+03	3.720184E-03	4.351106E-05
5.537727E+03	3.714924E-03	4.344647E-05
5.547511E+03	3.709594E-03	4.338111E-05
5.557295E+03	3.704234E-03	4.331542E-05
5.567079E+03	3.698842E-03	4.324938E-05
5.576863E+03	3.693417E-03	4.318299E-05
5.586647E+03	3.687957E-03	4.311623E-05
5.596431E+03	3.682540E-03	4.305000E-05
5.606215E+03	3.677086E-03	4.298337E-05
5.615999E+03	3.671671E-03	4.291724E-05
5.625783E+03	3.666295E-03	4.285160E-05
5.635567E+03	3.660917E-03	4.278596E-05
5.645351E+03	3.655573E-03	4.272077E-05
5.655135E+03	3.650304E-03	4.265647E-05
5.664919E+03	3.645066E-03	4.259258E-05
5.674703E+03	3.639858E-03	4.252908E-05
5.684487E+03	3.634759E-03	4.246689E-05
5.694271E+03	3.629687E-03	4.240504E-05
5.704054E+03	3.624679E-03	4.234398E-05
5.713838E+03	3.619734E-03	4.228370E-05
5.723622E+03	3.614850E-03	4.222417E-05
5.733406E+03	3.610066E-03	4.216584E-05
5.743190E+03	3.605298E-03	4.210774E-05
5.752974E+03	3.600626E-03	4.205080E-05
5.762758E+03	3.596007E-03	4.199451E-05
5.772542E+03	3.591439E-03	4.193886E-05
5.782326E+03	3.586919E-03	4.188382E-05
5.792110E+03	3.582447E-03	4.182937E-05
5.801894E+03	3.578060E-03	4.177594E-05
5.811678E+03	3.573674E-03	4.172259E-05
5.821462E+03	3.569287E-03	4.166926E-05
5.831246E+03	3.564939E-03	4.161641E-05
5.841030E+03	3.560625E-03	4.156402E-05
5.850814E+03	3.556262E-03	4.151110E-05
5.860598E+03	3.551931E-03	4.145858E-05
5.870382E+03	3.547504E-03	4.140499E-05
5.880166E+03	3.543102E-03	4.135175E-05
5.889950E+03	3.538600E-03	4.129737E-05
5.899734E+03	3.533995E-03	4.124184E-05
5.909518E+03	3.529326E-03	4.118560E-05
5.919302E+03	3.524547E-03	4.112813E-05
5.929086E+03	3.519658E-03	4.106942E-05
5.938870E+03	3.514570E-03	4.100845E-05
5.948654E+03	3.509367E-03	4.094617E-05
5.958438E+03	3.503919E-03	4.088108E-05
5.968222E+03	3.498308E-03	4.081414E-05
5.978006E+03	3.492489E-03	4.074483E-05
5.987790E+03	3.486419E-03	4.067263E-05
5.997574E+03	3.480095E-03	4.059752E-05
6.007358E+03	3.473557E-03	4.051998E-05
6.017142E+03	3.466764E-03	4.043950E-05
6.026925E+03	3.459714E-03	4.035608E-05
6.036709E+03	3.452493E-03	4.027072E-05
6.046493E+03	3.445016E-03	4.018243E-05
6.056277E+03	3.437328E-03	4.009172E-05
6.066061E+03	3.429474E-03	3.999913E-05
6.075845E+03	3.421501E-03	3.990522E-05
6.085629E+03	3.413371E-03	3.980953E-05
6.095413E+03	3.405089E-03	3.971212E-05
6.105197E+03	3.396706E-03	3.961359E-05
6.114981E+03	3.388185E-03	3.951350E-05
6.124765E+03	3.379581E-03	3.941250E-05
6.134549E+03	3.370904E-03	3.931072E-05
6.144333E+03	3.362213E-03	3.920882E-05
6.154117E+03	3.353522E-03	3.910698E-05
6.163901E+03	3.344850E-03	3.900542E-05
6.173685E+03	3.336262E-03	3.890490E-05
6.183469E+03	3.327827E-03	3.880622E-05
6.193253E+03	3.319525E-03	3.870915E-05
6.203037E+03	3.311433E-03	3.861459E-05
6.212821E+03	3.303632E-03	3.852347E-05
6.222605E+03	3.296112E-03	3.843570E-05
6.232389E+03	3.289013E-03	3.835289E-05
6.242173E+03	3.282385E-03	3.827563E-05
6.251957E+03	3.276286E-03	3.820460E-05
6.261741E+03	3.270779E-03	3.814054E-05
6.271525E+03	3.266034E-03	3.808542E-05
6.281309E+03	3.262086E-03	3.803966E-05
6.291093E+03	3.259123E-03	3.800544E-05
6.300877E+03	3.257235E-03	3.798383E-05
6.310661E+03	3.256444E-03	3.797506E-05
6.320445E+03	3.256719E-03	3.797880E-05
6.330229E+03	3.257966E-03	3.799392E-05
6.340013E+03	3.260144E-03	3.801998E-05
6.349796E+03	3.263076E-03	3.805489E-05
6.359580E+03	3.266793E-03	3.809901E-05
6.369364E+03	3.271232E-03	3.815163E-05
6.379148E+03	3.276290E-03	3.821152E-05
6.388932E+03	3.281971E-03	3.827874E-05
6.398716E+03	3.288234E-03	3.835281E-05
6.408500E+03	3.295043E-03	3.843331E-05
6.418284E+03	3.302366E-03	3.851988E-05
6.428068E+03	3.310231E-03	3.861282E-05
6.437852E+03	3.318560E-03	3.871123E-05
6.447636E+03	3.327333E-03	3.881490E-05
6.457420E+03	3.336586E-03	3.892423E-05
6.467204E+03	3.346307E-03	3.903907E-05
6.476988E+03	3.356428E-03	3.915865E-05
6.486772E+03	3.366994E-03	3.928347E-05
6.496556E+03	3.377941E-03	3.941281E-05
6.506340E+03	3.389376E-03	3.954791E-05
6.516124E+03	3.401181E-03	3.968739E-05
6.525908E+03	3.413351E-03	3.983120E-05
6.535692E+03	3.425943E-03	3.997998E-05
6.545476E+03	3.438956E-03	4.013375E-05
6.555260E+03	3.452331E-03	4.029180E-05
6.565044E+03	3.466067E-03	4.045415E-05
6.574828E+03	3.480228E-03	4.062150E-05
6.584612E+03	3.494755E-03	4.079320E-05
6.594396E+03	3.509713E-03	4.097000E-05
6.604180E+03	3.524981E-03	4.115048E-05
6.613964E+03	3.540689E-03	4.133617E-05
6.623748E+03	3.556715E-03	4.152563E-05
6.633532E+03	3.573192E-03	4.172044E-05
6.643316E+03	3.589997E-03	4.191913E-05
6.653100E+03	3.607200E-03	4.212255E-05
6.662884E+03	3.624809E-03	4.233077E-05
6.672668E+03	3.642763E-03	4.254310E-05
6.682451E+03	3.661136E-03	4.276038E-05
6.692235E+03	3.679868E-03	4.298193E-05
6.702019E+03	3.699033E-03	4.320862E-05
6.711803E+03	3.718503E-03	4.343893E-05
6.721587E+03	3.738422E-03	4.367456E-05
6.731371E+03	3.758729E-03	4.391480E-05
6.741155E+03	3.779432E-03	4.415974E-05
6.750939E+03	3.800467E-03	4.440863E-05
6.760723E+03	3.821985E-03	4.466324E-05
6.770507E+03	3.843777E-03	4.492113E-05
6.780291E+03	3.866071E-03	4.518496E-05
6.790075E+03	3.888727E-03	4.545310E-05
6.799859E+03	3.911752E-03	4.572563E-05
6.809643E+03	3.935231E-03	4.600354E-05
6.819427E+03	3.959096E-03	4.628605E-05
6.829211E+03	3.983354E-03	4.657324E-05
6.838995E+03	4.008014E-03	4.686520E-05
6.848779E+03	4.033084E-03	4.716203E-05
6.858563E+03	4.058572E-03	4.746384E-05
6.868347E+03	4.084406E-03	4.776977E-05
6.878131E+03	4.110754E-03	4.808181E-05
6.887915E+03	4.137383E-03	4.839720E-05
6.897699E+03	4.164543E-03	4.871890E-05
6.907483E+03	4.191997E-03	4.904412E-05
6.917267E+03	4.219916E-03	4.937487E-05
6.927051E+03	4.248228E-03	4.971030E-05
6.936835E+03	4.276934E-03	5.005044E-05
6.946619E+03	4.306134E-03	5.039644E-05
6.956403E+03	4.335655E-03	5.074629E-05
6.966187E+03	4.365602E-03	5.110121E-05
6.975971E+03	4.395884E-03	5.146014E-05
6.985755E+03	4.426597E-03	5.182421E-05
6.995539E+03	4.457751E-03	5.219354E-05
7.005322E+03	4.489261E-03	5.256713E-05
7.015106E+03	4.521226E-03	5.294615E-05
7.024890E+03	4.553468E-03	5.332850E-05
7.034674E+03	4.586179E-03	5.371642E-05
7.044458E+03	4.619264E-03	5.410885E-05
7.054242E+03	4.652645E-03	5.450482E-05
7.064026E+03	4.686411E-03	5.490540E-05
7.073810E+03	4.720574E-03	5.531075E-05
7.083594E+03	4.755043E-03	5.571976E-05
7.093378E+03	4.789813E-03	5.613240E-05
7.103162E+03	4.824896E-03	5.654882E-05
7.112946E+03	4.860290E-03	5.696897E-05
7.122730E+03	4.895999E-03	5.739292E-05
7.132514E+03	4.931822E-03	5.781832E-05
7.142298E+03	4.967965E-03	5.824756E-05
7.152082E+03	5.004326E-03	5.867946E-05
7.161866E+03	5.040798E-03	5.911276E-05
7.171650E+03	5.077484E-03	5.954867E-05
7.181434E+03	5.114175E-03	5.998474E-05
7.191218E+03	5.150857E-03	6.042082E-05
7.201002E+03	5.187536E-03	6.085696E-05
7.210786E+03	5.224087E-03	6.129169E-05
7.220570E+03	5.260616E-03	6.172628E-05
7.230354E+03	5.296782E-03	6.215670E-05
7.240138E+03	5.332794E-03	6.258541E-05
7.249922E+03	5.368415E-03	6.300964E-05
7.259706E+03	5.403745E-03	6.343054E-05
7.269490E+03	5.438653E-03	6.384658E-05
7.279274E+03	5.473126E-03	6.425762E-05
7.289058E+03	5.507262E-03	6.466480E-05
7.298842E+03	5.540932E-03	6.506660E-05
7.308626E+03	5.574479E-03	6.546704E-05
7.318410E+03	5.607653E-03	6.586320E-05
7.328193E+03	5.640682E-03	6.625773E-05
7.337977E+03	5.673435E-03	6.664912E-05
7.347761E+03	5.706274E-03	6.704161E-05
7.357545E+03	5.739070E-03	6.743367E-05
7.367329E+03	5.771823E-03	6.782531E-05
7.377113E+03	5.804652E-03	6.821795E-05
7.386897E+03	5.837554E-03	6.861152E-05
7.396681E+03	5.870787E-03	6.900907E-05
7.406465E+03	5.904093E-03	6.940756E-05
7.416249E+03	5.937605E-03	6.980857E-05
7.426033E+03	5.971453E-03	7.021361E-05
7.435817E+03	6.005512E-03	7.062122E-05
7.445601E+03	6.039916E-03	7.103297E-05
7.455385E+03	6.074532E-03	7.144730E-05
7.465169E+03	6.109640E-03	7.186751E-05
7.474953E+03	6.144973E-03	7.229045E-05
7.484737E+03	6.180808E-03	7.271939E-05
7.494521E+03	6.216868E-03	7.315106E-05
7.504305E+03	6.253449E-03	7.358895E-05
7.514089E+03	6.290264E-03	7.402969E-05
7.523873E+03	6.327608E-03	7.447674E-05
7.533657E+03	6.365348E-03	7.492855E-05
7.543441E+03	6.403484E-03	7.538511E-05
7.553225E+03	6.442021E-03	7.584647E-05
7.563009E+03	6.480971E-03	7.631280E-05
7.572793E+03	6.520332E-03	7.678405E-05
7.582577E+03	6.559964E-03	7.725859E-05
7.592361E+03	6.600176E-03	7.774006E-05
