#wls	flux	fluxerr
1.565435E+03	1.090985E-03	3.488809E-05
1.604571E+03	1.126469E-03	3.599240E-05
1.643707E+03	1.161661E-03	3.708467E-05
1.682843E+03	1.196313E-03	3.815689E-05
1.721979E+03	1.230123E-03	3.919943E-05
1.761115E+03	1.262352E-03	4.018871E-05
1.800250E+03	1.291505E-03	4.107725E-05
1.839386E+03	1.316314E-03	4.182498E-05
1.878522E+03	1.335048E-03	4.237721E-05
1.917658E+03	1.346303E-03	4.269003E-05
1.956794E+03	1.349929E-03	4.275930E-05
1.995930E+03	1.348776E-03	4.267603E-05
2.035066E+03	1.349785E-03	4.265997E-05
2.074202E+03	1.363406E-03	4.304082E-05
2.113338E+03	1.400240E-03	4.415141E-05
2.152473E+03	1.465402E-03	4.615008E-05
2.191609E+03	1.556768E-03	4.896662E-05
2.230745E+03	1.667239E-03	5.237460E-05
2.269881E+03	1.788699E-03	5.611683E-05
2.309017E+03	1.914877E-03	5.999507E-05
2.348153E+03	2.041985E-03	6.388980E-05
2.387289E+03	2.168251E-03	6.774516E-05
2.426425E+03	2.293514E-03	7.155580E-05
2.465560E+03	2.418067E-03	7.533060E-05
2.504696E+03	2.542738E-03	7.909492E-05
2.543832E+03	2.668177E-03	8.286860E-05
2.582968E+03	2.795133E-03	8.667423E-05
2.622104E+03	2.924101E-03	9.052650E-05
2.661240E+03	3.055501E-03	9.443762E-05
2.700376E+03	3.189676E-03	9.841731E-05
2.739512E+03	3.326797E-03	1.024699E-04
2.778647E+03	3.466972E-03	1.065978E-04
2.817783E+03	3.610447E-03	1.108074E-04
2.856919E+03	3.757221E-03	1.150977E-04
2.896055E+03	3.907724E-03	1.194807E-04
2.935191E+03	4.062056E-03	1.239582E-04
2.944975E+03	4.101382E-03	1.250966E-04
2.954759E+03	4.140911E-03	1.262396E-04
2.964543E+03	4.180637E-03	1.273872E-04
2.974327E+03	4.220788E-03	1.285462E-04
2.984111E+03	4.261430E-03	1.297186E-04
2.993895E+03	4.302734E-03	1.309096E-04
3.003679E+03	4.344733E-03	1.321201E-04
3.013463E+03	4.387284E-03	1.333458E-04
3.023247E+03	4.430337E-03	1.345850E-04
3.033031E+03	4.474033E-03	1.358421E-04
3.042815E+03	4.518140E-03	1.371099E-04
3.052599E+03	4.562715E-03	1.383902E-04
3.062383E+03	4.607628E-03	1.396789E-04
3.072167E+03	4.653115E-03	1.409833E-04
3.081951E+03	4.698876E-03	1.422942E-04
3.091735E+03	4.744966E-03	1.436131E-04
3.101518E+03	4.791450E-03	1.449421E-04
3.111302E+03	4.838300E-03	1.462804E-04
3.121086E+03	4.885310E-03	1.476215E-04
3.130870E+03	4.932731E-03	1.489731E-04
3.140654E+03	4.980356E-03	1.503289E-04
3.150438E+03	5.028256E-03	1.516911E-04
3.160222E+03	5.076329E-03	1.530565E-04
3.170006E+03	5.124642E-03	1.544271E-04
3.179790E+03	5.173177E-03	1.558024E-04
3.189574E+03	5.221921E-03	1.571819E-04
3.199358E+03	5.270774E-03	1.585626E-04
3.209142E+03	5.319811E-03	1.599468E-04
3.218926E+03	5.369017E-03	1.613340E-04
3.228710E+03	5.418295E-03	1.627212E-04
3.238494E+03	5.467726E-03	1.641109E-04
3.248278E+03	5.517208E-03	1.655000E-04
3.258062E+03	5.566826E-03	1.668910E-04
3.267846E+03	5.616482E-03	1.682810E-04
3.277630E+03	5.666168E-03	1.696697E-04
3.287414E+03	5.715880E-03	1.710570E-04
3.297198E+03	5.765616E-03	1.724427E-04
3.306982E+03	5.815367E-03	1.738267E-04
3.316766E+03	5.865045E-03	1.752063E-04
3.326550E+03	5.914735E-03	1.765839E-04
3.336334E+03	5.964256E-03	1.779543E-04
3.346118E+03	6.013786E-03	1.793227E-04
3.355902E+03	6.063146E-03	1.806838E-04
3.365686E+03	6.112341E-03	1.820376E-04
3.375470E+03	6.161371E-03	1.833843E-04
3.385254E+03	6.210150E-03	1.847212E-04
3.395038E+03	6.258759E-03	1.860507E-04
3.404822E+03	6.307128E-03	1.873708E-04
3.414606E+03	6.355164E-03	1.886788E-04
3.424389E+03	6.402877E-03	1.899749E-04
3.434173E+03	6.450187E-03	1.912567E-04
3.443957E+03	6.497180E-03	1.925268E-04
3.453741E+03	6.543616E-03	1.937782E-04
3.463525E+03	6.589583E-03	1.950133E-04
3.473309E+03	6.635007E-03	1.962302E-04
3.483093E+03	6.679889E-03	1.974288E-04
3.492877E+03	6.724084E-03	1.986049E-04
3.502661E+03	6.767516E-03	1.997561E-04
3.512445E+03	6.810277E-03	2.008854E-04
3.522229E+03	6.852136E-03	2.019859E-04
3.532013E+03	6.893187E-03	2.030605E-04
3.541797E+03	6.933362E-03	2.041071E-04
3.551581E+03	6.972514E-03	2.051215E-04
3.561365E+03	7.010579E-03	2.061019E-04
3.571149E+03	7.047575E-03	2.070487E-04
3.580933E+03	7.083360E-03	2.079581E-04
3.590717E+03	7.118026E-03	2.088326E-04
3.600501E+03	7.151362E-03	2.096663E-04
3.610285E+03	7.183383E-03	2.104595E-04
3.620069E+03	7.214034E-03	2.112107E-04
3.629853E+03	7.243333E-03	2.119206E-04
3.639637E+03	7.271142E-03	2.125852E-04
3.649421E+03	7.297491E-03	2.132055E-04
3.659205E+03	7.322318E-03	2.137797E-04
3.668989E+03	7.345648E-03	2.143087E-04
3.678773E+03	7.367421E-03	2.147908E-04
3.688557E+03	7.387665E-03	2.152269E-04
3.698341E+03	7.406325E-03	2.156155E-04
3.708125E+03	7.423350E-03	2.159552E-04
3.717909E+03	7.438908E-03	2.162510E-04
3.727693E+03	7.452799E-03	2.164972E-04
3.737477E+03	7.465119E-03	2.166967E-04
3.747260E+03	7.475964E-03	2.168524E-04
3.757044E+03	7.485204E-03	2.169605E-04
3.766828E+03	7.492867E-03	2.170220E-04
3.776612E+03	7.499044E-03	2.170397E-04
3.786396E+03	7.503754E-03	2.170141E-04
3.796180E+03	7.507016E-03	2.169460E-04
3.805964E+03	7.508780E-03	2.168340E-04
3.815748E+03	7.509136E-03	2.166808E-04
3.825532E+03	7.508105E-03	2.164870E-04
3.835316E+03	7.505700E-03	2.162532E-04
3.845100E+03	7.501946E-03	2.159802E-04
3.854884E+03	7.496855E-03	2.156683E-04
3.864668E+03	7.490515E-03	2.153203E-04
3.874452E+03	7.482942E-03	2.149367E-04
3.884236E+03	7.474086E-03	2.145161E-04
3.894020E+03	7.464101E-03	2.140630E-04
3.903804E+03	7.452930E-03	2.135759E-04
3.913588E+03	7.440653E-03	2.130571E-04
3.923372E+03	7.427290E-03	2.125074E-04
3.933156E+03	7.412787E-03	2.119252E-04
3.942940E+03	7.397287E-03	2.113147E-04
3.952724E+03	7.380742E-03	2.106747E-04
3.962508E+03	7.363230E-03	2.100073E-04
3.972292E+03	7.344759E-03	2.093131E-04
3.982076E+03	7.325345E-03	2.085923E-04
3.991860E+03	7.304997E-03	2.078454E-04
4.001644E+03	7.283794E-03	2.070748E-04
4.011428E+03	7.261678E-03	2.062787E-04
4.021212E+03	7.238664E-03	2.054578E-04
4.030996E+03	7.214889E-03	2.046160E-04
4.040780E+03	7.190233E-03	2.037498E-04
4.050564E+03	7.164778E-03	2.028619E-04
4.060348E+03	7.138523E-03	2.019520E-04
4.070131E+03	7.111482E-03	2.010208E-04
4.079915E+03	7.083663E-03	2.000686E-04
4.089699E+03	7.055080E-03	1.990957E-04
4.099483E+03	7.025737E-03	1.981023E-04
4.109267E+03	6.995647E-03	1.970890E-04
4.119051E+03	6.964816E-03	1.960558E-04
4.128835E+03	6.933248E-03	1.950030E-04
4.138619E+03	6.900901E-03	1.939296E-04
4.148403E+03	6.867780E-03	1.928356E-04
4.158187E+03	6.833958E-03	1.917231E-04
4.167971E+03	6.799433E-03	1.905923E-04
4.177755E+03	6.764109E-03	1.894405E-04
4.187539E+03	6.728045E-03	1.882693E-04
4.197323E+03	6.691253E-03	1.870793E-04
4.207107E+03	6.653744E-03	1.858706E-04
4.216891E+03	6.615526E-03	1.846438E-04
4.226675E+03	6.576553E-03	1.833975E-04
4.236459E+03	6.536948E-03	1.821351E-04
4.246243E+03	6.496604E-03	1.808539E-04
4.256027E+03	6.455651E-03	1.795575E-04
4.265811E+03	6.414097E-03	1.782461E-04
4.275595E+03	6.372004E-03	1.769215E-04
4.285379E+03	6.329389E-03	1.755843E-04
4.295163E+03	6.286308E-03	1.742360E-04
4.304947E+03	6.242781E-03	1.728773E-04
4.314731E+03	6.198917E-03	1.715113E-04
4.324515E+03	6.154732E-03	1.701383E-04
4.334299E+03	6.110231E-03	1.687585E-04
4.344083E+03	6.065538E-03	1.673755E-04
4.353867E+03	6.020658E-03	1.659893E-04
4.363651E+03	5.975648E-03	1.646017E-04
4.373435E+03	5.930636E-03	1.632161E-04
4.383219E+03	5.885568E-03	1.618310E-04
4.393003E+03	5.840563E-03	1.604497E-04
4.402786E+03	5.795681E-03	1.590739E-04
4.412570E+03	5.750931E-03	1.577039E-04
4.422354E+03	5.706376E-03	1.563412E-04
4.432138E+03	5.662079E-03	1.549878E-04
4.441922E+03	5.618096E-03	1.536451E-04
4.451706E+03	5.574498E-03	1.523149E-04
4.461490E+03	5.531283E-03	1.509974E-04
4.471274E+03	5.488472E-03	1.496929E-04
4.481058E+03	5.446223E-03	1.484058E-04
4.490842E+03	5.404505E-03	1.471353E-04
4.500626E+03	5.363320E-03	1.458812E-04
4.510410E+03	5.322793E-03	1.446471E-04
4.520194E+03	5.282983E-03	1.434344E-04
4.529978E+03	5.243807E-03	1.422409E-04
4.539762E+03	5.205480E-03	1.410723E-04
4.549546E+03	5.167872E-03	1.399251E-04
4.559330E+03	5.131154E-03	1.388039E-04
4.569114E+03	5.095338E-03	1.377089E-04
4.578898E+03	5.060454E-03	1.366409E-04
4.588682E+03	5.026521E-03	1.356003E-04
4.598466E+03	4.993570E-03	1.345878E-04
4.608250E+03	4.961715E-03	1.336066E-04
4.618034E+03	4.930948E-03	1.326563E-04
4.627818E+03	4.901294E-03	1.317375E-04
4.637602E+03	4.872838E-03	1.308524E-04
4.647386E+03	4.845514E-03	1.299992E-04
4.657170E+03	4.819505E-03	1.291826E-04
4.666954E+03	4.794704E-03	1.283998E-04
4.676738E+03	4.771246E-03	1.276542E-04
4.686522E+03	4.749169E-03	1.269467E-04
4.696306E+03	4.728406E-03	1.262755E-04
4.706090E+03	4.709027E-03	1.256423E-04
4.715874E+03	4.691067E-03	1.250480E-04
4.725657E+03	4.674385E-03	1.244887E-04
4.735441E+03	4.658972E-03	1.239640E-04
4.745225E+03	4.644769E-03	1.234723E-04
4.755009E+03	4.631672E-03	1.230108E-04
4.764793E+03	4.619628E-03	1.225780E-04
4.774577E+03	4.608625E-03	1.221733E-04
4.784361E+03	4.598574E-03	1.217946E-04
4.794145E+03	4.589467E-03	1.214413E-04
4.803929E+03	4.581167E-03	1.211099E-04
4.813713E+03	4.573686E-03	1.208007E-04
4.823497E+03	4.566984E-03	1.205124E-04
4.833281E+03	4.560979E-03	1.202429E-04
4.843065E+03	4.555689E-03	1.199926E-04
4.852849E+03	4.551031E-03	1.197593E-04
4.862633E+03	4.547035E-03	1.195437E-04
4.872417E+03	4.543624E-03	1.193438E-04
4.882201E+03	4.540774E-03	1.191588E-04
4.891985E+03	4.538424E-03	1.189871E-04
4.901769E+03	4.536648E-03	1.188307E-04
4.911553E+03	4.535336E-03	1.186866E-04
4.921337E+03	4.534474E-03	1.185544E-04
4.931121E+03	4.534093E-03	1.184349E-04
4.940905E+03	4.534137E-03	1.183267E-04
4.950689E+03	4.534595E-03	1.182293E-04
4.960473E+03	4.535459E-03	1.181426E-04
4.970257E+03	4.536718E-03	1.180662E-04
4.980041E+03	4.538327E-03	1.179990E-04
4.989825E+03	4.540271E-03	1.179405E-04
4.999609E+03	4.542600E-03	1.178920E-04
5.009393E+03	4.545207E-03	1.178507E-04
5.019177E+03	4.548193E-03	1.178193E-04
5.028961E+03	4.551410E-03	1.177938E-04
5.038745E+03	4.554949E-03	1.177766E-04
5.048528E+03	4.558767E-03	1.177665E-04
5.058312E+03	4.562859E-03	1.177635E-04
5.068096E+03	4.567226E-03	1.177676E-04
5.077880E+03	4.571825E-03	1.177776E-04
5.087664E+03	4.576657E-03	1.177934E-04
5.097448E+03	4.581671E-03	1.178139E-04
5.107232E+03	4.586969E-03	1.178417E-04
5.117016E+03	4.592410E-03	1.178730E-04
5.126800E+03	4.598042E-03	1.179091E-04
5.136584E+03	4.603868E-03	1.179501E-04
5.146368E+03	4.609894E-03	1.179962E-04
5.156152E+03	4.616025E-03	1.180448E-04
5.165936E+03	4.622317E-03	1.180974E-04
5.175720E+03	4.628719E-03	1.181528E-04
5.185504E+03	4.635240E-03	1.182112E-04
5.195288E+03	4.641837E-03	1.182713E-04
5.205072E+03	4.648554E-03	1.183345E-04
5.214856E+03	4.655310E-03	1.183985E-04
5.224640E+03	4.662104E-03	1.184635E-04
5.234424E+03	4.668891E-03	1.185283E-04
5.244208E+03	4.675726E-03	1.185941E-04
5.253992E+03	4.682467E-03	1.186576E-04
5.263776E+03	4.689163E-03	1.187199E-04
5.273560E+03	4.695779E-03	1.187801E-04
5.283344E+03	4.702267E-03	1.188371E-04
5.293128E+03	4.708484E-03	1.188873E-04
5.302912E+03	4.714388E-03	1.189296E-04
5.312696E+03	4.719936E-03	1.189630E-04
5.322480E+03	4.724895E-03	1.189816E-04
5.332264E+03	4.729208E-03	1.189842E-04
5.342048E+03	4.732701E-03	1.189662E-04
5.351832E+03	4.735265E-03	1.189252E-04
5.361616E+03	4.737051E-03	1.188648E-04
5.371399E+03	4.738009E-03	1.187841E-04
5.381183E+03	4.738283E-03	1.186865E-04
5.390967E+03	4.737916E-03	1.185734E-04
5.400751E+03	4.737104E-03	1.184495E-04
5.410535E+03	4.735797E-03	1.183137E-04
5.420319E+03	4.734089E-03	1.181684E-04
5.430103E+03	4.731978E-03	1.180136E-04
5.439887E+03	4.729614E-03	1.178531E-04
5.449671E+03	4.726939E-03	1.176854E-04
5.459455E+03	4.724009E-03	1.175119E-04
5.469239E+03	4.720819E-03	1.173327E-04
5.479023E+03	4.717466E-03	1.171501E-04
5.488807E+03	4.713900E-03	1.169628E-04
5.498591E+03	4.710166E-03	1.167721E-04
5.508375E+03	4.706316E-03	1.165792E-04
5.518159E+03	4.702346E-03	1.163840E-04
5.527943E+03	4.698304E-03	1.161879E-04
5.537727E+03	4.694140E-03	1.159895E-04
5.547511E+03	4.689901E-03	1.157900E-04
5.557295E+03	4.685634E-03	1.155907E-04
5.567079E+03	4.681338E-03	1.153915E-04
5.576863E+03	4.677011E-03	1.151923E-04
5.586647E+03	4.672652E-03	1.149932E-04
5.596431E+03	4.668356E-03	1.147965E-04
5.606215E+03	4.664024E-03	1.145998E-04
5.615999E+03	4.659752E-03	1.144055E-04
5.625783E+03	4.655538E-03	1.142135E-04
5.635567E+03	4.651330E-03	1.140225E-04
5.645351E+03	4.647177E-03	1.138339E-04
5.655135E+03	4.643126E-03	1.136487E-04
5.664919E+03	4.639124E-03	1.134656E-04
5.674703E+03	4.635169E-03	1.132847E-04
5.684487E+03	4.631360E-03	1.131083E-04
5.694271E+03	4.627592E-03	1.129339E-04
5.704054E+03	4.623915E-03	1.127628E-04
5.713838E+03	4.620325E-03	1.125947E-04
5.723622E+03	4.616819E-03	1.124298E-04
5.733406E+03	4.613447E-03	1.122692E-04
5.743190E+03	4.610103E-03	1.121104E-04
5.752974E+03	4.606886E-03	1.119557E-04
5.762758E+03	4.603743E-03	1.118039E-04
5.772542E+03	4.600670E-03	1.116549E-04
5.782326E+03	4.597663E-03	1.115087E-04
5.792110E+03	4.594721E-03	1.113652E-04
5.801894E+03	4.591891E-03	1.112256E-04
5.811678E+03	4.589067E-03	1.110872E-04
5.821462E+03	4.586243E-03	1.109501E-04
5.831246E+03	4.583470E-03	1.108154E-04
5.841030E+03	4.580743E-03	1.106831E-04
5.850814E+03	4.577953E-03	1.105505E-04
5.860598E+03	4.575202E-03	1.104201E-04
5.870382E+03	4.572327E-03	1.102880E-04
5.880166E+03	4.569483E-03	1.101580E-04
5.889950E+03	4.566506E-03	1.100261E-04
5.899734E+03	4.563391E-03	1.098922E-04
5.909518E+03	4.560187E-03	1.097576E-04
5.919302E+03	4.556835E-03	1.096209E-04
5.929086E+03	4.553331E-03	1.094819E-04
5.938870E+03	4.549563E-03	1.093380E-04
5.948654E+03	4.545632E-03	1.091917E-04
5.958438E+03	4.541372E-03	1.090389E-04
5.968222E+03	4.536885E-03	1.088823E-04
5.978006E+03	4.532114E-03	1.087204E-04
5.987790E+03	4.526997E-03	1.085518E-04
5.997574E+03	4.521530E-03	1.083764E-04
6.007358E+03	4.515764E-03	1.081954E-04
6.017142E+03	4.509640E-03	1.080076E-04
6.026925E+03	4.503154E-03	1.078128E-04
6.036709E+03	4.496418E-03	1.076136E-04
6.046493E+03	4.489314E-03	1.074074E-04
6.056277E+03	4.481901E-03	1.071956E-04
6.066061E+03	4.474234E-03	1.069794E-04
6.075845E+03	4.466372E-03	1.067604E-04
6.085629E+03	4.458261E-03	1.065373E-04
6.095413E+03	4.449904E-03	1.063101E-04
6.105197E+03	4.441365E-03	1.060804E-04
6.114981E+03	4.432594E-03	1.058470E-04
6.124765E+03	4.423655E-03	1.056115E-04
6.134549E+03	4.414561E-03	1.053741E-04
6.144333E+03	4.405383E-03	1.051367E-04
6.154117E+03	4.396137E-03	1.048996E-04
6.163901E+03	4.386841E-03	1.046632E-04
6.173685E+03	4.377577E-03	1.044296E-04
6.183469E+03	4.368430E-03	1.042006E-04
6.193253E+03	4.359371E-03	1.039758E-04
6.203037E+03	4.350492E-03	1.037572E-04
6.212821E+03	4.341894E-03	1.035474E-04
6.222605E+03	4.333561E-03	1.033459E-04
6.232389E+03	4.325668E-03	1.031569E-04
6.242173E+03	4.318273E-03	1.029818E-04
6.251957E+03	4.311447E-03	1.028223E-04
6.261741E+03	4.305268E-03	1.026803E-04
6.271525E+03	4.299953E-03	1.025610E-04
6.281309E+03	4.295543E-03	1.024654E-04
6.291093E+03	4.292282E-03	1.023994E-04
6.300877E+03	4.290287E-03	1.023656E-04
6.310661E+03	4.289582E-03	1.023649E-04
6.320445E+03	4.290136E-03	1.023964E-04
6.330229E+03	4.291824E-03	1.024571E-04
6.340013E+03	4.294601E-03	1.025461E-04
6.349796E+03	4.298236E-03	1.026577E-04
6.359580E+03	4.302778E-03	1.027931E-04
6.369364E+03	4.308153E-03	1.029506E-04
6.379148E+03	4.314230E-03	1.031270E-04
6.388932E+03	4.321020E-03	1.033227E-04
6.398716E+03	4.328477E-03	1.035364E-04
6.408500E+03	4.336559E-03	1.037671E-04
6.418284E+03	4.345230E-03	1.040142E-04
6.428068E+03	4.354530E-03	1.042784E-04
6.437852E+03	4.364361E-03	1.045574E-04
6.447636E+03	4.374703E-03	1.048508E-04
6.457420E+03	4.385606E-03	1.051598E-04
6.467204E+03	4.397057E-03	1.054840E-04
6.476988E+03	4.408969E-03	1.058214E-04
6.486772E+03	4.421407E-03	1.061736E-04
6.496556E+03	4.434287E-03	1.065385E-04
6.506340E+03	4.447753E-03	1.069196E-04
6.516124E+03	4.461653E-03	1.073133E-04
6.525908E+03	4.475981E-03	1.077194E-04
6.535692E+03	4.490814E-03	1.081398E-04
6.545476E+03	4.506154E-03	1.085745E-04
6.555260E+03	4.521923E-03	1.090217E-04
6.565044E+03	4.538124E-03	1.094814E-04
6.574828E+03	4.554838E-03	1.099557E-04
6.584612E+03	4.571992E-03	1.104428E-04
6.594396E+03	4.589672E-03	1.109447E-04
6.604180E+03	4.607720E-03	1.114578E-04
6.613964E+03	4.626307E-03	1.119860E-04
6.623748E+03	4.645275E-03	1.125256E-04
6.633532E+03	4.664797E-03	1.130808E-04
6.643316E+03	4.684713E-03	1.136479E-04
6.653100E+03	4.705116E-03	1.142289E-04
6.662884E+03	4.726016E-03	1.148242E-04
6.672668E+03	4.747335E-03	1.154320E-04
6.682451E+03	4.769168E-03	1.160544E-04
6.692235E+03	4.791438E-03	1.166898E-04
6.702019E+03	4.814243E-03	1.173405E-04
6.711803E+03	4.837414E-03	1.180024E-04
6.721587E+03	4.861140E-03	1.186801E-04
6.731371E+03	4.885341E-03	1.193717E-04
6.741155E+03	4.910027E-03	1.200775E-04
6.750939E+03	4.935116E-03	1.207954E-04
6.760723E+03	4.960805E-03	1.215304E-04
6.770507E+03	4.986820E-03	1.222758E-04
6.780291E+03	5.013458E-03	1.230388E-04
6.790075E+03	5.040537E-03	1.238150E-04
6.799859E+03	5.068067E-03	1.246047E-04
6.809643E+03	5.096156E-03	1.254106E-04
6.819427E+03	5.124717E-03	1.262305E-04
6.829211E+03	5.153759E-03	1.270647E-04
6.838995E+03	5.183291E-03	1.279135E-04
6.848779E+03	5.213326E-03	1.287772E-04
6.858563E+03	5.243876E-03	1.296560E-04
6.868347E+03	5.274841E-03	1.305477E-04
6.878131E+03	5.306441E-03	1.314577E-04
6.887915E+03	5.338376E-03	1.323785E-04
6.897699E+03	5.370966E-03	1.333181E-04
6.907483E+03	5.403908E-03	1.342690E-04
6.917267E+03	5.437424E-03	1.352369E-04
6.927051E+03	5.471410E-03	1.362190E-04
6.936835E+03	5.505878E-03	1.372158E-04
6.946619E+03	5.540948E-03	1.382302E-04
6.956403E+03	5.576412E-03	1.392572E-04
6.966187E+03	5.612379E-03	1.402994E-04
6.975971E+03	5.648752E-03	1.413545E-04
6.985755E+03	5.685656E-03	1.424256E-04
6.995539E+03	5.723090E-03	1.435128E-04
7.005322E+03	5.760951E-03	1.446134E-04
7.015106E+03	5.799365E-03	1.457307E-04
7.024890E+03	5.838098E-03	1.468588E-04
7.034674E+03	5.877404E-03	1.480041E-04
7.044458E+03	5.917160E-03	1.491636E-04
7.054242E+03	5.957256E-03	1.503346E-04
7.064026E+03	5.997824E-03	1.515202E-04
7.073810E+03	6.038862E-03	1.527207E-04
7.083594E+03	6.080257E-03	1.539331E-04
7.093378E+03	6.122009E-03	1.551574E-04
7.103162E+03	6.164124E-03	1.563938E-04
7.112946E+03	6.206601E-03	1.576424E-04
7.122730E+03	6.249452E-03	1.589033E-04
7.132514E+03	6.292416E-03	1.601701E-04
7.142298E+03	6.335753E-03	1.614493E-04
7.152082E+03	6.379333E-03	1.627377E-04
7.161866E+03	6.423021E-03	1.640317E-04
7.171650E+03	6.466953E-03	1.653350E-04
7.181434E+03	6.510851E-03	1.666402E-04
7.191218E+03	6.554716E-03	1.679476E-04
7.201002E+03	6.598531E-03	1.692566E-04
7.210786E+03	6.642156E-03	1.705636E-04
7.220570E+03	6.685721E-03	1.718720E-04
7.230354E+03	6.728791E-03	1.731704E-04
7.240138E+03	6.771632E-03	1.744658E-04
7.249922E+03	6.813947E-03	1.757504E-04
7.259706E+03	6.855865E-03	1.770275E-04
7.269490E+03	6.897213E-03	1.782926E-04
7.279274E+03	6.937980E-03	1.795453E-04
7.289058E+03	6.978297E-03	1.807889E-04
7.298842E+03	7.017989E-03	1.820189E-04
7.308626E+03	7.057496E-03	1.832466E-04
7.318410E+03	7.096504E-03	1.844639E-04
7.328193E+03	7.135300E-03	1.856780E-04
7.337977E+03	7.173722E-03	1.868849E-04
7.347761E+03	7.212225E-03	1.880962E-04
7.357545E+03	7.250646E-03	1.893078E-04
7.367329E+03	7.288986E-03	1.905197E-04
7.377113E+03	7.327391E-03	1.917355E-04
7.386897E+03	7.365866E-03	1.929555E-04
7.396681E+03	7.404732E-03	1.941881E-04
7.406465E+03	7.443663E-03	1.954247E-04
7.416249E+03	7.482827E-03	1.966697E-04
7.426033E+03	7.522387E-03	1.979275E-04
7.435817E+03	7.562181E-03	1.991937E-04
7.445601E+03	7.602386E-03	2.004730E-04
7.455385E+03	7.642831E-03	2.017610E-04
7.465169E+03	7.683866E-03	2.030669E-04
7.474953E+03	7.725151E-03	2.043818E-04
7.484737E+03	7.767039E-03	2.057149E-04
7.494521E+03	7.809191E-03	2.070574E-04
7.504305E+03	7.851957E-03	2.084184E-04
7.514089E+03	7.894989E-03	2.097890E-04
7.523873E+03	7.938660E-03	2.111788E-04
7.533657E+03	7.982792E-03	2.125834E-04
7.543441E+03	8.027391E-03	2.140027E-04
7.553225E+03	8.072461E-03	2.154370E-04
7.563009E+03	8.118019E-03	2.168868E-04
7.572793E+03	8.164060E-03	2.183519E-04
7.582577E+03	8.210409E-03	2.198276E-04
7.592361E+03	8.257447E-03	2.213243E-04
