#wls	flux	fluxerr
1.565435E+03	1.284175E-03	1.508861E-05
1.604571E+03	1.297558E-03	1.523239E-05
1.643707E+03	1.308102E-03	1.534226E-05
1.682843E+03	1.316109E-03	1.542180E-05
1.721979E+03	1.321069E-03	1.546513E-05
1.761115E+03	1.322645E-03	1.546841E-05
1.800250E+03	1.319361E-03	1.541448E-05
1.839386E+03	1.310713E-03	1.529762E-05
1.878522E+03	1.295522E-03	1.510431E-05
1.917658E+03	1.273074E-03	1.482645E-05
1.956794E+03	1.244410E-03	1.447646E-05
1.995930E+03	1.212678E-03	1.409117E-05
2.035066E+03	1.184840E-03	1.375154E-05
2.074202E+03	1.169947E-03	1.356234E-05
2.113338E+03	1.176542E-03	1.362194E-05
2.152473E+03	1.208333E-03	1.397231E-05
2.191609E+03	1.262287E-03	1.457726E-05
2.230745E+03	1.332438E-03	1.536690E-05
2.269881E+03	1.411636E-03	1.625808E-05
2.309017E+03	1.494985E-03	1.719396E-05
2.348153E+03	1.579005E-03	1.813426E-05
2.387289E+03	1.662256E-03	1.906234E-05
2.426425E+03	1.744316E-03	1.997329E-05
2.465560E+03	1.825297E-03	2.086837E-05
2.504696E+03	1.905546E-03	2.175146E-05
2.543832E+03	1.985223E-03	2.262432E-05
2.582968E+03	2.064717E-03	2.349132E-05
2.622104E+03	2.144374E-03	2.435625E-05
2.661240E+03	2.225003E-03	2.522821E-05
2.700376E+03	2.306590E-03	2.610683E-05
2.739512E+03	2.389851E-03	2.700004E-05
2.778647E+03	2.474670E-03	2.790631E-05
2.817783E+03	2.560885E-03	2.882357E-05
2.856919E+03	2.648020E-03	2.974628E-05
2.896055E+03	2.735837E-03	3.067157E-05
2.935191E+03	2.824344E-03	3.159934E-05
2.944975E+03	2.846756E-03	3.183363E-05
2.954759E+03	2.869091E-03	3.206673E-05
2.964543E+03	2.891622E-03	3.230166E-05
2.974327E+03	2.914106E-03	3.253573E-05
2.984111E+03	2.936931E-03	3.277325E-05
2.993895E+03	2.960216E-03	3.301555E-05
3.003679E+03	2.983652E-03	3.325915E-05
3.013463E+03	3.007477E-03	3.350673E-05
3.023247E+03	3.031662E-03	3.375794E-05
3.033031E+03	3.055904E-03	3.400941E-05
3.042815E+03	3.080725E-03	3.426693E-05
3.052599E+03	3.105553E-03	3.452414E-05
3.062383E+03	3.130916E-03	3.478689E-05
3.072167E+03	3.156242E-03	3.504882E-05
3.081951E+03	3.182065E-03	3.531587E-05
3.091735E+03	3.208091E-03	3.558475E-05
3.101518E+03	3.234306E-03	3.585531E-05
3.111302E+03	3.260972E-03	3.613043E-05
3.121086E+03	3.287799E-03	3.640690E-05
3.130870E+03	3.315053E-03	3.668767E-05
3.140654E+03	3.342448E-03	3.696954E-05
3.150438E+03	3.370526E-03	3.725851E-05
3.160222E+03	3.398726E-03	3.754836E-05
3.170006E+03	3.427317E-03	3.784207E-05
3.179790E+03	3.456568E-03	3.814259E-05
3.189574E+03	3.486198E-03	3.844679E-05
3.199358E+03	3.516199E-03	3.875460E-05
3.209142E+03	3.547120E-03	3.907204E-05
3.218926E+03	3.578404E-03	3.939296E-05
3.228710E+03	3.610323E-03	3.972033E-05
3.238494E+03	3.642871E-03	4.005410E-05
3.248278E+03	3.676324E-03	4.039725E-05
3.258062E+03	3.710675E-03	4.074970E-05
3.267846E+03	3.745645E-03	4.110838E-05
3.277630E+03	3.781785E-03	4.147928E-05
3.287414E+03	3.819089E-03	4.186235E-05
3.297198E+03	3.857277E-03	4.225447E-05
3.306982E+03	3.896623E-03	4.265861E-05
3.316766E+03	3.937397E-03	4.307773E-05
3.326550E+03	3.979595E-03	4.351172E-05
3.336334E+03	4.022937E-03	4.395751E-05
3.346118E+03	4.068245E-03	4.442402E-05
3.355902E+03	4.114960E-03	4.490513E-05
3.365686E+03	4.163627E-03	4.540674E-05
3.375470E+03	4.214239E-03	4.592874E-05
3.385254E+03	4.267062E-03	4.647396E-05
3.395038E+03	4.321815E-03	4.703929E-05
3.404822E+03	4.379035E-03	4.763055E-05
3.414606E+03	4.438712E-03	4.824755E-05
3.424389E+03	4.500835E-03	4.889012E-05
3.434173E+03	4.565666E-03	4.956103E-05
3.443957E+03	4.633464E-03	5.026305E-05
3.453741E+03	4.704214E-03	5.099592E-05
3.463525E+03	4.777901E-03	5.175943E-05
3.473309E+03	4.854781E-03	5.255627E-05
3.483093E+03	4.934563E-03	5.338321E-05
3.492877E+03	5.017775E-03	5.424588E-05
3.502661E+03	5.103852E-03	5.513811E-05
3.512445E+03	5.192775E-03	5.605961E-05
3.522229E+03	5.284795E-03	5.701302E-05
3.532013E+03	5.379890E-03	5.799802E-05
3.541797E+03	5.477499E-03	5.900849E-05
3.551581E+03	5.578138E-03	6.004992E-05
3.561365E+03	5.681246E-03	6.111618E-05
3.571149E+03	5.787067E-03	6.220986E-05
3.580933E+03	5.895308E-03	6.332772E-05
3.590717E+03	6.006214E-03	6.447232E-05
3.600501E+03	6.119224E-03	6.563758E-05
3.610285E+03	6.234572E-03	6.682594E-05
3.620069E+03	6.352239E-03	6.803715E-05
3.629853E+03	6.472199E-03	6.927084E-05
3.639637E+03	6.593880E-03	7.052085E-05
3.649421E+03	6.717790E-03	7.179254E-05
3.659205E+03	6.843371E-03	7.307990E-05
3.668989E+03	6.970587E-03	7.438250E-05
3.678773E+03	7.099679E-03	7.570284E-05
3.688557E+03	7.230073E-03	7.703476E-05
3.698341E+03	7.362015E-03	7.838084E-05
3.708125E+03	7.495201E-03	7.973779E-05
3.717909E+03	7.629594E-03	8.110518E-05
3.727693E+03	7.764902E-03	8.247986E-05
3.737477E+03	7.901350E-03	8.386419E-05
3.747260E+03	8.038376E-03	8.525217E-05
3.757044E+03	8.176204E-03	8.664615E-05
3.766828E+03	8.314798E-03	8.804572E-05
3.776612E+03	8.453604E-03	8.944498E-05
3.786396E+03	8.592830E-03	9.084611E-05
3.796180E+03	8.732189E-03	9.224608E-05
3.805964E+03	8.871380E-03	9.364167E-05
3.815748E+03	9.010619E-03	9.503516E-05
3.825532E+03	9.149601E-03	9.642335E-05
3.835316E+03	9.288293E-03	9.780585E-05
3.845100E+03	9.426394E-03	9.917951E-05
3.854884E+03	9.563861E-03	1.005439E-04
3.864668E+03	9.700400E-03	1.018959E-04
3.874452E+03	9.836213E-03	1.032376E-04
3.884236E+03	9.970757E-03	1.045635E-04
3.894020E+03	1.010399E-02	1.058729E-04
3.903804E+03	1.023611E-02	1.071682E-04
3.911908E+03	1.103677E-02	1.154710E-04
3.914146E+03	1.166772E-02	1.220489E-04
3.916384E+03	1.211115E-02	1.266631E-04
3.918623E+03	1.252163E-02	1.309310E-04
3.920860E+03	1.297592E-02	1.356552E-04
3.923099E+03	1.327578E-02	1.387634E-04
3.925337E+03	1.336792E-02	1.396996E-04
3.927575E+03	1.380490E-02	1.442385E-04
3.929813E+03	1.398245E-02	1.460655E-04
3.932051E+03	1.380480E-02	1.441819E-04
3.934290E+03	1.365549E-02	1.425950E-04
3.936527E+03	1.387709E-02	1.448810E-04
3.938766E+03	1.356741E-02	1.416206E-04
3.941004E+03	1.367400E-02	1.427056E-04
3.943242E+03	1.347020E-02	1.405515E-04
3.945480E+03	1.335947E-02	1.393691E-04
3.947718E+03	1.352950E-02	1.411155E-04
3.949957E+03	1.347568E-02	1.405269E-04
3.952195E+03	1.353188E-02	1.410856E-04
3.954433E+03	1.354538E-02	1.411989E-04
3.956671E+03	1.384255E-02	1.442686E-04
3.958909E+03	1.404399E-02	1.463395E-04
3.961147E+03	1.399541E-02	1.458049E-04
3.963385E+03	1.361370E-02	1.418006E-04
3.965624E+03	1.368169E-02	1.424810E-04
3.967862E+03	1.398572E-02	1.456187E-04
3.970100E+03	1.394099E-02	1.451246E-04
3.972338E+03	1.400910E-02	1.458051E-04
3.974576E+03	1.381902E-02	1.437985E-04
3.976814E+03	1.369114E-02	1.424400E-04
3.979053E+03	1.361903E-02	1.416620E-04
3.981290E+03	1.355209E-02	1.409380E-04
3.983529E+03	1.359292E-02	1.413348E-04
3.985767E+03	1.364416E-02	1.418397E-04
3.988005E+03	1.348751E-02	1.401837E-04
3.990243E+03	1.359335E-02	1.412559E-04
3.992481E+03	1.345221E-02	1.397617E-04
3.994720E+03	1.340855E-02	1.392806E-04
3.996957E+03	1.348192E-02	1.400151E-04
3.999196E+03	1.374267E-02	1.426949E-04
4.001434E+03	1.386822E-02	1.439700E-04
4.003672E+03	1.395738E-02	1.448669E-04
4.005910E+03	1.387471E-02	1.439804E-04
4.008148E+03	1.415795E-02	1.468904E-04
4.010387E+03	1.440484E-02	1.494224E-04
4.012624E+03	1.465446E-02	1.519814E-04
4.014863E+03	1.487291E-02	1.542164E-04
4.017101E+03	1.489204E-02	1.543840E-04
4.019339E+03	1.480688E-02	1.534706E-04
4.021578E+03	1.474515E-02	1.528003E-04
4.023815E+03	1.479556E-02	1.532922E-04
4.026054E+03	1.476773E-02	1.529732E-04
4.028291E+03	1.490821E-02	1.543977E-04
4.030530E+03	1.511012E-02	1.564574E-04
4.032768E+03	1.511889E-02	1.565169E-04
4.035006E+03	1.527523E-02	1.581038E-04
4.037245E+03	1.524747E-02	1.577848E-04
4.039482E+03	1.520662E-02	1.573306E-04
4.041721E+03	1.526900E-02	1.579442E-04
4.043958E+03	1.521246E-02	1.573277E-04
4.046197E+03	1.523172E-02	1.574952E-04
4.048435E+03	1.487174E-02	1.537422E-04
4.050673E+03	1.485692E-02	1.535580E-04
4.052912E+03	1.476097E-02	1.525356E-04
4.055149E+03	1.507197E-02	1.557180E-04
4.057388E+03	1.511347E-02	1.561152E-04
4.059625E+03	1.483160E-02	1.531727E-04
4.061864E+03	1.467007E-02	1.514738E-04
4.064102E+03	1.456217E-02	1.503293E-04
4.066340E+03	1.459310E-02	1.506182E-04
4.068579E+03	1.450217E-02	1.496493E-04
4.070816E+03	1.451343E-02	1.497351E-04
4.073055E+03	1.453126E-02	1.498886E-04
4.075293E+03	1.439565E-02	1.484597E-04
4.077531E+03	1.404223E-02	1.447855E-04
4.079769E+03	1.372013E-02	1.414357E-04
4.082007E+03	1.355012E-02	1.396547E-04
4.084246E+03	1.358873E-02	1.400241E-04
4.086483E+03	1.359060E-02	1.400148E-04
4.088722E+03	1.336659E-02	1.376788E-04
4.090960E+03	1.312197E-02	1.351316E-04
4.093198E+03	1.328613E-02	1.367942E-04
4.095436E+03	1.382936E-02	1.423583E-04
4.097674E+03	1.406527E-02	1.447570E-04
4.099912E+03	1.405672E-02	1.446394E-04
4.102151E+03	1.442035E-02	1.483506E-04
4.104389E+03	1.465523E-02	1.507361E-04
4.106627E+03	1.476260E-02	1.518092E-04
4.108865E+03	1.490422E-02	1.532341E-04
4.111103E+03	1.503012E-02	1.544968E-04
4.113341E+03	1.513500E-02	1.555428E-04
4.115579E+03	1.548358E-02	1.590924E-04
4.117818E+03	1.575459E-02	1.618437E-04
4.120056E+03	1.587288E-02	1.630252E-04
4.122294E+03	1.560245E-02	1.602147E-04
4.124532E+03	1.512362E-02	1.552657E-04
4.126770E+03	1.502956E-02	1.542682E-04
4.129008E+03	1.509900E-02	1.549488E-04
4.131246E+03	1.478591E-02	1.517045E-04
4.133485E+03	1.458747E-02	1.496374E-04
4.135723E+03	1.428731E-02	1.465280E-04
4.137961E+03	1.412429E-02	1.448262E-04
4.140199E+03	1.398629E-02	1.433813E-04
4.142437E+03	1.381124E-02	1.415574E-04
4.144676E+03	1.387519E-02	1.421833E-04
4.146913E+03	1.390613E-02	1.424707E-04
4.149152E+03	1.394899E-02	1.428800E-04
4.151390E+03	1.363232E-02	1.396073E-04
4.153628E+03	1.344374E-02	1.376474E-04
4.155866E+03	1.329210E-02	1.360664E-04
4.158104E+03	1.332955E-02	1.364213E-04
4.160343E+03	1.313812E-02	1.344340E-04
4.162580E+03	1.268206E-02	1.297403E-04
4.164819E+03	1.257431E-02	1.286110E-04
4.167056E+03	1.240150E-02	1.268170E-04
4.169295E+03	1.209935E-02	1.237013E-04
4.171534E+03	1.176832E-02	1.202917E-04
4.173771E+03	1.161613E-02	1.187112E-04
4.176010E+03	1.156763E-02	1.181907E-04
4.178247E+03	1.101117E-02	1.124815E-04
4.180486E+03	1.077464E-02	1.100421E-04
4.182723E+03	1.077112E-02	1.099831E-04
4.184962E+03	1.050803E-02	1.072741E-04
4.187201E+03	1.070119E-02	1.092230E-04
4.189438E+03	1.103139E-02	1.125695E-04
4.191677E+03	1.111923E-02	1.134420E-04
4.193914E+03	1.087203E-02	1.108965E-04
4.196153E+03	1.087090E-02	1.108615E-04
4.198391E+03	1.126849E-02	1.148919E-04
4.200629E+03	1.153142E-02	1.175478E-04
4.202868E+03	1.178251E-02	1.200819E-04
4.205105E+03	1.185972E-02	1.208432E-04
4.207344E+03	1.163293E-02	1.185072E-04
4.209581E+03	1.158913E-02	1.180360E-04
4.211820E+03	1.136962E-02	1.157757E-04
4.214058E+03	1.137150E-02	1.157702E-04
4.216296E+03	1.136446E-02	1.156740E-04
4.218535E+03	1.156862E-02	1.177270E-04
4.223011E+03	1.174181E-02	1.194386E-04
4.225249E+03	1.180062E-02	1.200112E-04
4.227487E+03	1.188064E-02	1.207992E-04
4.229725E+03	1.217985E-02	1.238151E-04
4.231963E+03	1.224211E-02	1.244215E-04
4.234201E+03	1.228148E-02	1.247950E-04
4.236439E+03	1.236845E-02	1.256518E-04
4.238678E+03	1.267176E-02	1.287056E-04
4.240916E+03	1.273684E-02	1.293389E-04
4.243154E+03	1.274830E-02	1.294276E-04
4.245392E+03	1.296781E-02	1.316280E-04
4.247630E+03	1.319101E-02	1.338648E-04
4.249868E+03	1.326331E-02	1.345696E-04
4.252106E+03	1.304254E-02	1.323013E-04
4.254345E+03	1.286641E-02	1.304866E-04
4.256583E+03	1.265267E-02	1.282913E-04
4.258821E+03	1.251912E-02	1.269100E-04
4.261059E+03	1.238619E-02	1.255353E-04
4.263297E+03	1.214023E-02	1.230160E-04
4.265535E+03	1.198602E-02	1.214272E-04
4.267774E+03	1.192414E-02	1.207743E-04
4.270012E+03	1.161250E-02	1.175925E-04
4.272250E+03	1.141498E-02	1.155673E-04
4.274488E+03	1.112985E-02	1.126563E-04
4.276726E+03	1.108980E-02	1.122266E-04
4.278964E+03	1.094035E-02	1.106903E-04
4.281202E+03	1.069590E-02	1.081936E-04
4.283441E+03	1.045200E-02	1.057036E-04
4.285679E+03	1.045489E-02	1.057099E-04
4.287917E+03	1.037390E-02	1.048682E-04
4.290155E+03	1.025253E-02	1.036188E-04
4.292393E+03	9.970916E-03	1.007508E-04
4.294632E+03	9.637829E-03	9.736394E-05
4.296869E+03	9.565293E-03	9.661016E-05
4.299108E+03	9.704380E-03	9.799364E-05
4.301345E+03	9.769193E-03	9.862665E-05
4.303584E+03	1.008161E-02	1.017586E-04
4.305822E+03	1.034060E-02	1.043499E-04
4.308060E+03	1.063272E-02	1.072744E-04
4.310299E+03	1.114448E-02	1.124130E-04
4.312536E+03	1.141363E-02	1.151029E-04
4.314775E+03	1.120671E-02	1.129914E-04
4.317012E+03	1.117100E-02	1.126067E-04
4.319251E+03	1.098354E-02	1.106930E-04
4.321490E+03	1.103996E-02	1.112372E-04
4.323727E+03	1.138611E-02	1.146999E-04
4.325966E+03	1.159551E-02	1.167837E-04
4.328203E+03	1.172766E-02	1.180887E-04
4.330442E+03	1.186980E-02	1.194938E-04
4.332679E+03	1.210335E-02	1.218183E-04
4.334918E+03	1.246996E-02	1.254805E-04
4.337157E+03	1.265458E-02	1.273104E-04
4.339394E+03	1.274948E-02	1.282369E-04
4.341633E+03	1.279540E-02	1.286705E-04
4.343870E+03	1.288684E-02	1.295616E-04
4.346109E+03	1.298479E-02	1.305175E-04
4.348347E+03	1.320079E-02	1.326595E-04
4.350585E+03	1.333373E-02	1.339659E-04
4.352824E+03	1.336750E-02	1.342756E-04
4.355061E+03	1.343243E-02	1.348980E-04
4.357300E+03	1.351652E-02	1.357126E-04
4.359537E+03	1.360143E-02	1.365350E-04
4.361776E+03	1.353395E-02	1.358277E-04
4.364014E+03	1.357032E-02	1.361625E-04
4.366252E+03	1.382531E-02	1.386904E-04
4.368490E+03	1.383070E-02	1.387137E-04
4.370728E+03	1.384822E-02	1.388588E-04
4.372967E+03	1.389680E-02	1.393150E-04
4.375204E+03	1.398995E-02	1.402178E-04
4.377443E+03	1.381839E-02	1.384675E-04
4.379681E+03	1.377375E-02	1.379896E-04
4.381919E+03	1.380339E-02	1.382559E-04
4.384157E+03	1.356679E-02	1.358560E-04
4.386395E+03	1.329481E-02	1.331028E-04
4.388634E+03	1.307464E-02	1.308694E-04
4.390872E+03	1.289048E-02	1.289974E-04
4.393110E+03	1.273641E-02	1.274272E-04
4.395348E+03	1.217845E-02	1.218178E-04
4.397586E+03	1.172893E-02	1.172952E-04
4.399824E+03	1.113024E-02	1.112832E-04
4.402062E+03	1.068901E-02	1.068478E-04
4.404301E+03	1.035970E-02	1.035329E-04
4.406539E+03	9.804403E-03	9.796159E-05
4.408777E+03	9.511363E-03	9.501244E-05
4.411015E+03	9.278220E-03	9.266280E-05
4.413253E+03	9.070863E-03	9.057166E-05
4.415491E+03	8.597013E-03	8.582113E-05
4.417730E+03	8.126518E-03	8.110620E-05
4.419968E+03	7.835182E-03	7.818104E-05
4.422206E+03	7.431749E-03	7.413891E-05
4.424444E+03	6.938126E-03	6.919905E-05
4.426682E+03	6.530313E-03	6.511703E-05
4.428920E+03	6.177963E-03	6.158977E-05
4.431158E+03	5.883418E-03	5.864023E-05
4.433397E+03	5.328767E-03	5.310008E-05
4.435634E+03	5.141725E-03	5.122475E-05
4.437873E+03	4.923121E-03	4.903589E-05
4.440111E+03	4.670495E-03	4.650920E-05
4.442349E+03	4.236764E-03	4.218059E-05
4.444588E+03	4.060254E-03	4.041420E-05
4.446825E+03	3.881507E-03	3.862633E-05
4.449064E+03	3.395644E-03	3.378372E-05
4.451301E+03	3.248785E-03	3.231533E-05
4.453540E+03	3.169694E-03	3.152152E-05
4.455778E+03	3.233439E-03	3.214820E-05
4.458016E+03	3.373474E-03	3.353293E-05
4.460255E+03	3.595685E-03	3.573368E-05
4.462492E+03	3.561605E-03	3.538702E-05
4.464731E+03	3.367683E-03	3.345272E-05
4.466968E+03	3.304162E-03	3.281433E-05
4.469207E+03	3.557387E-03	3.532118E-05
4.471445E+03	3.339408E-03	3.314939E-05
4.473683E+03	3.253793E-03	3.229221E-05
4.475922E+03	3.147320E-03	3.122846E-05
4.478159E+03	3.557119E-03	3.528661E-05
4.480398E+03	3.716341E-03	3.685775E-05
4.482635E+03	3.850551E-03	3.818016E-05
4.484874E+03	4.113531E-03	4.077851E-05
4.487113E+03	4.430954E-03	4.391525E-05
4.489350E+03	4.820013E-03	4.776040E-05
4.491589E+03	5.404083E-03	5.353567E-05
4.493826E+03	5.635973E-03	5.582024E-05
4.496065E+03	6.051158E-03	5.991875E-05
4.498302E+03	6.486648E-03	6.421641E-05
4.500541E+03	7.120281E-03	7.047324E-05
4.502779E+03	7.554152E-03	7.475052E-05
4.505017E+03	7.906434E-03	7.821867E-05
4.507256E+03	8.203427E-03	8.113839E-05
4.509493E+03	8.546208E-03	8.450956E-05
4.511732E+03	8.540668E-03	8.443557E-05
4.513970E+03	8.862983E-03	8.760215E-05
4.516208E+03	9.330641E-03	9.220351E-05
4.518446E+03	9.543516E-03	9.428564E-05
4.520684E+03	9.463263E-03	9.347148E-05
4.522923E+03	9.608185E-03	9.488130E-05
4.525160E+03	9.884279E-03	9.758550E-05
4.527399E+03	9.717530E-03	9.591735E-05
4.529637E+03	9.738331E-03	9.610076E-05
4.531875E+03	1.019096E-02	1.005445E-04
4.534113E+03	1.050225E-02	1.035921E-04
4.536351E+03	1.093364E-02	1.078226E-04
4.538590E+03	1.144963E-02	1.128852E-04
4.540828E+03	1.168585E-02	1.151880E-04
4.543066E+03	1.179305E-02	1.162180E-04
4.545304E+03	1.185006E-02	1.167532E-04
4.547542E+03	1.215604E-02	1.197405E-04
4.549780E+03	1.227289E-02	1.208639E-04
4.552018E+03	1.256996E-02	1.237611E-04
4.554256E+03	1.283507E-02	1.263424E-04
4.556495E+03	1.301347E-02	1.280692E-04
4.558733E+03	1.320861E-02	1.299599E-04
4.560971E+03	1.332384E-02	1.310637E-04
4.563209E+03	1.385327E-02	1.362402E-04
4.565447E+03	1.396461E-02	1.373038E-04
4.567686E+03	1.387740E-02	1.364150E-04
4.569923E+03	1.402847E-02	1.378685E-04
4.572162E+03	1.414395E-02	1.389716E-04
4.574400E+03	1.412931E-02	1.387958E-04
4.576638E+03	1.438046E-02	1.412305E-04
4.578876E+03	1.479062E-02	1.452254E-04
4.581114E+03	1.497474E-02	1.469995E-04
4.583353E+03	1.548100E-02	1.519343E-04
4.585590E+03	1.596956E-02	1.566931E-04
4.587829E+03	1.625393E-02	1.594468E-04
4.590067E+03	1.649584E-02	1.617827E-04
4.592305E+03	1.704910E-02	1.671704E-04
4.594543E+03	1.756956E-02	1.722340E-04
4.596781E+03	1.824376E-02	1.788021E-04
4.599020E+03	1.875759E-02	1.837957E-04
4.601257E+03	1.897654E-02	1.858983E-04
4.603496E+03	1.925726E-02	1.886049E-04
4.605734E+03	1.934316E-02	1.894026E-04
4.607972E+03	1.969257E-02	1.927796E-04
4.610211E+03	2.028913E-02	1.985738E-04
4.612448E+03	2.088304E-02	2.043396E-04
4.614687E+03	2.110226E-02	2.064370E-04
4.616924E+03	2.174030E-02	2.126298E-04
4.619163E+03	2.223288E-02	2.173974E-04
4.621400E+03	2.256762E-02	2.206197E-04
4.623639E+03	2.305486E-02	2.253310E-04
4.625878E+03	2.336911E-02	2.283497E-04
4.628115E+03	2.373147E-02	2.318370E-04
4.630354E+03	2.397435E-02	2.341558E-04
4.632591E+03	2.430383E-02	2.373190E-04
4.634830E+03	2.464297E-02	2.405752E-04
4.637068E+03	2.493542E-02	2.433740E-04
4.639306E+03	2.507121E-02	2.446429E-04
4.641545E+03	2.480286E-02	2.419685E-04
4.643782E+03	2.498947E-02	2.437328E-04
4.646021E+03	2.507711E-02	2.445311E-04
4.648258E+03	2.520736E-02	2.457445E-04
4.650497E+03	2.523310E-02	2.459386E-04
4.652735E+03	2.533309E-02	2.468562E-04
4.654973E+03	2.532579E-02	2.467280E-04
4.657212E+03	2.494567E-02	2.429687E-04
4.659449E+03	2.474981E-02	2.410054E-04
4.661688E+03	2.465570E-02	2.400334E-04
4.663926E+03	2.430149E-02	2.365304E-04
4.666164E+03	2.414672E-02	2.349697E-04
4.668402E+03	2.405658E-02	2.340385E-04
4.670640E+03	2.422376E-02	2.356105E-04
4.672879E+03	2.406612E-02	2.340230E-04
4.675116E+03	2.381619E-02	2.315392E-04
4.677355E+03	2.384979E-02	2.318123E-04
4.679593E+03	2.385170E-02	2.317772E-04
4.681831E+03	2.374895E-02	2.307253E-04
4.684069E+03	2.362549E-02	2.294729E-04
4.686307E+03	2.332574E-02	2.265090E-04
4.688545E+03	2.317877E-02	2.250298E-04
4.690784E+03	2.322596E-02	2.254357E-04
4.693022E+03	2.312850E-02	2.244378E-04
4.695260E+03	2.292631E-02	2.224243E-04
4.697498E+03	2.260836E-02	2.192889E-04
4.699736E+03	2.208093E-02	2.141235E-04
4.701974E+03	2.156167E-02	2.090398E-04
4.704212E+03	2.115943E-02	2.050927E-04
4.706451E+03	2.081636E-02	2.017207E-04
4.708689E+03	2.051044E-02	1.987101E-04
4.710927E+03	2.007905E-02	1.944857E-04
4.713165E+03	1.975369E-02	1.912899E-04
4.715403E+03	1.968601E-02	1.905904E-04
4.717641E+03	1.954663E-02	1.891972E-04
4.719879E+03	1.939755E-02	1.877108E-04
4.722118E+03	1.965097E-02	1.901191E-04
4.724356E+03	1.981617E-02	1.916730E-04
4.726594E+03	1.973457E-02	1.908395E-04
4.728832E+03	1.977014E-02	1.911392E-04
4.731070E+03	1.963471E-02	1.897860E-04
4.733309E+03	1.920554E-02	1.855947E-04
4.735546E+03	1.887144E-02	1.823239E-04
4.737785E+03	1.873312E-02	1.809457E-04
4.740023E+03	1.876440E-02	1.812058E-04
4.742261E+03	1.845224E-02	1.781500E-04
4.744499E+03	1.826553E-02	1.763067E-04
4.746737E+03	1.792569E-02	1.729863E-04
4.748976E+03	1.758165E-02	1.696270E-04
4.751213E+03	1.726101E-02	1.664949E-04
4.753452E+03	1.703414E-02	1.642685E-04
4.755689E+03	1.674237E-02	1.614176E-04
