#wls	flux	flux_err
3999.8100	5.1316e-02	1.9698e-02
4002.3920	5.4337e-02	2.3175e-02
4004.9750	5.7311e-02	2.2987e-02
4007.5570	6.0561e-02	2.1597e-02
4010.1400	6.3037e-02	2.2882e-02
4012.7220	6.7070e-02	2.3266e-02
4015.3050	6.9777e-02	2.5344e-02
4017.8870	7.2468e-02	2.4791e-02
4020.4700	7.4879e-02	2.3720e-02
4023.0520	7.6453e-02	2.1155e-02
4025.6350	7.7196e-02	2.1275e-02
4028.2170	7.8021e-02	1.8984e-02
4030.8000	7.8746e-02	1.9095e-02
4033.3820	8.0690e-02	1.9730e-02
4035.9650	8.1383e-02	1.8790e-02
4038.5470	8.3004e-02	1.8792e-02
4041.1290	8.4244e-02	1.9294e-02
4043.7120	8.5411e-02	1.9301e-02
4046.2940	8.5192e-02	2.0160e-02
4048.8770	8.5202e-02	2.0779e-02
4051.4590	8.5533e-02	2.1053e-02
4054.0420	8.5207e-02	2.0761e-02
4056.6240	8.4448e-02	2.0390e-02
4059.2070	8.4117e-02	2.0667e-02
4061.7890	8.3715e-02	2.1045e-02
4064.3720	8.4263e-02	2.3803e-02
4066.9540	8.4076e-02	2.3777e-02
4069.5370	8.3556e-02	2.4623e-02
4072.1190	8.3172e-02	2.4791e-02
4074.7020	8.2598e-02	2.4361e-02
4077.2840	8.1662e-02	2.4326e-02
4079.8670	8.0441e-02	2.4279e-02
4082.4490	8.0030e-02	2.4879e-02
4085.0320	7.9674e-02	2.4619e-02
4087.6140	7.9149e-02	2.4877e-02
4090.1970	7.9631e-02	2.6707e-02
4092.7790	8.0695e-02	2.8421e-02
4095.3610	8.2782e-02	2.9363e-02
4097.9440	8.3950e-02	2.9372e-02
4100.5260	8.4775e-02	2.9534e-02
4103.1090	8.5232e-02	2.9566e-02
4105.6910	8.5681e-02	3.0041e-02
4108.2740	8.8220e-02	2.9179e-02
4110.8560	8.9982e-02	2.6865e-02
4113.4390	9.2438e-02	2.6312e-02
4116.0210	9.4482e-02	2.4939e-02
4118.6040	9.6353e-02	2.3576e-02
4121.1860	9.6642e-02	2.4153e-02
4123.7690	9.7898e-02	2.3677e-02
4126.3510	9.9866e-02	2.3301e-02
4128.9340	1.0098e-01	2.3260e-02
4131.5160	1.0257e-01	2.2666e-02
4134.0990	1.0347e-01	2.1660e-02
4136.6810	1.0572e-01	2.1118e-02
4139.2640	1.0683e-01	1.9552e-02
4141.8460	1.0706e-01	1.6594e-02
4144.4290	1.0757e-01	1.5670e-02
4147.0110	1.0757e-01	1.5540e-02
4149.5930	1.0769e-01	1.4811e-02
4152.1760	1.0733e-01	1.3826e-02
4154.7580	1.0665e-01	1.3443e-02
4157.3410	1.0744e-01	1.2874e-02
4159.9230	1.0710e-01	1.2743e-02
4162.5060	1.0643e-01	1.2449e-02
4165.0880	1.0514e-01	1.1257e-02
4167.6710	1.0605e-01	1.0927e-02
4170.2530	1.0515e-01	1.2382e-02
4172.8360	1.0365e-01	1.4602e-02
4175.4180	1.0093e-01	1.5650e-02
4178.0010	9.8901e-02	1.6277e-02
4180.5830	9.7468e-02	1.6266e-02
4183.1660	9.6728e-02	1.6693e-02
4185.7480	9.6938e-02	1.6844e-02
4188.3310	9.6801e-02	1.6956e-02
4190.9130	9.7539e-02	1.7612e-02
4193.4960	9.7063e-02	1.7590e-02
4196.0780	9.7367e-02	1.7709e-02
4198.6610	9.7297e-02	1.7760e-02
4201.2430	9.6308e-02	1.7864e-02
4203.8250	9.7488e-02	1.8072e-02
4206.4080	9.8331e-02	1.8060e-02
4208.9900	9.8943e-02	1.8114e-02
4211.5730	9.9744e-02	1.8525e-02
4214.1550	9.8795e-02	1.9026e-02
4216.7380	9.7873e-02	1.8968e-02
4219.3200	9.8471e-02	1.6636e-02
4221.9030	1.0027e-01	1.5205e-02
4224.4850	1.0121e-01	1.4321e-02
4227.0680	1.0175e-01	1.8726e-02
4229.6500	1.0421e-01	2.3590e-02
4232.2330	1.0637e-01	2.3433e-02
4234.8150	1.0836e-01	2.4306e-02
4237.3980	1.1002e-01	2.3523e-02
4239.9800	1.1322e-01	2.4888e-02
4242.5630	1.1804e-01	2.6406e-02
4245.1450	1.2117e-01	2.7969e-02
4247.7280	1.2302e-01	2.8251e-02
4250.3100	1.2531e-01	2.8206e-02
4252.8930	1.2702e-01	2.8185e-02
4255.4750	1.2938e-01	2.8032e-02
4258.0570	1.3145e-01	2.7592e-02
4260.6400	1.3278e-01	2.9143e-02
4263.2220	1.3403e-01	2.9130e-02
4265.8050	1.3395e-01	3.0616e-02
4268.3870	1.3340e-01	3.1188e-02
4270.9700	1.3253e-01	3.1761e-02
4273.5520	1.3263e-01	2.8428e-02
4276.1350	1.3190e-01	2.4210e-02
4278.7170	1.3039e-01	2.4621e-02
4281.3000	1.2928e-01	2.5393e-02
4283.8820	1.2897e-01	2.5871e-02
4286.4650	1.2902e-01	2.4341e-02
4289.0470	1.2855e-01	2.4259e-02
4291.6300	1.2702e-01	2.5108e-02
4294.2120	1.2781e-01	2.5779e-02
4296.7950	1.2827e-01	2.5443e-02
4299.3770	1.2818e-01	2.9752e-02
4301.9600	1.2815e-01	3.3970e-02
4304.5420	1.2786e-01	3.5278e-02
4307.1250	1.2818e-01	3.5355e-02
4309.7070	1.2704e-01	3.7121e-02
4312.2890	1.2697e-01	3.7961e-02
4314.8720	1.2799e-01	3.7578e-02
4317.4540	1.2929e-01	3.9765e-02
4320.0370	1.3004e-01	4.1584e-02
4322.6190	1.3210e-01	4.1399e-02
4325.2020	1.3533e-01	4.1700e-02
4327.7840	1.3771e-01	3.9897e-02
4330.3670	1.3962e-01	3.9155e-02
4332.9490	1.4210e-01	3.9279e-02
4335.5320	1.4481e-01	4.0871e-02
4338.1140	1.4791e-01	4.3194e-02
4340.6970	1.5104e-01	4.3960e-02
4343.2790	1.5453e-01	4.4088e-02
4345.8620	1.5928e-01	4.2271e-02
4348.4440	1.6424e-01	4.0303e-02
4351.0270	1.6763e-01	3.8867e-02
4353.6090	1.7141e-01	3.8031e-02
4356.1920	1.7425e-01	3.6727e-02
4358.7740	1.7857e-01	3.2126e-02
4361.3570	1.8223e-01	2.8658e-02
4363.9390	1.8483e-01	2.6689e-02
4366.5210	1.8787e-01	2.5946e-02
4369.1040	1.9004e-01	2.6515e-02
4371.6860	1.9190e-01	2.6590e-02
4374.2690	1.9600e-01	2.6654e-02
4376.8510	1.9879e-01	2.6645e-02
4379.4340	1.9976e-01	2.4712e-02
4382.0160	2.0136e-01	2.3845e-02
4384.5990	2.0074e-01	2.3188e-02
4387.1810	1.9952e-01	2.3228e-02
4389.7640	1.9927e-01	2.2975e-02
4392.3460	1.9990e-01	2.3151e-02
4394.9290	2.0251e-01	2.4036e-02
4397.5110	2.0431e-01	2.4097e-02
4400.0940	2.0430e-01	2.4500e-02
4402.6760	2.0472e-01	2.3125e-02
4405.2590	2.0408e-01	2.3153e-02
4407.8410	2.0389e-01	2.3465e-02
4410.4240	2.0287e-01	2.3416e-02
4413.0060	2.0158e-01	2.3526e-02
4415.5890	1.9881e-01	2.1533e-02
4418.1710	1.9704e-01	2.1282e-02
4420.7530	1.9521e-01	2.1982e-02
4423.3360	1.9309e-01	2.1367e-02
4425.9180	1.9297e-01	2.1375e-02
4428.5010	1.9456e-01	2.2668e-02
4431.0830	1.9831e-01	2.1797e-02
4433.6660	2.0209e-01	2.1228e-02
4436.2480	2.0328e-01	2.3222e-02
4438.8310	2.0414e-01	2.3499e-02
4441.4130	2.0630e-01	2.1122e-02
4443.9960	2.0884e-01	1.9617e-02
4446.5780	2.1094e-01	2.0330e-02
4449.1610	2.1329e-01	2.4897e-02
4451.7430	2.1467e-01	2.4375e-02
4454.3260	2.1545e-01	2.4364e-02
4456.9080	2.1635e-01	2.2890e-02
4459.4910	2.1773e-01	2.6659e-02
4462.0730	2.1936e-01	3.5659e-02
4464.6560	2.2104e-01	3.8124e-02
4467.2380	2.2257e-01	3.9639e-02
4469.8210	2.2465e-01	3.9640e-02
4472.4030	2.2792e-01	3.9628e-02
4474.9850	2.3087e-01	3.8554e-02
4477.5680	2.3423e-01	3.9301e-02
4480.1500	2.3674e-01	4.1545e-02
4482.7330	2.3968e-01	4.3565e-02
4485.3150	2.4340e-01	4.3831e-02
4487.8980	2.4663e-01	4.3844e-02
4490.4800	2.4930e-01	4.4078e-02
4493.0630	2.5115e-01	4.3748e-02
4495.6450	2.5207e-01	4.2561e-02
4498.2280	2.5366e-01	4.5963e-02
4500.8100	2.5485e-01	4.6527e-02
4503.3930	2.5656e-01	4.6153e-02
4505.9750	2.5747e-01	4.6484e-02
4508.5580	2.5880e-01	4.2423e-02
4511.1400	2.5921e-01	4.0719e-02
4513.7230	2.6135e-01	3.8279e-02
4516.3050	2.6313e-01	3.8318e-02
4518.8880	2.6365e-01	3.9076e-02
4521.4700	2.6490e-01	3.8914e-02
4524.0530	2.6745e-01	3.8774e-02
4526.6350	2.6805e-01	3.7428e-02
4529.2170	2.7036e-01	3.5245e-02
4531.8000	2.7235e-01	3.4632e-02
4534.3820	2.7342e-01	3.3152e-02
4536.9650	2.7498e-01	3.2656e-02
4539.5470	2.7631e-01	3.4120e-02
4542.1300	2.7581e-01	3.2013e-02
4544.7120	2.7652e-01	2.5118e-02
4547.2950	2.7571e-01	2.2250e-02
4549.8770	2.7685e-01	2.3868e-02
4552.4600	2.7811e-01	2.3182e-02
4555.0420	2.7893e-01	2.3470e-02
4557.6250	2.7924e-01	2.2250e-02
4560.2070	2.7787e-01	2.2551e-02
4562.7900	2.7783e-01	2.5037e-02
4565.3720	2.7896e-01	2.4703e-02
4567.9550	2.7734e-01	2.4908e-02
4570.5370	2.7781e-01	2.4585e-02
4573.1200	2.7826e-01	2.3712e-02
4575.7020	2.7770e-01	2.4148e-02
4578.2850	2.7870e-01	2.4230e-02
4580.8670	2.8118e-01	2.4625e-02
4583.4490	2.8455e-01	2.5166e-02
4586.0320	2.8911e-01	2.3907e-02
4588.6140	2.9252e-01	2.3956e-02
4591.1970	2.9607e-01	2.4133e-02
4593.7790	2.9925e-01	2.4407e-02
4596.3620	3.0165e-01	2.3111e-02
4598.9440	3.0307e-01	2.3828e-02
4601.5270	3.0400e-01	2.3134e-02
4604.1090	3.0532e-01	2.3087e-02
4606.6920	3.0572e-01	2.4059e-02
4609.2740	3.0629e-01	2.1019e-02
4611.8570	3.0715e-01	2.1163e-02
4614.4390	3.0915e-01	2.5422e-02
4617.0220	3.1271e-01	2.6154e-02
4619.6040	3.1550e-01	2.6135e-02
4622.1870	3.1844e-01	2.6336e-02
4624.7690	3.1960e-01	2.6329e-02
4627.3520	3.2006e-01	2.5723e-02
4629.9340	3.2111e-01	2.7027e-02
4632.5170	3.2253e-01	2.6168e-02
4635.0990	3.2270e-01	2.6714e-02
4637.6810	3.2171e-01	2.7308e-02
4640.2640	3.2169e-01	2.6852e-02
4642.8460	3.2127e-01	2.7896e-02
4645.4290	3.2057e-01	2.7586e-02
4648.0110	3.2036e-01	2.6780e-02
4650.5940	3.1856e-01	2.7226e-02
4653.1760	3.1699e-01	2.7043e-02
4655.7590	3.1515e-01	2.9193e-02
4658.3410	3.1267e-01	2.7038e-02
4660.9240	3.0967e-01	2.2874e-02
4663.5060	3.0639e-01	2.2981e-02
4666.0890	3.0392e-01	2.3973e-02
4668.6710	3.0217e-01	2.3472e-02
4671.2540	3.0093e-01	2.3457e-02
4673.8360	3.0060e-01	2.3446e-02
4676.4190	2.9954e-01	2.1389e-02
4679.0010	2.9850e-01	2.0856e-02
4681.5840	2.9635e-01	2.0392e-02
4684.1660	2.9384e-01	1.9526e-02
4686.7490	2.9233e-01	1.9487e-02
4689.3310	2.9103e-01	1.8023e-02
4691.9130	2.8911e-01	1.7716e-02
4694.4960	2.8709e-01	1.7893e-02
4697.0780	2.8569e-01	1.7580e-02
4699.6610	2.8590e-01	1.7224e-02
4702.2430	2.8629e-01	1.6567e-02
4704.8260	2.8830e-01	1.6545e-02
4707.4080	2.8996e-01	1.5310e-02
4709.9910	2.9167e-01	1.4540e-02
4712.5730	2.9342e-01	1.2968e-02
4715.1560	2.9571e-01	1.3283e-02
4717.7380	2.9697e-01	1.3656e-02
4720.3210	3.0058e-01	1.6171e-02
4722.9030	3.0398e-01	1.8397e-02
4725.4860	3.0687e-01	1.8184e-02
4728.0680	3.0940e-01	2.0601e-02
4730.6510	3.1029e-01	2.3513e-02
4733.2330	3.1069e-01	2.3903e-02
4735.8160	3.1413e-01	2.3990e-02
4738.3980	3.1575e-01	2.4973e-02
4740.9810	3.1876e-01	2.4656e-02
4743.5630	3.2162e-01	2.4957e-02
4746.1450	3.2432e-01	2.4978e-02
4748.7280	3.2543e-01	2.3262e-02
4751.3100	3.2632e-01	2.3077e-02
4753.8930	3.2840e-01	2.3599e-02
4756.4750	3.3039e-01	2.3255e-02
4759.0580	3.3163e-01	2.2494e-02
4761.6400	3.3343e-01	2.1403e-02
4764.2230	3.3418e-01	2.1843e-02
4766.8050	3.3460e-01	2.3814e-02
4769.3880	3.3600e-01	2.4705e-02
4771.9700	3.3741e-01	2.6961e-02
4774.5530	3.4060e-01	2.6102e-02
4777.1350	3.4322e-01	2.3143e-02
4779.7180	3.4436e-01	2.3657e-02
4782.3000	3.4561e-01	2.3964e-02
4784.8830	3.4579e-01	2.2952e-02
4787.4650	3.4606e-01	2.3525e-02
4790.0480	3.4610e-01	2.3454e-02
4792.6300	3.4654e-01	2.4114e-02
4795.2130	3.4771e-01	2.3241e-02
4797.7950	3.4933e-01	2.3790e-02
4800.3770	3.5241e-01	2.4701e-02
4802.9600	3.5424e-01	2.3677e-02
4805.5420	3.5646e-01	2.3284e-02
4808.1250	3.5873e-01	2.3304e-02
4810.7070	3.6009e-01	2.3970e-02
4813.2900	3.6200e-01	2.3860e-02
4815.8720	3.6321e-01	2.2855e-02
4818.4550	3.6407e-01	2.1537e-02
4821.0370	3.6484e-01	2.1349e-02
4823.6200	3.6668e-01	2.1663e-02
4826.2020	3.6825e-01	2.1308e-02
4828.7850	3.6994e-01	2.2247e-02
4831.3670	3.7219e-01	2.3098e-02
4833.9500	3.7372e-01	2.2466e-02
4836.5320	3.7361e-01	2.1900e-02
4839.1150	3.7382e-01	1.9673e-02
4841.6970	3.7242e-01	1.9949e-02
4844.2800	3.7161e-01	1.9722e-02
4846.8620	3.6949e-01	1.8627e-02
4849.4450	3.6605e-01	1.9191e-02
4852.0270	3.6437e-01	1.8569e-02
4854.6090	3.6266e-01	1.7217e-02
4857.1920	3.6173e-01	1.7691e-02
4859.7740	3.6062e-01	1.4169e-02
4862.3570	3.6048e-01	1.7522e-02
4864.9390	3.5791e-01	2.4199e-02
4867.5220	3.5483e-01	3.0320e-02
4870.1040	3.5280e-01	3.2450e-02
4872.6870	3.5111e-01	3.3275e-02
4875.2690	3.4978e-01	3.2801e-02
4877.8520	3.4755e-01	3.1810e-02
4880.4340	3.4536e-01	3.1508e-02
4883.0170	3.4351e-01	3.1805e-02
4885.5990	3.4250e-01	3.1671e-02
4888.1820	3.4166e-01	3.1988e-02
4890.7640	3.4145e-01	3.2240e-02
4893.3470	3.4102e-01	3.2307e-02
4895.9290	3.4035e-01	3.3477e-02
4898.5120	3.3870e-01	3.1934e-02
4901.0940	3.3783e-01	3.2332e-02
4903.6770	3.3747e-01	3.1731e-02
4906.2590	3.3741e-01	3.4895e-02
4908.8410	3.3811e-01	3.5527e-02
4911.4240	3.3979e-01	3.2860e-02
4914.0060	3.4107e-01	2.9433e-02
4916.5890	3.4214e-01	2.6117e-02
4919.1710	3.4288e-01	2.3697e-02
4921.7540	3.4587e-01	2.3484e-02
4924.3360	3.4968e-01	2.4367e-02
4926.9190	3.5298e-01	2.4951e-02
4929.5010	3.5540e-01	2.5477e-02
4932.0840	3.5928e-01	2.5785e-02
4934.6660	3.6334e-01	2.5733e-02
4937.2490	3.6606e-01	2.6372e-02
4939.8310	3.6883e-01	2.7669e-02
4942.4140	3.7064e-01	2.8090e-02
4944.9960	3.7123e-01	3.0110e-02
4947.5790	3.7197e-01	2.9589e-02
4950.1610	3.7323e-01	3.0152e-02
4952.7440	3.7521e-01	2.7733e-02
4955.3260	3.7724e-01	2.6662e-02
4957.9090	3.7985e-01	2.7284e-02
4960.4910	3.8279e-01	2.5806e-02
4963.0730	3.8434e-01	2.6348e-02
4965.6560	3.8454e-01	2.6693e-02
4968.2380	3.8356e-01	2.6689e-02
4970.8210	3.8139e-01	2.6447e-02
4973.4030	3.8034e-01	2.6481e-02
4975.9860	3.7869e-01	2.6113e-02
4978.5680	3.7661e-01	2.5874e-02
4981.1510	3.7519e-01	2.6502e-02
4983.7330	3.7523e-01	2.5634e-02
4986.3160	3.7532e-01	2.4370e-02
4988.8980	3.7553e-01	1.9707e-02
4991.4810	3.7580e-01	1.7410e-02
4994.0630	3.7394e-01	1.8990e-02
4996.6460	3.7159e-01	1.8316e-02
4999.2280	3.6899e-01	1.9071e-02
5001.8110	3.6601e-01	1.9035e-02
5004.3930	3.6389e-01	1.8457e-02
5006.9760	3.6132e-01	1.7631e-02
5009.5580	3.5886e-01	1.9415e-02
5012.1410	3.5757e-01	1.9205e-02
5014.7230	3.5811e-01	2.0865e-02
5017.3050	3.5744e-01	2.0589e-02
5019.8880	3.5678e-01	2.5700e-02
5022.4700	3.5632e-01	2.8795e-02
5025.0530	3.5473e-01	2.9965e-02
5027.6350	3.5366e-01	2.9859e-02
5030.2180	3.5344e-01	2.9901e-02
5032.8000	3.5183e-01	3.0924e-02
5035.3830	3.5094e-01	3.4300e-02
5037.9650	3.4986e-01	3.5198e-02
5040.5480	3.4942e-01	3.4589e-02
5043.1300	3.4972e-01	3.4938e-02
5045.7130	3.4876e-01	3.6359e-02
5048.2950	3.4890e-01	3.6299e-02
5050.8780	3.4896e-01	3.6371e-02
5053.4600	3.4811e-01	3.6390e-02
5056.0430	3.4653e-01	3.4715e-02
5058.6250	3.4740e-01	3.5068e-02
5061.2080	3.4955e-01	3.3688e-02
5063.7900	3.5243e-01	3.5003e-02
5066.3730	3.5424e-01	3.4377e-02
5068.9550	3.5546e-01	3.2659e-02
5071.5370	3.5641e-01	3.0652e-02
5074.1200	3.5711e-01	3.0124e-02
5076.7020	3.5777e-01	3.0140e-02
5079.2850	3.5841e-01	2.9821e-02
5081.8670	3.5990e-01	2.6944e-02
5084.4500	3.5995e-01	2.5292e-02
5087.0320	3.6068e-01	2.5236e-02
5089.6150	3.6180e-01	2.4663e-02
5092.1970	3.6308e-01	2.1622e-02
5094.7800	3.6215e-01	2.1554e-02
5097.3620	3.6071e-01	2.1499e-02
5099.9450	3.5937e-01	2.1241e-02
5102.5270	3.5824e-01	2.0961e-02
5105.1100	3.5917e-01	2.0283e-02
5107.6920	3.6144e-01	2.0238e-02
5110.2750	3.6280e-01	1.8613e-02
5112.8570	3.6428e-01	1.2858e-02
5115.4400	3.6495e-01	9.2055e-03
5118.0220	3.6525e-01	1.2820e-02
5120.6040	3.6580e-01	1.3305e-02
5123.1870	3.6676e-01	1.3435e-02
5125.7690	3.6819e-01	1.3537e-02
5128.3520	3.6793e-01	1.4007e-02
5130.9340	3.6702e-01	1.5403e-02
5133.5170	3.6412e-01	1.5205e-02
5136.0990	3.6149e-01	1.5214e-02
5138.6820	3.5892e-01	1.7052e-02
5141.2640	3.5703e-01	1.7625e-02
5143.8470	3.5484e-01	1.9225e-02
5146.4290	3.5267e-01	1.9045e-02
5149.0120	3.5120e-01	1.9184e-02
5151.5940	3.4835e-01	1.9208e-02
5154.1770	3.4438e-01	1.9140e-02
5156.7590	3.3973e-01	2.0862e-02
5159.3420	3.3704e-01	2.0918e-02
5161.9240	3.3414e-01	2.0520e-02
5164.5070	3.3259e-01	2.3886e-02
5167.0890	3.3080e-01	2.5857e-02
5169.6720	3.2844e-01	2.6065e-02
5172.2540	3.2786e-01	2.7752e-02
5174.8360	3.2726e-01	3.3787e-02
5177.4190	3.2566e-01	3.9972e-02
5180.0010	3.2462e-01	4.0819e-02
5182.5840	3.2270e-01	4.0936e-02
5185.1660	3.2064e-01	4.0957e-02
5187.7490	3.1825e-01	4.2046e-02
5190.3310	3.1641e-01	4.1480e-02
5192.9140	3.1555e-01	4.1546e-02
5195.4960	3.1441e-01	4.1812e-02
5198.0790	3.1367e-01	4.1798e-02
5200.6610	3.1363e-01	4.4050e-02
5203.2440	3.1594e-01	4.5300e-02
5205.8260	3.1859e-01	4.7696e-02
5208.4090	3.2259e-01	4.8407e-02
5210.9910	3.2662e-01	4.6862e-02
5213.5740	3.2989e-01	4.3945e-02
5216.1560	3.3318e-01	4.3986e-02
5218.7390	3.3694e-01	4.3746e-02
5221.3210	3.4080e-01	4.0381e-02
5223.9040	3.4428e-01	3.4681e-02
5226.4860	3.4770e-01	3.3758e-02
5229.0680	3.5101e-01	3.3802e-02
5231.6510	3.5368e-01	3.2901e-02
5234.2330	3.5595e-01	3.0151e-02
5236.8160	3.5820e-01	2.8655e-02
5239.3980	3.6217e-01	2.6869e-02
5241.9810	3.6513e-01	2.4667e-02
5244.5630	3.6779e-01	2.4714e-02
5247.1460	3.7070e-01	2.3658e-02
5249.7280	3.7428e-01	2.1091e-02
5252.3110	3.7690e-01	1.8120e-02
5254.8930	3.7943e-01	1.7161e-02
5257.4760	3.8085e-01	1.4865e-02
5260.0580	3.8226e-01	1.4113e-02
5262.6410	3.8397e-01	1.4037e-02
5265.2230	3.8616e-01	1.4998e-02
5267.8060	3.8883e-01	1.5042e-02
5270.3880	3.9084e-01	2.0346e-02
5272.9710	3.9367e-01	2.5384e-02
5275.5530	3.9463e-01	3.2131e-02
5278.1360	3.9725e-01	3.2516e-02
5280.7180	3.9861e-01	3.2408e-02
5283.3000	3.9760e-01	3.3641e-02
5285.8830	3.9678e-01	3.4868e-02
5288.4650	3.9781e-01	3.4808e-02
5291.0480	3.9873e-01	3.4992e-02
5293.6300	4.0013e-01	3.4177e-02
5296.2130	4.0252e-01	3.4349e-02
5298.7950	4.0396e-01	3.4516e-02
5301.3780	4.0369e-01	3.4545e-02
5303.9600	4.0435e-01	3.4879e-02
5306.5430	4.0650e-01	3.4355e-02
5309.1250	4.0931e-01	3.4197e-02
5311.7080	4.1251e-01	3.4280e-02
5314.2900	4.1769e-01	3.5973e-02
5316.8730	4.2098e-01	3.4782e-02
5319.4550	4.2265e-01	3.1216e-02
5322.0380	4.2294e-01	2.0040e-02
5324.6200	4.2368e-01	1.7198e-02
5327.2030	4.2394e-01	1.3961e-02
5329.7850	4.2306e-01	1.4748e-02
5332.3680	4.2480e-01	1.7397e-02
5334.9500	4.2629e-01	2.2675e-02
5337.5320	4.2852e-01	2.3961e-02
5340.1150	4.3171e-01	2.4800e-02
5342.6970	4.3402e-01	2.4853e-02
5345.2800	4.3614e-01	2.7090e-02
5347.8620	4.3825e-01	2.6699e-02
5350.4450	4.4198e-01	2.7085e-02
5353.0270	4.4461e-01	2.7197e-02
5355.6100	4.4805e-01	2.7219e-02
5358.1920	4.4998e-01	2.7726e-02
5360.7750	4.5187e-01	2.5261e-02
5363.3570	4.5374e-01	2.6854e-02
5365.9400	4.5364e-01	2.8455e-02
5368.5220	4.5337e-01	2.8561e-02
5371.1050	4.5281e-01	2.8447e-02
5373.6870	4.5164e-01	2.9175e-02
5376.2700	4.5056e-01	2.9180e-02
5378.8520	4.4812e-01	2.9090e-02
5381.4350	4.4615e-01	2.6989e-02
5384.0170	4.4496e-01	2.6743e-02
5386.6000	4.4257e-01	2.6486e-02
5389.1820	4.4168e-01	3.3046e-02
5391.7640	4.4120e-01	3.1139e-02
5394.3470	4.4266e-01	3.0967e-02
5396.9290	4.4276e-01	2.9434e-02
5399.5120	4.4275e-01	2.9383e-02
5402.0940	4.4206e-01	2.9894e-02
5404.6770	4.4222e-01	3.3536e-02
5407.2590	4.4264e-01	3.5662e-02
5409.8420	4.4318e-01	3.7049e-02
5412.4240	4.4309e-01	3.8324e-02
5415.0070	4.4256e-01	3.8327e-02
5417.5890	4.4240e-01	3.8261e-02
5420.1720	4.4244e-01	3.8439e-02
5422.7540	4.4234e-01	3.8744e-02
5425.3370	4.4220e-01	3.9184e-02
5427.9190	4.4279e-01	3.9663e-02
5430.5020	4.4365e-01	4.1386e-02
5433.0840	4.4374e-01	4.1246e-02
5435.6670	4.4286e-01	3.5564e-02
5438.2490	4.4212e-01	3.5098e-02
5440.8320	4.4146e-01	3.4026e-02
5443.4140	4.3940e-01	3.4631e-02
5445.9960	4.3730e-01	3.4618e-02
5448.5790	4.3583e-01	3.4890e-02
5451.1610	4.3537e-01	3.2035e-02
5453.7440	4.3565e-01	3.0704e-02
5456.3260	4.3535e-01	2.7988e-02
5458.9090	4.3503e-01	2.3707e-02
5461.4910	4.3474e-01	2.2803e-02
5464.0740	4.3527e-01	2.1061e-02
5466.6560	4.3573e-01	1.8237e-02
5469.2390	4.3617e-01	1.4917e-02
5471.8210	4.3590e-01	1.5685e-02
5474.4040	4.3596e-01	1.9694e-02
5476.9860	4.3680e-01	1.9684e-02
5479.5690	4.3867e-01	1.9684e-02
5482.1510	4.3920e-01	1.8530e-02
5484.7340	4.3913e-01	1.6716e-02
5487.3160	4.3967e-01	1.7062e-02
5489.8990	4.4004e-01	1.6871e-02
5492.4810	4.4041e-01	1.6251e-02
5495.0640	4.4119e-01	1.5890e-02
5497.6460	4.4246e-01	1.5183e-02
5500.2280	4.4414e-01	1.6226e-02
5502.8110	4.4499e-01	1.5511e-02
5505.3930	4.4635e-01	1.5492e-02
5507.9760	4.4407e-01	1.8161e-02
5510.5580	4.4371e-01	1.8458e-02
5513.1410	4.4270e-01	1.9727e-02
5515.7230	4.4157e-01	2.1281e-02
5518.3060	4.3988e-01	2.1228e-02
5520.8880	4.3875e-01	2.0369e-02
5523.4710	4.3907e-01	1.9081e-02
5526.0530	4.3992e-01	1.9074e-02
5528.6360	4.4105e-01	1.9068e-02
5531.2180	4.4254e-01	1.9067e-02
5533.8010	4.4338e-01	1.8508e-02
5536.3830	4.4556e-01	1.7808e-02
5538.9660	4.4792e-01	1.7700e-02
5541.5480	4.5121e-01	1.8156e-02
5544.1310	4.5232e-01	1.8360e-02
5546.7130	4.5445e-01	1.6769e-02
5549.2960	4.5593e-01	1.7852e-02
5551.8780	4.5857e-01	2.0790e-02
5554.4600	4.5976e-01	1.9389e-02
5557.0430	4.5935e-01	1.9655e-02
5559.6250	4.5999e-01	1.8436e-02
5562.2080	4.5966e-01	1.6242e-02
5564.7900	4.5920e-01	1.6361e-02
5567.3730	4.5866e-01	1.5381e-02
5569.9550	4.5775e-01	1.5250e-02
5572.5380	4.5878e-01	1.5233e-02
5575.1200	4.5879e-01	1.6278e-02
5577.7030	4.5692e-01	1.6462e-02
5580.2850	4.5610e-01	1.8699e-02
5582.8680	4.5511e-01	1.9158e-02
5585.4500	4.5302e-01	2.0837e-02
5588.0330	4.5097e-01	2.1114e-02
5590.6150	4.4866e-01	2.1190e-02
5593.1980	4.4686e-01	2.1179e-02
5595.7800	4.4501e-01	2.1027e-02
5598.3630	4.4252e-01	1.8892e-02
5600.9450	4.4020e-01	1.8915e-02
5603.5280	4.3893e-01	1.9273e-02
5606.1100	4.3893e-01	2.0648e-02
5608.6920	4.3924e-01	2.2875e-02
