#wls	flux	fluxerr
1.600000E+03	-1.052046E-15	-0.000000E+00
1.640000E+03	-1.074248E-15	-0.000000E+00
1.680000E+03	-1.098276E-15	-0.000000E+00
1.720000E+03	-1.124187E-15	-0.000000E+00
1.760000E+03	-1.152138E-15	-0.000000E+00
1.800000E+03	-1.182386E-15	-0.000000E+00
1.840000E+03	-1.214790E-15	-0.000000E+00
1.880000E+03	-1.249711E-15	-0.000000E+00
1.920000E+03	-1.287216E-15	-0.000000E+00
1.960000E+03	-1.327383E-15	-0.000000E+00
2.000000E+03	-1.370209E-15	-0.000000E+00
2.040000E+03	-1.415800E-15	-0.000000E+00
2.080000E+03	-1.464098E-15	-0.000000E+00
2.120000E+03	-1.514888E-15	-0.000000E+00
2.160000E+03	-1.568261E-15	-0.000000E+00
2.200000E+03	-1.623979E-15	-0.000000E+00
2.240000E+03	-1.681935E-15	-0.000000E+00
2.280000E+03	-1.742241E-15	-0.000000E+00
2.320000E+03	-1.805226E-15	-0.000000E+00
2.360000E+03	-1.871520E-15	-0.000000E+00
2.400000E+03	-1.941878E-15	-0.000000E+00
2.440000E+03	-2.017098E-15	-0.000000E+00
2.480000E+03	-2.098287E-15	-0.000000E+00
2.520000E+03	-2.186352E-15	-0.000000E+00
2.560000E+03	-2.282432E-15	-0.000000E+00
2.600000E+03	-2.387477E-15	-0.000000E+00
2.640000E+03	-2.502595E-15	-0.000000E+00
2.680000E+03	-2.628773E-15	-0.000000E+00
2.720000E+03	-2.767033E-15	-0.000000E+00
2.760000E+03	-2.918393E-15	-0.000000E+00
2.800000E+03	-3.083704E-15	-0.000000E+00
2.840000E+03	-3.263625E-15	-0.000000E+00
2.880000E+03	-3.458652E-15	-0.000000E+00
2.920000E+03	-3.668506E-15	-0.000000E+00
2.960000E+03	-3.892448E-15	-0.000000E+00
3.000000E+03	-4.128098E-15	-0.000000E+00
3.010000E+03	-4.188524E-15	-0.000000E+00
3.020000E+03	-4.249293E-15	-0.000000E+00
3.030000E+03	-4.310294E-15	-0.000000E+00
3.040000E+03	-4.371602E-15	-0.000000E+00
3.050000E+03	-4.432989E-15	-0.000000E+00
3.060000E+03	-4.494312E-15	-0.000000E+00
3.070000E+03	-4.555507E-15	-0.000000E+00
3.080000E+03	-4.616307E-15	-0.000000E+00
3.090000E+03	-4.676524E-15	-0.000000E+00
3.100000E+03	-4.736149E-15	-0.000000E+00
3.110000E+03	-4.794771E-15	-0.000000E+00
3.120000E+03	-4.852253E-15	-0.000000E+00
3.130000E+03	-4.908249E-15	-0.000000E+00
3.140000E+03	-4.962789E-15	-0.000000E+00
3.150000E+03	-5.015299E-15	-0.000000E+00
3.160000E+03	-5.065583E-15	-0.000000E+00
3.170000E+03	-5.113435E-15	-0.000000E+00
3.180000E+03	-5.158536E-15	-0.000000E+00
3.190000E+03	-5.200367E-15	-0.000000E+00
3.200000E+03	-5.238881E-15	-0.000000E+00
3.210000E+03	-5.273548E-15	-0.000000E+00
3.220000E+03	-5.304123E-15	-0.000000E+00
3.230000E+03	-5.330175E-15	-0.000000E+00
3.240000E+03	-5.351463E-15	-0.000000E+00
3.250000E+03	-5.367668E-15	-0.000000E+00
3.260000E+03	-5.378480E-15	-0.000000E+00
3.270000E+03	-5.383525E-15	-0.000000E+00
3.280000E+03	-5.382632E-15	-0.000000E+00
3.290000E+03	-5.375571E-15	-0.000000E+00
3.300000E+03	-5.362063E-15	-0.000000E+00
3.310000E+03	-5.342046E-15	-0.000000E+00
3.320000E+03	-5.315331E-15	-0.000000E+00
3.330000E+03	-5.281954E-15	-0.000000E+00
3.340000E+03	-5.241836E-15	-0.000000E+00
3.350000E+03	-5.195049E-15	-0.000000E+00
3.360000E+03	-5.141722E-15	-0.000000E+00
3.370000E+03	-5.082054E-15	-0.000000E+00
3.380000E+03	-5.016304E-15	-0.000000E+00
3.390000E+03	-4.944724E-15	-0.000000E+00
3.400000E+03	-4.867781E-15	-0.000000E+00
3.410000E+03	-4.785783E-15	-0.000000E+00
3.420000E+03	-4.699377E-15	-0.000000E+00
3.430000E+03	-4.608982E-15	-0.000000E+00
3.440000E+03	-4.515204E-15	-0.000000E+00
3.450000E+03	-4.418674E-15	-0.000000E+00
3.460000E+03	-4.319994E-15	-0.000000E+00
3.470000E+03	-4.219893E-15	-0.000000E+00
3.480000E+03	-4.118988E-15	-0.000000E+00
3.490000E+03	-4.017888E-15	-0.000000E+00
3.500000E+03	-3.917241E-15	-0.000000E+00
3.510000E+03	-3.817607E-15	-0.000000E+00
3.520000E+03	-3.719606E-15	-0.000000E+00
3.530000E+03	-3.623616E-15	-0.000000E+00
3.540000E+03	-3.530152E-15	-0.000000E+00
3.550000E+03	-3.439576E-15	-0.000000E+00
3.560000E+03	-3.352238E-15	-0.000000E+00
3.570000E+03	-3.268345E-15	-0.000000E+00
3.580000E+03	-3.188101E-15	-0.000000E+00
3.590000E+03	-3.111728E-15	-0.000000E+00
3.600000E+03	-3.039256E-15	-0.000000E+00
3.610000E+03	-2.970813E-15	-0.000000E+00
3.620000E+03	-2.906416E-15	-0.000000E+00
3.630000E+03	-2.846012E-15	-0.000000E+00
3.640000E+03	-2.789544E-15	-0.000000E+00
3.650000E+03	-2.736958E-15	-0.000000E+00
3.660000E+03	-2.688099E-15	-0.000000E+00
3.670000E+03	-2.642878E-15	-0.000000E+00
3.680000E+03	-2.601061E-15	-0.000000E+00
3.690000E+03	-2.562480E-15	-0.000000E+00
3.700000E+03	-2.526917E-15	-0.000000E+00
3.710000E+03	-2.494166E-15	-0.000000E+00
3.720000E+03	-2.463959E-15	-0.000000E+00
3.730000E+03	-2.436071E-15	-0.000000E+00
3.740000E+03	-2.410248E-15	-0.000000E+00
3.750000E+03	-2.386260E-15	-0.000000E+00
3.760000E+03	-2.363857E-15	-0.000000E+00
3.770000E+03	-2.342820E-15	-0.000000E+00
3.780000E+03	-2.322914E-15	-0.000000E+00
3.790000E+03	-2.303927E-15	-0.000000E+00
3.800000E+03	-2.285720E-15	-0.000000E+00
3.810000E+03	-2.268068E-15	-0.000000E+00
3.820000E+03	-2.250852E-15	-0.000000E+00
3.830000E+03	-2.233971E-15	-0.000000E+00
3.840000E+03	-2.217279E-15	-0.000000E+00
3.850000E+03	-2.200696E-15	-0.000000E+00
3.860000E+03	-2.184173E-15	-0.000000E+00
3.870000E+03	-2.167663E-15	-0.000000E+00
3.880000E+03	-2.151129E-15	-0.000000E+00
3.890000E+03	-2.134529E-15	-0.000000E+00
3.900000E+03	-2.117874E-15	-0.000000E+00
3.910000E+03	-2.101161E-15	-0.000000E+00
3.920000E+03	-2.084394E-15	-0.000000E+00
3.930000E+03	-2.067586E-15	-0.000000E+00
3.940000E+03	-2.050755E-15	-0.000000E+00
3.950000E+03	-2.033939E-15	-0.000000E+00
3.960000E+03	-2.017161E-15	-0.000000E+00
3.970000E+03	-2.000428E-15	-0.000000E+00
3.980000E+03	-1.983802E-15	-0.000000E+00
3.990000E+03	-1.967297E-15	-0.000000E+00
4.000000E+03	-1.950959E-15	-0.000000E+00
4.010000E+03	-1.934820E-15	-0.000000E+00
4.020000E+03	-1.918896E-15	-0.000000E+00
4.030000E+03	-1.903252E-15	-0.000000E+00
4.040000E+03	-1.887910E-15	-0.000000E+00
4.050000E+03	-1.872928E-15	-0.000000E+00
4.060000E+03	-1.858353E-15	-0.000000E+00
4.070000E+03	-1.844241E-15	-0.000000E+00
4.080000E+03	-1.830666E-15	-0.000000E+00
4.090000E+03	-1.817723E-15	-0.000000E+00
4.100000E+03	-1.805496E-15	-0.000000E+00
4.110000E+03	-1.794093E-15	-0.000000E+00
4.120000E+03	-1.783664E-15	-0.000000E+00
4.130000E+03	-1.774304E-15	-0.000000E+00
4.140000E+03	-1.766157E-15	-0.000000E+00
4.150000E+03	-1.759339E-15	-0.000000E+00
4.160000E+03	-1.753958E-15	-0.000000E+00
4.170000E+03	-1.750104E-15	-0.000000E+00
4.180000E+03	-1.747837E-15	-0.000000E+00
4.190000E+03	-1.747191E-15	-0.000000E+00
4.200000E+03	-1.748164E-15	-0.000000E+00
4.210000E+03	-1.750722E-15	-0.000000E+00
4.220000E+03	-1.754787E-15	-0.000000E+00
4.230000E+03	-1.760235E-15	-0.000000E+00
4.240000E+03	-1.766916E-15	-0.000000E+00
4.250000E+03	-1.774659E-15	-0.000000E+00
4.260000E+03	-1.783245E-15	-0.000000E+00
4.270000E+03	-1.792390E-15	-0.000000E+00
4.280000E+03	-1.801833E-15	-0.000000E+00
4.290000E+03	-1.811270E-15	-0.000000E+00
4.300000E+03	-1.820386E-15	-0.000000E+00
4.310000E+03	-1.828856E-15	-0.000000E+00
4.320000E+03	-1.836345E-15	-0.000000E+00
4.330000E+03	-1.842577E-15	-0.000000E+00
4.340000E+03	-1.847234E-15	-0.000000E+00
4.350000E+03	-1.850099E-15	-0.000000E+00
4.360000E+03	-1.850969E-15	-0.000000E+00
4.370000E+03	-1.849704E-15	-0.000000E+00
4.380000E+03	-1.846210E-15	-0.000000E+00
4.390000E+03	-1.840460E-15	-0.000000E+00
4.400000E+03	-1.832474E-15	-0.000000E+00
4.410000E+03	-1.822344E-15	-0.000000E+00
4.420000E+03	-1.810180E-15	-0.000000E+00
4.430000E+03	-1.796115E-15	-0.000000E+00
4.440000E+03	-1.780340E-15	-0.000000E+00
4.450000E+03	-1.763019E-15	-0.000000E+00
4.460000E+03	-1.744342E-15	-0.000000E+00
4.470000E+03	-1.724510E-15	-0.000000E+00
4.480000E+03	-1.703672E-15	-0.000000E+00
4.490000E+03	-1.682022E-15	-0.000000E+00
4.500000E+03	-1.659730E-15	-0.000000E+00
4.510000E+03	-1.636950E-15	-0.000000E+00
4.520000E+03	-1.613846E-15	-0.000000E+00
4.530000E+03	-1.590580E-15	-0.000000E+00
4.540000E+03	-1.567316E-15	-0.000000E+00
4.550000E+03	-1.544213E-15	-0.000000E+00
4.560000E+03	-1.521414E-15	-0.000000E+00
4.570000E+03	-1.499059E-15	-0.000000E+00
4.580000E+03	-1.477326E-15	-0.000000E+00
4.590000E+03	-1.456325E-15	-0.000000E+00
4.600000E+03	-1.436177E-15	-0.000000E+00
4.610000E+03	-1.417017E-15	-0.000000E+00
4.620000E+03	-1.398953E-15	-0.000000E+00
4.630000E+03	-1.382043E-15	-0.000000E+00
4.640000E+03	-1.366415E-15	-0.000000E+00
4.650000E+03	-1.352091E-15	-0.000000E+00
4.660000E+03	-1.339167E-15	-0.000000E+00
4.670000E+03	-1.327689E-15	-0.000000E+00
4.680000E+03	-1.317697E-15	-0.000000E+00
4.690000E+03	-1.309223E-15	-0.000000E+00
4.700000E+03	-1.302294E-15	-0.000000E+00
4.710000E+03	-1.296951E-15	-0.000000E+00
4.720000E+03	-1.293186E-15	-0.000000E+00
4.730000E+03	-1.290989E-15	-0.000000E+00
4.740000E+03	-1.290347E-15	-0.000000E+00
4.750000E+03	-1.291189E-15	-0.000000E+00
4.760000E+03	-1.293489E-15	-0.000000E+00
4.770000E+03	-1.297121E-15	-0.000000E+00
4.780000E+03	-1.302011E-15	-0.000000E+00
4.790000E+03	-1.308039E-15	-0.000000E+00
4.800000E+03	-1.315047E-15	-0.000000E+00
4.810000E+03	-1.322910E-15	-0.000000E+00
4.820000E+03	-1.331494E-15	-0.000000E+00
4.830000E+03	-1.340622E-15	-0.000000E+00
4.840000E+03	-1.350153E-15	-0.000000E+00
4.850000E+03	-1.359932E-15	-0.000000E+00
4.860000E+03	-1.369791E-15	-0.000000E+00
4.870000E+03	-1.379571E-15	-0.000000E+00
4.880000E+03	-1.389130E-15	-0.000000E+00
4.890000E+03	-1.398304E-15	-0.000000E+00
4.900000E+03	-1.406960E-15	-0.000000E+00
4.910000E+03	-1.414936E-15	-0.000000E+00
4.920000E+03	-1.422132E-15	-0.000000E+00
4.930000E+03	-1.428455E-15	-0.000000E+00
4.940000E+03	-1.433823E-15	-0.000000E+00
4.950000E+03	-1.438213E-15	-0.000000E+00
4.960000E+03	-1.441604E-15	-0.000000E+00
4.970000E+03	-1.444025E-15	-0.000000E+00
4.980000E+03	-1.445500E-15	-0.000000E+00
4.990000E+03	-1.446081E-15	-0.000000E+00
5.000000E+03	-1.445815E-15	-0.000000E+00
5.010000E+03	-1.444794E-15	-0.000000E+00
5.020000E+03	-1.443044E-15	-0.000000E+00
5.030000E+03	-1.440614E-15	-0.000000E+00
5.040000E+03	-1.437562E-15	-0.000000E+00
5.050000E+03	-1.433900E-15	-0.000000E+00
5.060000E+03	-1.429650E-15	-0.000000E+00
5.070000E+03	-1.424829E-15	-0.000000E+00
5.080000E+03	-1.419452E-15	-0.000000E+00
5.090000E+03	-1.413523E-15	-0.000000E+00
5.100000E+03	-1.407068E-15	-0.000000E+00
5.110000E+03	-1.400136E-15	-0.000000E+00
5.120000E+03	-1.392745E-15	-0.000000E+00
5.130000E+03	-1.384984E-15	-0.000000E+00
5.140000E+03	-1.376881E-15	-0.000000E+00
5.150000E+03	-1.368546E-15	-0.000000E+00
5.160000E+03	-1.360054E-15	-0.000000E+00
5.170000E+03	-1.351499E-15	-0.000000E+00
5.180000E+03	-1.342974E-15	-0.000000E+00
5.190000E+03	-1.334553E-15	-0.000000E+00
5.200000E+03	-1.326318E-15	-0.000000E+00
5.210000E+03	-1.318325E-15	-0.000000E+00
5.220000E+03	-1.310655E-15	-0.000000E+00
5.230000E+03	-1.303308E-15	-0.000000E+00
5.240000E+03	-1.296321E-15	-0.000000E+00
5.250000E+03	-1.289705E-15	-0.000000E+00
5.260000E+03	-1.283460E-15	-0.000000E+00
5.270000E+03	-1.277552E-15	-0.000000E+00
5.280000E+03	-1.271988E-15	-0.000000E+00
5.290000E+03	-1.266746E-15	-0.000000E+00
5.300000E+03	-1.261826E-15	-0.000000E+00
5.310000E+03	-1.257226E-15	-0.000000E+00
5.320000E+03	-1.252978E-15	-0.000000E+00
5.330000E+03	-1.249088E-15	-0.000000E+00
5.340000E+03	-1.245597E-15	-0.000000E+00
5.350000E+03	-1.242545E-15	-0.000000E+00
5.360000E+03	-1.239999E-15	-0.000000E+00
5.370000E+03	-1.237981E-15	-0.000000E+00
5.380000E+03	-1.236563E-15	-0.000000E+00
5.390000E+03	-1.235786E-15	-0.000000E+00
5.400000E+03	-1.235688E-15	-0.000000E+00
5.410000E+03	-1.236270E-15	-0.000000E+00
5.420000E+03	-1.237551E-15	-0.000000E+00
5.430000E+03	-1.239532E-15	-0.000000E+00
5.440000E+03	-1.242154E-15	-0.000000E+00
5.450000E+03	-1.245386E-15	-0.000000E+00
5.460000E+03	-1.249146E-15	-0.000000E+00
5.470000E+03	-1.253356E-15	-0.000000E+00
5.480000E+03	-1.257983E-15	-0.000000E+00
5.490000E+03	-1.262928E-15	-0.000000E+00
5.500000E+03	-1.268128E-15	-0.000000E+00
5.510000E+03	-1.273483E-15	-0.000000E+00
5.520000E+03	-1.278923E-15	-0.000000E+00
5.530000E+03	-1.284310E-15	-0.000000E+00
5.540000E+03	-1.289548E-15	-0.000000E+00
5.550000E+03	-1.294517E-15	-0.000000E+00
5.560000E+03	-1.299149E-15	-0.000000E+00
5.570000E+03	-1.303337E-15	-0.000000E+00
5.580000E+03	-1.307019E-15	-0.000000E+00
5.590000E+03	-1.310136E-15	-0.000000E+00
5.600000E+03	-1.312675E-15	-0.000000E+00
5.610000E+03	-1.314596E-15	-0.000000E+00
5.620000E+03	-1.315898E-15	-0.000000E+00
5.630000E+03	-1.316584E-15	-0.000000E+00
5.640000E+03	-1.316645E-15	-0.000000E+00
5.650000E+03	-1.316081E-15	-0.000000E+00
5.660000E+03	-1.314854E-15	-0.000000E+00
5.670000E+03	-1.312944E-15	-0.000000E+00
5.680000E+03	-1.310321E-15	-0.000000E+00
5.690000E+03	-1.306932E-15	-0.000000E+00
5.700000E+03	-1.302719E-15	-0.000000E+00
5.710000E+03	-1.297623E-15	-0.000000E+00
5.720000E+03	-1.291621E-15	-0.000000E+00
5.730000E+03	-1.284649E-15	-0.000000E+00
5.740000E+03	-1.276718E-15	-0.000000E+00
5.750000E+03	-1.267839E-15	-0.000000E+00
5.760000E+03	-1.258040E-15	-0.000000E+00
5.770000E+03	-1.247407E-15	-0.000000E+00
5.780000E+03	-1.236058E-15	-0.000000E+00
5.790000E+03	-1.224114E-15	-0.000000E+00
5.800000E+03	-1.211731E-15	-0.000000E+00
5.810000E+03	-1.199108E-15	-0.000000E+00
5.820000E+03	-1.186397E-15	-0.000000E+00
5.830000E+03	-1.173792E-15	-0.000000E+00
5.840000E+03	-1.161459E-15	-0.000000E+00
5.850000E+03	-1.149552E-15	-0.000000E+00
5.860000E+03	-1.138211E-15	-0.000000E+00
5.870000E+03	-1.127514E-15	-0.000000E+00
5.880000E+03	-1.117557E-15	-0.000000E+00
5.890000E+03	-1.108370E-15	-0.000000E+00
5.900000E+03	-1.099962E-15	-0.000000E+00
5.910000E+03	-1.092318E-15	-0.000000E+00
5.920000E+03	-1.085398E-15	-0.000000E+00
5.930000E+03	-1.079152E-15	-0.000000E+00
5.940000E+03	-1.073477E-15	-0.000000E+00
5.950000E+03	-1.068282E-15	-0.000000E+00
5.960000E+03	-1.063481E-15	-0.000000E+00
5.970000E+03	-1.058972E-15	-0.000000E+00
5.980000E+03	-1.054626E-15	-0.000000E+00
5.990000E+03	-1.050372E-15	-0.000000E+00
6.000000E+03	-1.046088E-15	-0.000000E+00
6.010000E+03	-1.041738E-15	-0.000000E+00
6.020000E+03	-1.037236E-15	-0.000000E+00
6.030000E+03	-1.032550E-15	-0.000000E+00
6.040000E+03	-1.027689E-15	-0.000000E+00
6.050000E+03	-1.022657E-15	-0.000000E+00
6.060000E+03	-1.017491E-15	-0.000000E+00
6.070000E+03	-1.012220E-15	-0.000000E+00
6.080000E+03	-1.006931E-15	-0.000000E+00
6.090000E+03	-1.001655E-15	-0.000000E+00
6.100000E+03	-9.964802E-16	-0.000000E+00
6.110000E+03	-9.914507E-16	-0.000000E+00
6.120000E+03	-9.865979E-16	-0.000000E+00
6.130000E+03	-9.819501E-16	-0.000000E+00
6.140000E+03	-9.775311E-16	-0.000000E+00
6.150000E+03	-9.733240E-16	-0.000000E+00
6.160000E+03	-9.693099E-16	-0.000000E+00
6.170000E+03	-9.654817E-16	-0.000000E+00
6.180000E+03	-9.617744E-16	-0.000000E+00
6.190000E+03	-9.581535E-16	-0.000000E+00
6.200000E+03	-9.545798E-16	-0.000000E+00
6.210000E+03	-9.510131E-16	-0.000000E+00
6.220000E+03	-9.473877E-16	-0.000000E+00
6.230000E+03	-9.436519E-16	-0.000000E+00
6.240000E+03	-9.397675E-16	-0.000000E+00
6.250000E+03	-9.356753E-16	-0.000000E+00
6.260000E+03	-9.313437E-16	-0.000000E+00
6.270000E+03	-9.267347E-16	-0.000000E+00
6.280000E+03	-9.218286E-16	-0.000000E+00
6.290000E+03	-9.166014E-16	-0.000000E+00
6.300000E+03	-9.110388E-16	-0.000000E+00
6.310000E+03	-9.051491E-16	-0.000000E+00
6.320000E+03	-8.989523E-16	-0.000000E+00
6.330000E+03	-8.924557E-16	-0.000000E+00
6.340000E+03	-8.857034E-16	-0.000000E+00
6.350000E+03	-8.787511E-16	-0.000000E+00
6.360000E+03	-8.716406E-16	-0.000000E+00
6.370000E+03	-8.644610E-16	-0.000000E+00
6.380000E+03	-8.572859E-16	-0.000000E+00
6.390000E+03	-8.501969E-16	-0.000000E+00
6.400000E+03	-8.432816E-16	-0.000000E+00
6.410000E+03	-8.366542E-16	-0.000000E+00
6.420000E+03	-8.303892E-16	-0.000000E+00
6.430000E+03	-8.245846E-16	-0.000000E+00
6.440000E+03	-8.192890E-16	-0.000000E+00
6.450000E+03	-8.145155E-16	-0.000000E+00
6.460000E+03	-8.102552E-16	-0.000000E+00
6.470000E+03	-8.064611E-16	-0.000000E+00
6.480000E+03	-8.030869E-16	-0.000000E+00
6.490000E+03	-8.000490E-16	-0.000000E+00
6.500000E+03	-7.973183E-16	-0.000000E+00
6.510000E+03	-7.948505E-16	-0.000000E+00
6.520000E+03	-7.925969E-16	-0.000000E+00
6.530000E+03	-7.905413E-16	-0.000000E+00
6.540000E+03	-7.886606E-16	-0.000000E+00
6.550000E+03	-7.869356E-16	-0.000000E+00
6.560000E+03	-7.853486E-16	-0.000000E+00
6.570000E+03	-7.838958E-16	-0.000000E+00
6.580000E+03	-7.825468E-16	-0.000000E+00
6.590000E+03	-7.812823E-16	-0.000000E+00
6.600000E+03	-7.800943E-16	-0.000000E+00
6.610000E+03	-7.789596E-16	-0.000000E+00
6.620000E+03	-7.778411E-16	-0.000000E+00
6.630000E+03	-7.767268E-16	-0.000000E+00
6.640000E+03	-7.755789E-16	-0.000000E+00
6.650000E+03	-7.744003E-16	-0.000000E+00
6.660000E+03	-7.731444E-16	-0.000000E+00
6.670000E+03	-7.717936E-16	-0.000000E+00
6.680000E+03	-7.703476E-16	-0.000000E+00
6.690000E+03	-7.687973E-16	-0.000000E+00
6.700000E+03	-7.671243E-16	-0.000000E+00
6.710000E+03	-7.653274E-16	-0.000000E+00
6.720000E+03	-7.634225E-16	-0.000000E+00
6.730000E+03	-7.614017E-16	-0.000000E+00
6.740000E+03	-7.592858E-16	-0.000000E+00
6.750000E+03	-7.570570E-16	-0.000000E+00
6.760000E+03	-7.547519E-16	-0.000000E+00
6.770000E+03	-7.523534E-16	-0.000000E+00
6.780000E+03	-7.498976E-16	-0.000000E+00
6.790000E+03	-7.473663E-16	-0.000000E+00
6.800000E+03	-7.447809E-16	-0.000000E+00
6.810000E+03	-7.421486E-16	-0.000000E+00
6.820000E+03	-7.394631E-16	-0.000000E+00
6.830000E+03	-7.367451E-16	-0.000000E+00
6.840000E+03	-7.339886E-16	-0.000000E+00
6.850000E+03	-7.312155E-16	-0.000000E+00
6.860000E+03	-7.284070E-16	-0.000000E+00
6.870000E+03	-7.255994E-16	-0.000000E+00
6.880000E+03	-7.227874E-16	-0.000000E+00
6.890000E+03	-7.199779E-16	-0.000000E+00
6.900000E+03	-7.171626E-16	-0.000000E+00
6.910000E+03	-7.143711E-16	-0.000000E+00
6.920000E+03	-7.115615E-16	-0.000000E+00
6.930000E+03	-7.087704E-16	-0.000000E+00
6.940000E+03	-7.059630E-16	-0.000000E+00
6.950000E+03	-7.031292E-16	-0.000000E+00
6.960000E+03	-7.002714E-16	-0.000000E+00
6.970000E+03	-6.973650E-16	-0.000000E+00
6.980000E+03	-6.944006E-16	-0.000000E+00
6.990000E+03	-6.913723E-16	-0.000000E+00
7.000000E+03	-6.882788E-16	-0.000000E+00
7.010000E+03	-6.851243E-16	-0.000000E+00
7.020000E+03	-6.819053E-16	-0.000000E+00
7.030000E+03	-6.786652E-16	-0.000000E+00
7.040000E+03	-6.753856E-16	-0.000000E+00
7.050000E+03	-6.721332E-16	-0.000000E+00
7.060000E+03	-6.688984E-16	-0.000000E+00
7.070000E+03	-6.657409E-16	-0.000000E+00
7.080000E+03	-6.626811E-16	-0.000000E+00
7.090000E+03	-6.597525E-16	-0.000000E+00
7.100000E+03	-6.570002E-16	-0.000000E+00
7.110000E+03	-6.544266E-16	-0.000000E+00
7.120000E+03	-6.520707E-16	-0.000000E+00
7.130000E+03	-6.499407E-16	-0.000000E+00
7.140000E+03	-6.480671E-16	-0.000000E+00
7.150000E+03	-6.464632E-16	-0.000000E+00
7.160000E+03	-6.451253E-16	-0.000000E+00
7.170000E+03	-6.440722E-16	-0.000000E+00
7.180000E+03	-6.432800E-16	-0.000000E+00
7.190000E+03	-6.427737E-16	-0.000000E+00
7.200000E+03	-6.425354E-16	-0.000000E+00
7.210000E+03	-6.425443E-16	-0.000000E+00
7.220000E+03	-6.428020E-16	-0.000000E+00
7.230000E+03	-6.432938E-16	-0.000000E+00
7.240000E+03	-6.439888E-16	-0.000000E+00
7.250000E+03	-6.448663E-16	-0.000000E+00
7.260000E+03	-6.459035E-16	-0.000000E+00
7.270000E+03	-6.470749E-16	-0.000000E+00
7.280000E+03	-6.483547E-16	-0.000000E+00
7.290000E+03	-6.496880E-16	-0.000000E+00
7.300000E+03	-6.510742E-16	-0.000000E+00
7.310000E+03	-6.524736E-16	-0.000000E+00
7.320000E+03	-6.538471E-16	-0.000000E+00
7.330000E+03	-6.551861E-16	-0.000000E+00
7.340000E+03	-6.564443E-16	-0.000000E+00
7.350000E+03	-6.576077E-16	-0.000000E+00
7.360000E+03	-6.586673E-16	-0.000000E+00
7.370000E+03	-6.596066E-16	-0.000000E+00
7.380000E+03	-6.604427E-16	-0.000000E+00
7.390000E+03	-6.611438E-16	-0.000000E+00
7.400000E+03	-6.617533E-16	-0.000000E+00
7.410000E+03	-6.622644E-16	-0.000000E+00
7.420000E+03	-6.627161E-16	-0.000000E+00
7.430000E+03	-6.631228E-16	-0.000000E+00
7.440000E+03	-6.635140E-16	-0.000000E+00
7.450000E+03	-6.639331E-16	-0.000000E+00
7.460000E+03	-6.643931E-16	-0.000000E+00
7.470000E+03	-6.649593E-16	-0.000000E+00
7.480000E+03	-6.656204E-16	-0.000000E+00
7.490000E+03	-6.664140E-16	-0.000000E+00
7.500000E+03	-6.673264E-16	-0.000000E+00
7.510000E+03	-6.683918E-16	-0.000000E+00
