#wls	flux	fluxerr
1.600000E+03	1.960708E-16	3.095073E-19
1.640000E+03	1.973435E-16	3.115120E-19
1.680000E+03	1.985779E-16	3.134560E-19
1.720000E+03	1.998222E-16	3.154154E-19
1.760000E+03	2.010343E-16	3.173239E-19
1.800000E+03	2.022603E-16	3.192541E-19
1.840000E+03	2.034856E-16	3.211831E-19
1.880000E+03	2.047530E-16	3.231782E-19
1.920000E+03	2.060156E-16	3.251656E-19
1.960000E+03	2.073412E-16	3.272523E-19
2.000000E+03	2.087369E-16	3.294493E-19
2.040000E+03	2.102348E-16	3.318074E-19
2.080000E+03	2.118639E-16	3.343723E-19
2.120000E+03	2.135929E-16	3.370947E-19
2.160000E+03	2.154982E-16	3.400949E-19
2.200000E+03	2.175672E-16	3.433534E-19
2.240000E+03	2.197844E-16	3.468453E-19
2.280000E+03	2.221821E-16	3.506217E-19
2.320000E+03	2.247096E-16	3.546026E-19
2.360000E+03	2.273647E-16	3.587846E-19
2.400000E+03	2.300920E-16	3.630801E-19
2.440000E+03	2.328840E-16	3.674773E-19
2.480000E+03	2.357073E-16	3.719234E-19
2.520000E+03	2.384837E-16	3.762952E-19
2.560000E+03	2.411856E-16	3.805490E-19
2.600000E+03	2.437897E-16	3.846480E-19
2.640000E+03	2.462986E-16	3.885965E-19
2.680000E+03	2.486610E-16	3.923131E-19
2.720000E+03	2.508985E-16	3.958325E-19
2.760000E+03	2.530248E-16	3.991761E-19
2.800000E+03	2.550690E-16	4.023896E-19
2.840000E+03	2.570442E-16	4.054937E-19
2.880000E+03	2.590058E-16	4.085761E-19
2.920000E+03	2.610666E-16	4.118145E-19
2.960000E+03	2.633610E-16	4.154209E-19
3.000000E+03	2.661051E-16	4.197361E-19
3.010000E+03	2.668943E-16	4.209775E-19
3.020000E+03	2.677264E-16	4.222866E-19
3.030000E+03	2.686038E-16	4.236671E-19
3.040000E+03	2.695436E-16	4.251459E-19
3.050000E+03	2.705338E-16	4.267042E-19
3.060000E+03	2.716053E-16	4.283908E-19
3.070000E+03	2.727323E-16	4.301648E-19
3.080000E+03	2.739319E-16	4.320532E-19
3.090000E+03	2.752201E-16	4.340813E-19
3.100000E+03	2.765857E-16	4.362316E-19
3.110000E+03	2.780452E-16	4.385299E-19
3.120000E+03	2.796009E-16	4.409798E-19
3.130000E+03	2.812555E-16	4.435855E-19
3.140000E+03	2.829979E-16	4.463297E-19
3.150000E+03	2.848706E-16	4.492794E-19
3.160000E+03	2.868496E-16	4.523966E-19
3.170000E+03	2.889499E-16	4.557051E-19
3.180000E+03	2.911741E-16	4.592089E-19
3.190000E+03	2.935369E-16	4.629312E-19
3.200000E+03	2.960273E-16	4.668546E-19
3.210000E+03	2.986600E-16	4.710025E-19
3.220000E+03	3.014364E-16	4.753767E-19
3.230000E+03	3.043580E-16	4.799799E-19
3.240000E+03	3.074384E-16	4.848335E-19
3.250000E+03	3.106788E-16	4.899391E-19
3.260000E+03	3.140922E-16	4.953176E-19
3.270000E+03	3.176664E-16	5.009494E-19
3.280000E+03	3.214141E-16	5.068548E-19
3.290000E+03	3.253352E-16	5.130335E-19
3.300000E+03	3.294419E-16	5.195047E-19
3.310000E+03	3.337209E-16	5.262474E-19
3.320000E+03	3.381964E-16	5.332999E-19
3.330000E+03	3.428673E-16	5.406603E-19
3.340000E+03	3.477200E-16	5.483073E-19
3.350000E+03	3.527780E-16	5.562778E-19
3.360000E+03	3.580276E-16	5.645503E-19
3.370000E+03	3.634924E-16	5.731619E-19
3.380000E+03	3.691586E-16	5.820908E-19
3.390000E+03	3.750255E-16	5.913361E-19
3.400000E+03	3.811171E-16	6.009354E-19
3.410000E+03	3.874210E-16	6.108694E-19
3.420000E+03	3.939501E-16	6.211580E-19
3.430000E+03	4.007057E-16	6.318038E-19
3.440000E+03	4.076901E-16	6.428098E-19
3.450000E+03	4.149066E-16	6.541817E-19
3.460000E+03	4.223724E-16	6.659465E-19
3.470000E+03	4.300813E-16	6.780941E-19
3.480000E+03	4.380538E-16	6.906572E-19
3.490000E+03	4.462872E-16	7.036312E-19
3.500000E+03	4.547935E-16	7.170353E-19
3.510000E+03	4.635744E-16	7.308720E-19
3.520000E+03	4.726590E-16	7.451872E-19
3.530000E+03	4.820416E-16	7.599719E-19
3.540000E+03	4.917439E-16	7.752603E-19
3.550000E+03	5.017781E-16	7.910714E-19
3.560000E+03	5.121588E-16	8.074287E-19
3.570000E+03	5.229290E-16	8.243995E-19
3.580000E+03	5.340711E-16	8.419563E-19
3.590000E+03	5.456336E-16	8.601753E-19
3.600000E+03	5.576418E-16	8.790966E-19
3.610000E+03	5.701105E-16	8.987435E-19
3.620000E+03	5.830696E-16	9.191629E-19
3.630000E+03	5.965502E-16	9.404039E-19
3.640000E+03	6.106103E-16	9.625580E-19
3.650000E+03	6.252702E-16	9.856571E-19
3.660000E+03	6.405762E-16	1.009774E-18
3.670000E+03	6.565739E-16	1.034981E-18
3.680000E+03	6.732943E-16	1.061326E-18
3.690000E+03	6.907931E-16	1.088898E-18
3.700000E+03	7.090816E-16	1.117714E-18
3.710000E+03	7.282079E-16	1.147850E-18
3.720000E+03	7.481864E-16	1.179328E-18
3.730000E+03	7.690381E-16	1.212182E-18
3.740000E+03	7.907757E-16	1.246432E-18
3.750000E+03	8.133867E-16	1.282057E-18
3.760000E+03	8.368765E-16	1.319067E-18
3.770000E+03	8.612074E-16	1.357401E-18
3.780000E+03	8.863265E-16	1.396977E-18
3.790000E+03	9.121951E-16	1.437734E-18
3.800000E+03	9.387426E-16	1.479559E-18
3.810000E+03	9.658482E-16	1.522263E-18
3.820000E+03	9.934199E-16	1.565700E-18
3.830000E+03	1.021332E-15	1.609673E-18
3.840000E+03	1.049423E-15	1.653927E-18
3.850000E+03	1.077534E-15	1.698211E-18
3.860000E+03	1.105486E-15	1.742243E-18
3.870000E+03	1.133075E-15	1.785703E-18
3.880000E+03	1.160102E-15	1.828275E-18
3.890000E+03	1.186379E-15	1.869665E-18
3.900000E+03	1.211684E-15	1.909521E-18
3.910000E+03	1.235795E-15	1.947495E-18
3.920000E+03	1.258532E-15	1.983304E-18
3.930000E+03	1.279696E-15	2.016632E-18
3.940000E+03	1.299119E-15	2.047216E-18
3.950000E+03	1.316655E-15	2.074824E-18
3.960000E+03	1.332184E-15	2.099270E-18
3.970000E+03	1.345594E-15	2.120376E-18
3.980000E+03	1.356825E-15	2.138048E-18
3.990000E+03	1.365867E-15	2.152270E-18
4.000000E+03	1.372706E-15	2.163020E-18
4.010000E+03	1.377360E-15	2.170326E-18
4.020000E+03	1.379915E-15	2.174327E-18
4.030000E+03	1.380471E-15	2.175176E-18
4.040000E+03	1.379134E-15	2.173041E-18
4.050000E+03	1.376034E-15	2.168131E-18
4.060000E+03	1.371375E-15	2.160762E-18
4.070000E+03	1.365322E-15	2.151198E-18
4.080000E+03	1.358053E-15	2.139718E-18
4.090000E+03	1.349771E-15	2.126644E-18
4.100000E+03	1.340686E-15	2.112302E-18
4.110000E+03	1.331017E-15	2.097043E-18
4.120000E+03	1.320939E-15	2.081139E-18
4.130000E+03	1.310652E-15	2.064905E-18
4.140000E+03	1.300348E-15	2.048645E-18
4.150000E+03	1.290228E-15	2.032676E-18
4.160000E+03	1.280435E-15	2.017222E-18
4.170000E+03	1.271136E-15	2.002547E-18
4.180000E+03	1.262499E-15	1.988913E-18
4.190000E+03	1.254640E-15	1.976507E-18
4.200000E+03	1.247695E-15	1.965542E-18
4.210000E+03	1.241805E-15	1.956237E-18
4.220000E+03	1.237060E-15	1.948737E-18
4.230000E+03	1.233570E-15	1.943214E-18
4.240000E+03	1.231441E-15	1.939835E-18
4.250000E+03	1.230771E-15	1.938754E-18
4.260000E+03	1.231639E-15	1.940097E-18
4.270000E+03	1.234121E-15	1.943980E-18
4.280000E+03	1.238310E-15	1.950553E-18
4.290000E+03	1.244273E-15	1.959921E-18
4.300000E+03	1.252081E-15	1.972194E-18
4.310000E+03	1.261788E-15	1.987456E-18
4.320000E+03	1.273462E-15	2.005819E-18
4.330000E+03	1.287142E-15	2.027339E-18
4.340000E+03	1.302864E-15	2.052074E-18
4.350000E+03	1.320665E-15	2.080084E-18
4.360000E+03	1.340554E-15	2.111382E-18
4.370000E+03	1.362521E-15	2.145951E-18
4.380000E+03	1.386544E-15	2.183758E-18
4.390000E+03	1.412581E-15	2.224735E-18
4.400000E+03	1.440554E-15	2.268760E-18
4.410000E+03	1.470389E-15	2.315718E-18
4.420000E+03	1.501944E-15	2.365381E-18
4.430000E+03	1.535038E-15	2.417467E-18
4.440000E+03	1.569465E-15	2.471652E-18
4.450000E+03	1.604962E-15	2.527519E-18
4.460000E+03	1.641206E-15	2.584562E-18
4.470000E+03	1.677887E-15	2.642292E-18
4.480000E+03	1.714589E-15	2.700051E-18
4.490000E+03	1.750914E-15	2.757217E-18
4.500000E+03	1.786390E-15	2.813044E-18
4.510000E+03	1.820586E-15	2.866853E-18
4.520000E+03	1.852991E-15	2.917841E-18
4.530000E+03	1.883183E-15	2.965343E-18
4.540000E+03	1.910729E-15	3.008676E-18
4.550000E+03	1.935192E-15	3.047156E-18
4.560000E+03	1.956273E-15	3.080306E-18
4.570000E+03	1.973653E-15	3.107630E-18
4.580000E+03	1.987155E-15	3.128847E-18
4.590000E+03	1.996625E-15	3.143714E-18
4.600000E+03	2.002054E-15	3.152219E-18
4.610000E+03	2.003466E-15	3.154398E-18
4.620000E+03	2.000985E-15	3.150449E-18
4.630000E+03	1.994818E-15	3.140696E-18
4.640000E+03	1.985259E-15	3.125603E-18
4.650000E+03	1.972597E-15	3.105625E-18
4.660000E+03	1.957227E-15	3.081383E-18
4.670000E+03	1.939510E-15	3.053448E-18
4.680000E+03	1.919864E-15	3.022477E-18
4.690000E+03	1.898687E-15	2.989096E-18
4.700000E+03	1.876385E-15	2.953945E-18
4.710000E+03	1.853301E-15	2.917564E-18
4.720000E+03	1.829805E-15	2.880536E-18
4.730000E+03	1.806227E-15	2.843378E-18
4.740000E+03	1.782814E-15	2.806483E-18
4.750000E+03	1.759891E-15	2.770359E-18
4.760000E+03	1.737625E-15	2.735272E-18
4.770000E+03	1.716223E-15	2.701545E-18
4.780000E+03	1.695777E-15	2.669322E-18
4.790000E+03	1.676385E-15	2.638761E-18
4.800000E+03	1.658095E-15	2.609936E-18
4.810000E+03	1.640895E-15	2.582825E-18
4.820000E+03	1.624779E-15	2.557423E-18
4.830000E+03	1.609714E-15	2.533675E-18
4.840000E+03	1.595650E-15	2.511503E-18
4.850000E+03	1.582520E-15	2.490803E-18
4.860000E+03	1.570267E-15	2.471485E-18
4.870000E+03	1.558826E-15	2.453443E-18
4.880000E+03	1.548150E-15	2.436607E-18
4.890000E+03	1.538210E-15	2.420928E-18
4.900000E+03	1.528946E-15	2.406315E-18
4.910000E+03	1.520377E-15	2.392796E-18
4.920000E+03	1.512517E-15	2.380393E-18
4.930000E+03	1.505384E-15	2.369135E-18
4.940000E+03	1.499051E-15	2.359135E-18
4.950000E+03	1.493575E-15	2.350486E-18
4.960000E+03	1.489065E-15	2.343357E-18
4.970000E+03	1.485625E-15	2.337911E-18
4.980000E+03	1.483353E-15	2.334303E-18
4.990000E+03	1.482381E-15	2.332742E-18
5.000000E+03	1.482808E-15	2.333383E-18
5.010000E+03	1.484763E-15	2.336426E-18
5.020000E+03	1.488346E-15	2.342034E-18
5.030000E+03	1.493622E-15	2.350303E-18
5.040000E+03	1.500693E-15	2.361397E-18
5.050000E+03	1.509607E-15	2.375393E-18
5.060000E+03	1.520423E-15	2.392380E-18
5.070000E+03	1.533133E-15	2.412346E-18
5.080000E+03	1.547773E-15	2.435349E-18
5.090000E+03	1.564312E-15	2.461339E-18
5.100000E+03	1.582700E-15	2.490238E-18
5.110000E+03	1.602913E-15	2.522008E-18
5.120000E+03	1.624841E-15	2.556475E-18
5.130000E+03	1.648404E-15	2.593514E-18
5.140000E+03	1.673484E-15	2.632938E-18
5.150000E+03	1.699925E-15	2.674503E-18
5.160000E+03	1.727584E-15	2.717983E-18
5.170000E+03	1.756262E-15	2.763065E-18
5.180000E+03	1.785775E-15	2.809460E-18
5.190000E+03	1.815887E-15	2.856795E-18
5.200000E+03	1.846355E-15	2.904690E-18
5.210000E+03	1.876924E-15	2.952743E-18
5.220000E+03	1.907326E-15	3.000531E-18
5.230000E+03	1.937257E-15	3.047578E-18
5.240000E+03	1.966466E-15	3.093488E-18
5.250000E+03	1.994616E-15	3.137731E-18
5.260000E+03	2.021410E-15	3.179839E-18
5.270000E+03	2.046570E-15	3.219376E-18
5.280000E+03	2.069785E-15	3.255852E-18
5.290000E+03	2.090777E-15	3.288831E-18
5.300000E+03	2.109278E-15	3.317892E-18
5.310000E+03	2.125020E-15	3.342611E-18
5.320000E+03	2.137800E-15	3.362671E-18
5.330000E+03	2.147419E-15	3.377759E-18
5.340000E+03	2.153667E-15	3.387544E-18
5.350000E+03	2.156431E-15	3.391849E-18
5.360000E+03	2.155615E-15	3.390522E-18
5.370000E+03	2.151162E-15	3.383477E-18
5.380000E+03	2.143019E-15	3.370626E-18
5.390000E+03	2.131257E-15	3.352086E-18
5.400000E+03	2.115940E-15	3.327954E-18
5.410000E+03	2.097170E-15	3.298391E-18
5.420000E+03	2.075124E-15	3.263678E-18
5.430000E+03	2.050043E-15	3.224192E-18
5.440000E+03	2.022172E-15	3.180319E-18
5.450000E+03	1.991794E-15	3.132506E-18
5.460000E+03	1.959291E-15	3.081352E-18
5.470000E+03	1.924996E-15	3.027379E-18
5.480000E+03	1.889341E-15	2.971271E-18
5.490000E+03	1.852702E-15	2.913615E-18
5.500000E+03	1.815522E-15	2.855112E-18
5.510000E+03	1.778228E-15	2.796429E-18
5.520000E+03	1.741210E-15	2.738183E-18
5.530000E+03	1.704918E-15	2.681080E-18
5.540000E+03	1.669754E-15	2.625754E-18
5.550000E+03	1.636083E-15	2.572775E-18
5.560000E+03	1.604281E-15	2.522737E-18
5.570000E+03	1.574665E-15	2.476137E-18
5.580000E+03	1.547559E-15	2.433486E-18
5.590000E+03	1.523253E-15	2.395240E-18
5.600000E+03	1.501985E-15	2.361770E-18
5.610000E+03	1.483976E-15	2.333427E-18
5.620000E+03	1.469422E-15	2.310516E-18
5.630000E+03	1.458507E-15	2.293329E-18
5.640000E+03	1.451378E-15	2.282094E-18
5.650000E+03	1.448154E-15	2.277002E-18
5.660000E+03	1.448935E-15	2.278206E-18
5.670000E+03	1.453794E-15	2.285821E-18
5.680000E+03	1.462794E-15	2.299949E-18
5.690000E+03	1.475929E-15	2.320577E-18
5.700000E+03	1.493239E-15	2.347768E-18
5.710000E+03	1.514654E-15	2.381414E-18
5.720000E+03	1.540116E-15	2.421422E-18
5.730000E+03	1.569510E-15	2.467612E-18
5.740000E+03	1.602678E-15	2.519736E-18
5.750000E+03	1.639413E-15	2.577464E-18
5.760000E+03	1.679468E-15	2.640413E-18
5.770000E+03	1.722510E-15	2.708057E-18
5.780000E+03	1.768181E-15	2.779834E-18
5.790000E+03	1.816032E-15	2.855034E-18
5.800000E+03	1.865591E-15	2.932921E-18
5.810000E+03	1.916323E-15	3.012649E-18
5.820000E+03	1.967647E-15	3.093308E-18
5.830000E+03	2.018954E-15	3.173940E-18
5.840000E+03	2.069615E-15	3.253554E-18
5.850000E+03	2.119019E-15	3.331191E-18
5.860000E+03	2.166524E-15	3.405841E-18
5.870000E+03	2.211563E-15	3.476615E-18
5.880000E+03	2.253567E-15	3.542618E-18
5.890000E+03	2.292102E-15	3.603166E-18
5.900000E+03	2.326714E-15	3.657546E-18
5.910000E+03	2.357102E-15	3.705286E-18
5.920000E+03	2.383066E-15	3.746072E-18
5.930000E+03	2.404449E-15	3.779655E-18
5.940000E+03	2.421216E-15	3.805984E-18
5.950000E+03	2.433456E-15	3.825196E-18
5.960000E+03	2.441289E-15	3.837481E-18
5.970000E+03	2.444969E-15	3.843239E-18
5.980000E+03	2.444789E-15	3.842929E-18
5.990000E+03	2.441096E-15	3.837100E-18
6.000000E+03	2.434275E-15	3.826351E-18
6.010000E+03	2.424732E-15	3.811328E-18
6.020000E+03	2.412889E-15	3.792688E-18
6.030000E+03	2.399159E-15	3.771083E-18
6.040000E+03	2.383942E-15	3.747143E-18
6.050000E+03	2.367615E-15	3.721458E-18
6.060000E+03	2.350518E-15	3.694563E-18
6.070000E+03	2.332955E-15	3.666937E-18
6.080000E+03	2.315162E-15	3.638950E-18
6.090000E+03	2.297354E-15	3.610942E-18
6.100000E+03	2.279680E-15	3.583145E-18
6.110000E+03	2.262272E-15	3.555765E-18
6.120000E+03	2.245195E-15	3.528909E-18
6.130000E+03	2.228486E-15	3.502630E-18
6.140000E+03	2.212146E-15	3.476933E-18
6.150000E+03	2.196130E-15	3.451746E-18
6.160000E+03	2.180453E-15	3.427093E-18
6.170000E+03	2.165041E-15	3.402856E-18
6.180000E+03	2.149860E-15	3.378984E-18
6.190000E+03	2.134926E-15	3.355501E-18
6.200000E+03	2.120232E-15	3.332397E-18
6.210000E+03	2.105771E-15	3.309658E-18
6.220000E+03	2.091543E-15	3.287287E-18
6.230000E+03	2.077581E-15	3.265334E-18
6.240000E+03	2.063898E-15	3.243822E-18
6.250000E+03	2.050466E-15	3.222704E-18
6.260000E+03	2.037340E-15	3.202067E-18
6.270000E+03	2.024526E-15	3.181923E-18
6.280000E+03	2.012066E-15	3.162335E-18
6.290000E+03	1.999956E-15	3.143298E-18
6.300000E+03	1.988246E-15	3.124891E-18
6.310000E+03	1.976968E-15	3.107163E-18
6.320000E+03	1.966160E-15	3.090174E-18
6.330000E+03	1.955845E-15	3.073962E-18
6.340000E+03	1.946129E-15	3.058690E-18
6.350000E+03	1.937030E-15	3.044390E-18
6.360000E+03	1.928628E-15	3.031187E-18
6.370000E+03	1.921067E-15	3.019305E-18
6.380000E+03	1.914406E-15	3.008838E-18
6.390000E+03	1.908762E-15	2.999971E-18
6.400000E+03	1.904284E-15	2.992937E-18
6.410000E+03	1.901092E-15	2.987926E-18
6.420000E+03	1.899289E-15	2.985097E-18
6.430000E+03	1.898907E-15	2.984503E-18
6.440000E+03	1.899916E-15	2.986096E-18
6.450000E+03	1.902245E-15	2.989764E-18
6.460000E+03	1.905658E-15	2.995137E-18
6.470000E+03	1.909872E-15	3.001769E-18
6.480000E+03	1.914549E-15	3.009130E-18
6.490000E+03	1.919377E-15	3.016729E-18
6.500000E+03	1.923966E-15	3.023952E-18
6.510000E+03	1.928015E-15	3.030328E-18
6.520000E+03	1.931222E-15	3.035382E-18
6.530000E+03	1.933319E-15	3.038691E-18
6.540000E+03	1.934047E-15	3.039849E-18
6.550000E+03	1.933270E-15	3.038643E-18
6.560000E+03	1.930816E-15	3.034802E-18
6.570000E+03	1.926640E-15	3.028254E-18
6.580000E+03	1.920634E-15	3.018830E-18
6.590000E+03	1.912814E-15	3.006556E-18
6.600000E+03	1.903264E-15	2.991562E-18
6.610000E+03	1.891998E-15	2.973874E-18
6.620000E+03	1.879146E-15	2.953691E-18
6.630000E+03	1.864866E-15	2.931264E-18
6.640000E+03	1.849287E-15	2.906795E-18
6.650000E+03	1.832610E-15	2.880601E-18
6.660000E+03	1.815025E-15	2.852980E-18
6.670000E+03	1.796756E-15	2.824284E-18
6.680000E+03	1.777958E-15	2.794756E-18
6.690000E+03	1.758910E-15	2.764835E-18
6.700000E+03	1.739762E-15	2.734757E-18
6.710000E+03	1.720711E-15	2.704833E-18
6.720000E+03	1.701989E-15	2.675425E-18
6.730000E+03	1.683721E-15	2.646730E-18
6.740000E+03	1.666110E-15	2.619068E-18
6.750000E+03	1.649274E-15	2.592624E-18
6.760000E+03	1.633335E-15	2.567591E-18
6.770000E+03	1.618398E-15	2.544134E-18
6.780000E+03	1.604573E-15	2.522423E-18
6.790000E+03	1.591900E-15	2.502524E-18
6.800000E+03	1.580454E-15	2.484553E-18
6.810000E+03	1.570240E-15	2.468520E-18
6.820000E+03	1.561272E-15	2.454445E-18
6.830000E+03	1.553595E-15	2.442400E-18
6.840000E+03	1.547123E-15	2.432249E-18
6.850000E+03	1.541900E-15	2.424062E-18
6.860000E+03	1.537838E-15	2.417701E-18
6.870000E+03	1.534892E-15	2.413095E-18
6.880000E+03	1.533034E-15	2.410198E-18
6.890000E+03	1.532205E-15	2.408921E-18
6.900000E+03	1.532323E-15	2.409133E-18
6.910000E+03	1.533353E-15	2.410778E-18
6.920000E+03	1.535237E-15	2.413766E-18
6.930000E+03	1.537898E-15	2.417977E-18
6.940000E+03	1.541285E-15	2.423328E-18
6.950000E+03	1.545402E-15	2.429830E-18
6.960000E+03	1.550141E-15	2.437307E-18
6.970000E+03	1.555541E-15	2.445827E-18
6.980000E+03	1.561530E-15	2.455272E-18
6.990000E+03	1.568087E-15	2.465611E-18
7.000000E+03	1.575199E-15	2.476823E-18
7.010000E+03	1.582905E-15	2.488968E-18
7.020000E+03	1.591119E-15	2.501915E-18
7.030000E+03	1.599887E-15	2.515732E-18
7.040000E+03	1.609172E-15	2.530364E-18
7.050000E+03	1.618991E-15	2.545835E-18
7.060000E+03	1.629301E-15	2.562079E-18
7.070000E+03	1.640079E-15	2.579060E-18
7.080000E+03	1.651322E-15	2.596772E-18
7.090000E+03	1.662961E-15	2.615107E-18
7.100000E+03	1.674943E-15	2.633984E-18
7.110000E+03	1.687233E-15	2.653345E-18
7.120000E+03	1.699724E-15	2.673022E-18
7.130000E+03	1.712322E-15	2.692869E-18
7.140000E+03	1.724919E-15	2.712715E-18
7.150000E+03	1.737422E-15	2.732414E-18
7.160000E+03	1.749665E-15	2.751706E-18
7.170000E+03	1.761532E-15	2.770406E-18
7.180000E+03	1.772800E-15	2.788165E-18
7.190000E+03	1.783395E-15	2.804866E-18
7.200000E+03	1.793082E-15	2.820138E-18
7.210000E+03	1.801689E-15	2.833713E-18
7.220000E+03	1.809106E-15	2.845419E-18
7.230000E+03	1.815109E-15	2.854900E-18
7.240000E+03	1.819578E-15	2.861968E-18
7.250000E+03	1.822348E-15	2.866365E-18
7.260000E+03	1.823406E-15	2.868068E-18
7.270000E+03	1.822567E-15	2.866787E-18
7.280000E+03	1.819808E-15	2.862489E-18
7.290000E+03	1.815171E-15	2.855234E-18
7.300000E+03	1.808600E-15	2.844938E-18
7.310000E+03	1.800171E-15	2.831720E-18
7.320000E+03	1.789931E-15	2.815651E-18
7.330000E+03	1.778087E-15	2.797060E-18
7.340000E+03	1.764679E-15	2.776008E-18
7.350000E+03	1.749941E-15	2.752862E-18
7.360000E+03	1.734060E-15	2.727919E-18
7.370000E+03	1.717209E-15	2.701450E-18
7.380000E+03	1.699675E-15	2.673904E-18
7.390000E+03	1.681654E-15	2.645593E-18
7.400000E+03	1.663351E-15	2.616835E-18
7.410000E+03	1.645064E-15	2.588103E-18
7.420000E+03	1.626994E-15	2.559712E-18
7.430000E+03	1.609372E-15	2.532025E-18
7.440000E+03	1.592389E-15	2.505341E-18
7.450000E+03	1.576284E-15	2.480039E-18
7.460000E+03	1.561257E-15	2.456433E-18
7.470000E+03	1.547496E-15	2.434817E-18
7.480000E+03	1.535143E-15	2.415417E-18
7.490000E+03	1.524384E-15	2.398525E-18
7.500000E+03	1.515303E-15	2.384272E-18
7.510000E+03	1.508086E-15	2.372950E-18
7.520000E+03	1.502781E-15	2.364638E-18
7.530000E+03	1.499509E-15	2.359524E-18
7.540000E+03	1.498313E-15	2.357677E-18
7.550000E+03	1.499215E-15	2.359132E-18
7.560000E+03	1.502307E-15	2.364032E-18
7.570000E+03	1.507540E-15	2.372302E-18
7.580000E+03	1.514903E-15	2.383924E-18
7.590000E+03	1.524390E-15	2.398890E-18
7.600000E+03	1.535909E-15	2.417053E-18
7.610000E+03	1.549344E-15	2.438231E-18
7.620000E+03	1.564642E-15	2.462343E-18
7.630000E+03	1.581600E-15	2.489067E-18
7.640000E+03	1.600046E-15	2.518134E-18
7.650000E+03	1.619842E-15	2.549328E-18
7.660000E+03	1.640665E-15	2.582138E-18
7.670000E+03	1.662321E-15	2.616260E-18
7.680000E+03	1.684528E-15	2.651250E-18
7.690000E+03	1.706906E-15	2.686511E-18
7.700000E+03	1.729194E-15	2.721630E-18
7.710000E+03	1.751008E-15	2.756006E-18
7.720000E+03	1.771986E-15	2.789065E-18
7.730000E+03	1.791794E-15	2.820285E-18
7.740000E+03	1.809988E-15	2.848965E-18
7.750000E+03	1.826276E-15	2.874646E-18
7.760000E+03	1.840267E-15	2.896712E-18
