#wls	flux	fluxerr
1.600000E+03	9.195891E-17	1.457125E-17
1.640000E+03	9.379475E-17	1.485534E-17
1.680000E+03	9.571676E-17	1.515264E-17
1.720000E+03	9.774932E-17	1.546697E-17
1.760000E+03	9.989948E-17	1.579941E-17
1.800000E+03	1.021750E-16	1.615114E-17
1.840000E+03	1.045844E-16	1.652346E-17
1.880000E+03	1.071574E-16	1.692102E-17
1.920000E+03	1.099057E-16	1.734560E-17
1.960000E+03	1.128201E-16	1.779568E-17
2.000000E+03	1.159570E-16	1.828009E-17
2.040000E+03	1.193102E-16	1.879777E-17
2.080000E+03	1.229192E-16	1.935486E-17
2.120000E+03	1.267796E-16	1.995057E-17
2.160000E+03	1.309352E-16	2.059168E-17
2.200000E+03	1.354342E-16	2.128564E-17
2.240000E+03	1.402775E-16	2.203248E-17
2.280000E+03	1.455190E-16	2.284048E-17
2.320000E+03	1.511626E-16	2.371013E-17
2.360000E+03	1.573243E-16	2.465940E-17
2.400000E+03	1.639583E-16	2.568090E-17
2.440000E+03	1.711901E-16	2.679409E-17
2.480000E+03	1.790354E-16	2.800115E-17
2.520000E+03	1.875718E-16	2.931392E-17
2.560000E+03	1.968498E-16	3.073999E-17
2.600000E+03	2.069554E-16	3.229242E-17
2.640000E+03	2.179794E-16	3.398498E-17
2.680000E+03	2.299440E-16	3.582069E-17
2.720000E+03	2.429772E-16	3.781901E-17
2.760000E+03	2.572132E-16	4.000028E-17
2.800000E+03	2.726684E-16	4.236644E-17
2.840000E+03	2.894692E-16	4.493649E-17
2.880000E+03	3.077387E-16	4.772883E-17
2.920000E+03	3.275472E-16	5.075356E-17
2.960000E+03	3.489446E-16	5.401757E-17
3.000000E+03	3.720988E-16	5.754596E-17
3.010000E+03	3.781678E-16	5.847016E-17
3.020000E+03	3.843767E-16	5.941546E-17
3.030000E+03	3.906750E-16	6.037405E-17
3.040000E+03	3.970608E-16	6.134559E-17
3.050000E+03	4.035823E-16	6.233754E-17
3.060000E+03	4.101873E-16	6.334180E-17
3.070000E+03	4.169755E-16	6.437377E-17
3.080000E+03	4.238431E-16	6.541738E-17
3.090000E+03	4.307867E-16	6.647211E-17
3.100000E+03	4.379077E-16	6.755358E-17
3.110000E+03	4.450989E-16	6.864524E-17
3.120000E+03	4.524624E-16	6.976282E-17
3.130000E+03	4.598892E-16	7.088949E-17
3.140000E+03	4.674284E-16	7.203280E-17
3.150000E+03	4.751303E-16	7.320049E-17
3.160000E+03	4.828825E-16	7.437522E-17
3.170000E+03	4.907893E-16	7.557305E-17
3.180000E+03	4.987914E-16	7.678481E-17
3.190000E+03	5.068835E-16	7.800969E-17
3.200000E+03	5.151159E-16	7.925540E-17
3.210000E+03	5.234836E-16	8.052113E-17
3.220000E+03	5.318680E-16	8.178867E-17
3.230000E+03	5.404318E-16	8.308299E-17
3.240000E+03	5.490555E-16	8.438571E-17
3.250000E+03	5.577891E-16	8.570449E-17
3.260000E+03	5.666254E-16	8.703821E-17
3.270000E+03	5.755569E-16	8.838571E-17
3.280000E+03	5.845759E-16	8.974578E-17
3.290000E+03	5.936741E-16	9.111714E-17
3.300000E+03	6.028429E-16	9.249844E-17
3.310000E+03	6.120732E-16	9.388830E-17
3.320000E+03	6.214146E-16	9.529427E-17
3.330000E+03	6.308576E-16	9.671492E-17
3.340000E+03	6.403338E-16	9.813971E-17
3.350000E+03	6.498328E-16	9.956706E-17
3.360000E+03	6.594621E-16	1.010134E-16
3.370000E+03	6.690928E-16	1.024590E-16
3.380000E+03	6.787730E-16	1.039113E-16
3.390000E+03	6.885505E-16	1.053774E-16
3.400000E+03	6.982953E-16	1.068376E-16
3.410000E+03	7.081137E-16	1.083080E-16
3.420000E+03	7.179937E-16	1.097869E-16
3.430000E+03	7.278635E-16	1.112631E-16
3.440000E+03	7.377103E-16	1.127349E-16
3.450000E+03	7.476396E-16	1.142182E-16
3.460000E+03	7.575199E-16	1.156930E-16
3.470000E+03	7.674556E-16	1.171752E-16
3.480000E+03	7.773156E-16	1.186449E-16
3.490000E+03	7.872034E-16	1.201177E-16
3.500000E+03	7.971049E-16	1.215916E-16
3.510000E+03	8.069473E-16	1.230555E-16
3.520000E+03	8.167747E-16	1.245160E-16
3.530000E+03	8.265723E-16	1.259709E-16
3.540000E+03	8.363256E-16	1.274180E-16
3.550000E+03	8.460197E-16	1.288550E-16
3.560000E+03	8.556401E-16	1.302798E-16
3.570000E+03	8.652291E-16	1.316987E-16
3.580000E+03	8.747142E-16	1.331007E-16
3.590000E+03	8.841929E-16	1.345008E-16
3.600000E+03	8.935387E-16	1.358796E-16
3.610000E+03	9.027921E-16	1.372433E-16
3.620000E+03	9.119933E-16	1.385980E-16
3.630000E+03	9.210719E-16	1.399331E-16
3.640000E+03	9.300665E-16	1.412544E-16
3.650000E+03	9.389099E-16	1.425517E-16
3.660000E+03	9.476933E-16	1.438389E-16
3.670000E+03	9.562951E-16	1.450975E-16
3.680000E+03	9.648074E-16	1.463416E-16
3.690000E+03	9.732131E-16	1.475686E-16
3.700000E+03	9.813973E-16	1.487609E-16
3.710000E+03	9.894978E-16	1.499397E-16
3.720000E+03	9.974500E-16	1.510950E-16
3.730000E+03	1.005240E-15	1.522248E-16
3.740000E+03	1.012854E-15	1.533271E-16
3.750000E+03	1.020282E-15	1.544002E-16
3.760000E+03	1.027605E-15	1.554566E-16
3.770000E+03	1.034716E-15	1.564801E-16
3.780000E+03	1.041651E-15	1.574760E-16
3.790000E+03	1.048397E-15	1.584426E-16
3.800000E+03	1.054945E-15	1.593784E-16
3.810000E+03	1.061330E-15	1.602887E-16
3.820000E+03	1.067496E-15	1.611653E-16
3.830000E+03	1.073524E-15	1.620202E-16
3.840000E+03	1.079316E-15	1.628387E-16
3.850000E+03	1.084908E-15	1.636264E-16
3.860000E+03	1.090294E-15	1.643823E-16
3.870000E+03	1.095468E-15	1.651053E-16
3.880000E+03	1.100464E-15	1.658011E-16
3.890000E+03	1.105237E-15	1.664626E-16
3.900000E+03	1.109823E-15	1.670952E-16
3.910000E+03	1.114219E-15	1.676986E-16
3.920000E+03	1.118383E-15	1.682666E-16
3.930000E+03	1.122354E-15	1.688048E-16
3.940000E+03	1.126165E-15	1.693186E-16
3.950000E+03	1.129746E-15	1.697971E-16
3.960000E+03	1.133132E-15	1.702459E-16
3.970000E+03	1.136326E-15	1.706654E-16
3.980000E+03	1.139332E-15	1.710561E-16
3.990000E+03	1.142187E-15	1.714238E-16
4.000000E+03	1.144828E-15	1.717589E-16
4.010000E+03	1.147328E-15	1.720724E-16
4.020000E+03	1.149626E-15	1.723553E-16
4.030000E+03	1.151763E-15	1.726137E-16
4.040000E+03	1.153778E-15	1.728534E-16
4.050000E+03	1.155618E-15	1.730666E-16
4.060000E+03	1.157291E-15	1.732544E-16
4.070000E+03	1.158840E-15	1.734234E-16
4.080000E+03	1.160272E-15	1.735746E-16
4.090000E+03	1.161542E-15	1.737014E-16
4.100000E+03	1.162720E-15	1.738141E-16
4.110000E+03	1.163760E-15	1.739060E-16
4.120000E+03	1.164704E-15	1.739833E-16
4.130000E+03	1.165537E-15	1.740439E-16
4.140000E+03	1.166247E-15	1.740858E-16
4.150000E+03	1.166901E-15	1.741193E-16
4.160000E+03	1.167434E-15	1.741345E-16
4.170000E+03	1.167888E-15	1.741379E-16
4.180000E+03	1.168276E-15	1.741311E-16
4.190000E+03	1.168588E-15	1.741130E-16
4.200000E+03	1.168816E-15	1.740822E-16
4.210000E+03	1.168974E-15	1.740409E-16
4.220000E+03	1.169054E-15	1.739880E-16
4.230000E+03	1.169071E-15	1.739255E-16
4.240000E+03	1.169019E-15	1.738526E-16
4.250000E+03	1.168910E-15	1.737714E-16
4.260000E+03	1.168718E-15	1.736776E-16
4.270000E+03	1.168457E-15	1.735735E-16
4.280000E+03	1.168120E-15	1.734582E-16
4.290000E+03	1.167721E-15	1.733337E-16
4.300000E+03	1.167234E-15	1.731960E-16
4.310000E+03	1.166654E-15	1.730446E-16
4.320000E+03	1.165975E-15	1.728785E-16
4.330000E+03	1.165193E-15	1.726972E-16
4.340000E+03	1.164284E-15	1.724969E-16
4.350000E+03	1.163242E-15	1.722772E-16
4.360000E+03	1.162047E-15	1.720350E-16
4.370000E+03	1.160678E-15	1.717670E-16
4.380000E+03	1.159132E-15	1.714729E-16
4.390000E+03	1.157336E-15	1.711422E-16
4.400000E+03	1.155310E-15	1.707774E-16
4.410000E+03	1.153000E-15	1.703711E-16
4.420000E+03	1.150359E-15	1.699160E-16
4.430000E+03	1.147374E-15	1.694104E-16
4.440000E+03	1.144014E-15	1.688498E-16
4.450000E+03	1.140238E-15	1.682281E-16
4.460000E+03	1.136080E-15	1.675506E-16
4.470000E+03	1.131543E-15	1.668178E-16
4.480000E+03	1.126694E-15	1.660393E-16
4.490000E+03	1.121546E-15	1.652174E-16
4.500000E+03	1.116158E-15	1.643608E-16
4.510000E+03	1.110558E-15	1.634737E-16
4.520000E+03	1.104787E-15	1.625620E-16
4.530000E+03	1.098853E-15	1.616270E-16
4.540000E+03	1.092824E-15	1.606787E-16
4.550000E+03	1.086694E-15	1.597162E-16
4.560000E+03	1.080481E-15	1.587424E-16
4.570000E+03	1.074237E-15	1.577646E-16
4.580000E+03	1.067965E-15	1.567836E-16
4.590000E+03	1.061686E-15	1.558023E-16
4.600000E+03	1.055418E-15	1.548233E-16
4.610000E+03	1.049179E-15	1.538493E-16
4.620000E+03	1.042973E-15	1.528810E-16
4.630000E+03	1.036832E-15	1.519228E-16
4.640000E+03	1.030772E-15	1.509773E-16
4.650000E+03	1.024809E-15	1.500468E-16
4.660000E+03	1.018948E-15	1.491319E-16
4.670000E+03	1.013203E-15	1.482348E-16
4.680000E+03	1.007603E-15	1.473596E-16
4.690000E+03	1.002139E-15	1.465049E-16
4.700000E+03	9.968488E-16	1.456764E-16
4.710000E+03	9.917363E-16	1.448745E-16
4.720000E+03	9.868147E-16	1.441011E-16
4.730000E+03	9.820976E-16	1.433582E-16
4.740000E+03	9.775871E-16	1.426461E-16
4.750000E+03	9.732958E-16	1.419665E-16
4.760000E+03	9.692241E-16	1.413196E-16
4.770000E+03	9.653971E-16	1.407088E-16
4.780000E+03	9.618028E-16	1.401326E-16
4.790000E+03	9.584637E-16	1.395939E-16
4.800000E+03	9.553683E-16	1.390913E-16
4.810000E+03	9.525162E-16	1.386245E-16
4.820000E+03	9.499289E-16	1.381967E-16
4.830000E+03	9.475926E-16	1.378058E-16
4.840000E+03	9.455172E-16	1.374532E-16
4.850000E+03	9.436770E-16	1.371351E-16
4.860000E+03	9.420822E-16	1.368530E-16
4.870000E+03	9.407277E-16	1.366060E-16
4.880000E+03	9.395993E-16	1.363922E-16
4.890000E+03	9.387053E-16	1.362126E-16
4.900000E+03	9.380191E-16	1.360634E-16
4.910000E+03	9.375463E-16	1.359453E-16
4.920000E+03	9.372726E-16	1.358563E-16
4.930000E+03	9.372010E-16	1.357967E-16
4.940000E+03	9.373057E-16	1.357627E-16
4.950000E+03	9.375903E-16	1.357550E-16
4.960000E+03	9.380479E-16	1.357724E-16
4.970000E+03	9.386606E-16	1.358123E-16
4.980000E+03	9.394313E-16	1.358751E-16
4.990000E+03	9.403304E-16	1.359566E-16
5.000000E+03	9.413706E-16	1.360585E-16
5.010000E+03	9.425223E-16	1.361766E-16
5.020000E+03	9.437847E-16	1.363106E-16
5.030000E+03	9.451497E-16	1.364595E-16
5.040000E+03	9.466048E-16	1.366214E-16
5.050000E+03	9.481410E-16	1.367950E-16
5.060000E+03	9.497367E-16	1.369772E-16
5.070000E+03	9.513892E-16	1.371676E-16
5.080000E+03	9.530777E-16	1.373631E-16
5.090000E+03	9.548093E-16	1.375649E-16
5.100000E+03	9.565535E-16	1.377684E-16
5.110000E+03	9.582955E-16	1.379716E-16
5.120000E+03	9.600445E-16	1.381758E-16
5.130000E+03	9.617667E-16	1.383762E-16
5.140000E+03	9.634495E-16	1.385709E-16
5.150000E+03	9.651000E-16	1.387609E-16
5.160000E+03	9.666963E-16	1.389432E-16
5.170000E+03	9.682147E-16	1.391143E-16
5.180000E+03	9.696531E-16	1.392739E-16
5.190000E+03	9.710097E-16	1.394219E-16
5.200000E+03	9.722524E-16	1.395535E-16
5.210000E+03	9.733791E-16	1.396686E-16
5.220000E+03	9.743889E-16	1.397670E-16
5.230000E+03	9.752523E-16	1.398445E-16
5.240000E+03	9.759783E-16	1.399024E-16
5.250000E+03	9.765483E-16	1.399382E-16
5.260000E+03	9.769521E-16	1.399502E-16
5.270000E+03	9.771839E-16	1.399378E-16
5.280000E+03	9.772354E-16	1.398998E-16
5.290000E+03	9.771097E-16	1.398366E-16
5.300000E+03	9.767930E-16	1.397463E-16
5.310000E+03	9.762796E-16	1.396282E-16
5.320000E+03	9.755672E-16	1.394818E-16
5.330000E+03	9.746620E-16	1.393082E-16
5.340000E+03	9.735536E-16	1.391059E-16
5.350000E+03	9.722418E-16	1.388749E-16
5.360000E+03	9.707253E-16	1.386150E-16
5.370000E+03	9.690177E-16	1.383282E-16
5.380000E+03	9.671011E-16	1.380119E-16
5.390000E+03	9.649983E-16	1.376696E-16
5.400000E+03	9.627034E-16	1.373002E-16
5.410000E+03	9.602236E-16	1.369050E-16
5.420000E+03	9.575632E-16	1.364845E-16
5.430000E+03	9.547302E-16	1.360399E-16
5.440000E+03	9.517225E-16	1.355709E-16
5.450000E+03	9.485685E-16	1.350816E-16
5.460000E+03	9.452568E-16	1.345704E-16
5.470000E+03	9.417983E-16	1.340389E-16
5.480000E+03	9.382213E-16	1.334910E-16
5.490000E+03	9.345073E-16	1.329243E-16
5.500000E+03	9.306874E-16	1.323431E-16
5.510000E+03	9.267717E-16	1.317489E-16
5.520000E+03	9.227623E-16	1.311419E-16
5.530000E+03	9.186699E-16	1.305239E-16
5.540000E+03	9.145153E-16	1.298976E-16
5.550000E+03	9.103003E-16	1.292633E-16
5.560000E+03	9.060539E-16	1.286252E-16
5.570000E+03	9.017687E-16	1.279823E-16
5.580000E+03	8.974641E-16	1.273373E-16
5.590000E+03	8.931498E-16	1.266915E-16
5.600000E+03	8.888355E-16	1.260464E-16
5.610000E+03	8.845303E-16	1.254032E-16
5.620000E+03	8.802428E-16	1.247632E-16
5.630000E+03	8.759897E-16	1.241287E-16
5.640000E+03	8.717698E-16	1.234995E-16
5.650000E+03	8.675986E-16	1.228779E-16
5.660000E+03	8.634738E-16	1.222635E-16
5.670000E+03	8.594012E-16	1.216572E-16
5.680000E+03	8.553944E-16	1.210607E-16
5.690000E+03	8.514493E-16	1.204737E-16
5.700000E+03	8.475698E-16	1.198965E-16
5.710000E+03	8.437678E-16	1.193309E-16
5.720000E+03	8.400374E-16	1.187761E-16
5.730000E+03	8.363810E-16	1.182324E-16
5.740000E+03	8.328001E-16	1.176999E-16
5.750000E+03	8.293039E-16	1.171800E-16
5.760000E+03	8.258851E-16	1.166716E-16
5.770000E+03	8.225355E-16	1.161737E-16
5.780000E+03	8.192714E-16	1.156883E-16
5.790000E+03	8.160836E-16	1.152144E-16
5.800000E+03	8.129635E-16	1.147506E-16
5.810000E+03	8.099176E-16	1.142978E-16
5.820000E+03	8.069442E-16	1.138559E-16
5.830000E+03	8.040415E-16	1.134245E-16
5.840000E+03	8.011995E-16	1.130023E-16
5.850000E+03	7.984160E-16	1.125889E-16
5.860000E+03	7.956963E-16	1.121850E-16
5.870000E+03	7.930301E-16	1.117893E-16
5.880000E+03	7.904145E-16	1.114013E-16
5.890000E+03	7.878547E-16	1.110217E-16
5.900000E+03	7.853324E-16	1.106480E-16
5.910000E+03	7.828524E-16	1.102808E-16
5.920000E+03	7.804044E-16	1.099187E-16
5.930000E+03	7.780006E-16	1.095633E-16
5.940000E+03	7.756155E-16	1.092112E-16
5.950000E+03	7.732613E-16	1.088640E-16
5.960000E+03	7.709278E-16	1.085203E-16
5.970000E+03	7.686123E-16	1.081797E-16
5.980000E+03	7.663120E-16	1.078419E-16
5.990000E+03	7.640245E-16	1.075064E-16
6.000000E+03	7.617395E-16	1.071718E-16
6.010000E+03	7.594548E-16	1.068379E-16
6.020000E+03	7.571751E-16	1.065053E-16
6.030000E+03	7.548833E-16	1.061715E-16
6.040000E+03	7.525843E-16	1.058373E-16
6.050000E+03	7.502759E-16	1.055024E-16
6.060000E+03	7.479410E-16	1.051644E-16
6.070000E+03	7.455919E-16	1.048249E-16
6.080000E+03	7.432117E-16	1.044817E-16
6.090000E+03	7.407983E-16	1.041345E-16
6.100000E+03	7.383423E-16	1.037818E-16
6.110000E+03	7.358483E-16	1.034244E-16
6.120000E+03	7.333000E-16	1.030600E-16
6.130000E+03	7.306950E-16	1.026882E-16
6.140000E+03	7.280240E-16	1.023078E-16
6.150000E+03	7.252708E-16	1.019164E-16
6.160000E+03	7.224329E-16	1.015138E-16
6.170000E+03	7.194875E-16	1.010966E-16
6.180000E+03	7.164252E-16	1.006637E-16
6.190000E+03	7.132512E-16	1.002156E-16
6.200000E+03	7.099631E-16	9.975216E-17
6.210000E+03	7.065866E-16	9.927690E-17
6.220000E+03	7.031189E-16	9.878946E-17
6.230000E+03	6.995785E-16	9.829240E-17
6.240000E+03	6.959560E-16	9.778440E-17
6.250000E+03	6.922691E-16	9.726798E-17
6.260000E+03	6.885153E-16	9.674276E-17
6.270000E+03	6.846921E-16	9.620839E-17
6.280000E+03	6.808172E-16	9.566735E-17
6.290000E+03	6.768746E-16	9.511737E-17
6.300000E+03	6.728685E-16	9.455908E-17
6.310000E+03	6.688103E-16	9.399402E-17
6.320000E+03	6.646906E-16	9.342092E-17
6.330000E+03	6.605079E-16	9.283951E-17
6.340000E+03	6.562669E-16	9.225045E-17
6.350000E+03	6.519728E-16	9.165444E-17
6.360000E+03	6.476110E-16	9.104943E-17
6.370000E+03	6.431938E-16	9.043711E-17
6.380000E+03	6.387207E-16	8.981739E-17
6.390000E+03	6.341849E-16	8.918929E-17
6.400000E+03	6.295868E-16	8.855284E-17
6.410000E+03	6.249334E-16	8.790902E-17
6.420000E+03	6.202197E-16	8.725708E-17
6.430000E+03	6.154409E-16	8.659634E-17
6.440000E+03	6.106057E-16	8.592800E-17
6.450000E+03	6.057106E-16	8.525155E-17
6.460000E+03	6.007593E-16	8.456748E-17
6.470000E+03	5.957434E-16	8.387458E-17
6.480000E+03	5.906737E-16	8.317435E-17
6.490000E+03	5.855551E-16	8.246748E-17
6.500000E+03	5.803806E-16	8.175294E-17
6.510000E+03	5.751681E-16	8.103323E-17
6.520000E+03	5.699231E-16	8.030912E-17
6.530000E+03	5.646577E-16	7.958228E-17
6.540000E+03	5.593775E-16	7.885348E-17
6.550000E+03	5.540944E-16	7.812439E-17
6.560000E+03	5.488201E-16	7.739662E-17
6.570000E+03	5.435657E-16	7.667175E-17
6.580000E+03	5.383312E-16	7.594975E-17
6.590000E+03	5.331334E-16	7.523298E-17
6.600000E+03	5.279773E-16	7.452212E-17
6.610000E+03	5.228679E-16	7.381788E-17
6.620000E+03	5.178100E-16	7.312093E-17
6.630000E+03	5.128139E-16	7.243268E-17
6.640000E+03	5.078835E-16	7.175372E-17
6.650000E+03	5.030230E-16	7.108461E-17
6.660000E+03	4.982418E-16	7.042668E-17
6.670000E+03	4.935324E-16	6.977885E-17
6.680000E+03	4.889091E-16	6.914316E-17
6.690000E+03	4.843694E-16	6.851925E-17
6.700000E+03	4.799163E-16	6.790751E-17
6.710000E+03	4.755577E-16	6.730910E-17
6.720000E+03	4.712907E-16	6.672356E-17
6.730000E+03	4.671224E-16	6.615194E-17
6.740000E+03	4.630442E-16	6.559300E-17
6.750000E+03	4.590683E-16	6.504847E-17
6.760000E+03	4.551959E-16	6.451851E-17
6.770000E+03	4.514227E-16	6.400255E-17
6.780000E+03	4.477446E-16	6.349998E-17
6.790000E+03	4.441776E-16	6.301307E-17
6.800000E+03	4.407066E-16	6.253971E-17
6.810000E+03	4.373368E-16	6.208063E-17
6.820000E+03	4.340735E-16	6.163655E-17
6.830000E+03	4.309110E-16	6.120672E-17
6.840000E+03	4.278488E-16	6.079105E-17
6.850000E+03	4.248861E-16	6.038944E-17
6.860000E+03	4.220223E-16	6.000179E-17
6.870000E+03	4.192609E-16	5.962864E-17
6.880000E+03	4.165910E-16	5.926841E-17
6.890000E+03	4.140158E-16	5.892157E-17
6.900000E+03	4.115386E-16	5.858861E-17
6.910000E+03	4.091479E-16	5.826790E-17
6.920000E+03	4.068514E-16	5.796054E-17
6.930000E+03	4.046422E-16	5.766555E-17
6.940000E+03	4.025133E-16	5.738194E-17
6.950000E+03	4.004719E-16	5.711074E-17
6.960000E+03	3.985109E-16	5.685094E-17
6.970000E+03	3.966227E-16	5.660149E-17
6.980000E+03	3.948145E-16	5.636340E-17
6.990000E+03	3.930787E-16	5.613558E-17
7.000000E+03	3.914076E-16	5.591698E-17
7.010000E+03	3.898083E-16	5.570857E-17
7.020000E+03	3.882727E-16	5.550924E-17
7.030000E+03	3.867981E-16	5.531858E-17
7.040000E+03	3.853769E-16	5.513551E-17
7.050000E+03	3.840155E-16	5.496098E-17
7.060000E+03	3.827062E-16	5.479387E-17
7.070000E+03	3.814461E-16	5.463376E-17
7.080000E+03	3.802323E-16	5.448027E-17
7.090000E+03	3.790619E-16	5.433296E-17
7.100000E+03	3.779322E-16	5.419144E-17
7.110000E+03	3.768449E-16	5.405599E-17
7.120000E+03	3.757881E-16	5.392488E-17
7.130000E+03	3.747637E-16	5.379839E-17
7.140000E+03	3.737740E-16	5.367687E-17
7.150000E+03	3.728117E-16	5.355926E-17
7.160000E+03	3.718748E-16	5.344526E-17
7.170000E+03	3.709609E-16	5.333454E-17
7.180000E+03	3.700678E-16	5.322680E-17
7.190000E+03	3.691986E-16	5.312245E-17
7.200000E+03	3.683418E-16	5.301987E-17
7.210000E+03	3.675101E-16	5.292088E-17
7.220000E+03	3.666880E-16	5.282323E-17
7.230000E+03	3.658833E-16	5.272806E-17
7.240000E+03	3.650904E-16	5.263457E-17
7.250000E+03	3.643129E-16	5.254327E-17
7.260000E+03	3.635453E-16	5.245335E-17
7.270000E+03	3.627918E-16	5.236544E-17
7.280000E+03	3.620518E-16	5.227945E-17
7.290000E+03	3.613203E-16	5.219464E-17
7.300000E+03	3.606017E-16	5.211167E-17
7.310000E+03	3.598963E-16	5.203055E-17
7.320000E+03	3.591992E-16	5.195061E-17
7.330000E+03	3.585203E-16	5.187326E-17
7.340000E+03	3.578552E-16	5.179786E-17
7.350000E+03	3.572042E-16	5.172448E-17
7.360000E+03	3.565729E-16	5.165389E-17
7.370000E+03	3.559570E-16	5.158551E-17
7.380000E+03	3.553621E-16	5.152013E-17
7.390000E+03	3.547843E-16	5.145719E-17
7.400000E+03	3.542244E-16	5.139680E-17
7.410000E+03	3.536881E-16	5.133980E-17
7.420000E+03	3.531761E-16	5.128630E-17
7.430000E+03	3.526801E-16	5.123508E-17
7.440000E+03	3.522056E-16	5.118695E-17
7.450000E+03	3.517535E-16	5.114205E-17
7.460000E+03	3.513247E-16	5.110049E-17
7.470000E+03	3.509248E-16	5.106310E-17
7.480000E+03	3.505496E-16	5.102928E-17
7.490000E+03	3.501998E-16	5.099914E-17
7.500000E+03	3.498764E-16	5.097279E-17
7.510000E+03	3.495795E-16	5.095029E-17
7.520000E+03	3.493050E-16	5.093103E-17
7.530000E+03	3.490628E-16	5.091647E-17
7.540000E+03	3.488389E-16	5.090453E-17
7.550000E+03	3.486429E-16	5.089667E-17
7.560000E+03	3.484703E-16	5.089218E-17
7.570000E+03	3.483257E-16	5.089178E-17
7.580000E+03	3.481997E-16	5.089408E-17
7.590000E+03	3.480966E-16	5.089972E-17
7.600000E+03	3.480117E-16	5.090800E-17
7.610000E+03	3.479540E-16	5.092026E-17
7.620000E+03	3.479139E-16	5.093508E-17
7.630000E+03	3.478909E-16	5.095238E-17
7.640000E+03	3.478893E-16	5.097282E-17
7.650000E+03	3.479040E-16	5.099563E-17
7.660000E+03	3.479392E-16	5.102146E-17
7.670000E+03	3.479900E-16	5.104956E-17
7.680000E+03	3.480606E-16	5.108057E-17
7.690000E+03	3.481462E-16	5.111377E-17
7.700000E+03	3.482464E-16	5.114911E-17
7.710000E+03	3.483612E-16	5.118660E-17
7.720000E+03	3.484954E-16	5.122693E-17
7.730000E+03	3.486444E-16	5.126945E-17
7.740000E+03	3.488134E-16	5.131490E-17
7.750000E+03	3.489979E-16	5.136265E-17
7.760000E+03	3.491988E-16	5.141280E-17
