#wls	flux	fluxerr
1.600000E+03	1.082186E-17	0.000000E+00
1.640000E+03	1.108444E-17	0.000000E+00
1.680000E+03	1.135390E-17	0.000000E+00
1.720000E+03	1.163026E-17	0.000000E+00
1.760000E+03	1.191565E-17	0.000000E+00
1.800000E+03	1.221018E-17	0.000000E+00
1.840000E+03	1.251183E-17	0.000000E+00
1.880000E+03	1.282280E-17	0.000000E+00
1.920000E+03	1.314090E-17	0.000000E+00
1.960000E+03	1.346842E-17	0.000000E+00
2.000000E+03	1.380541E-17	0.000000E+00
2.040000E+03	1.415191E-17	0.000000E+00
2.080000E+03	1.450548E-17	0.000000E+00
2.120000E+03	1.486596E-17	0.000000E+00
2.160000E+03	1.523834E-17	0.000000E+00
2.200000E+03	1.561746E-17	0.000000E+00
2.240000E+03	1.600578E-17	0.000000E+00
2.280000E+03	1.640319E-17	0.000000E+00
2.320000E+03	1.680958E-17	0.000000E+00
2.360000E+03	1.722192E-17	0.000000E+00
2.400000E+03	1.764279E-17	0.000000E+00
2.440000E+03	1.807195E-17	0.000000E+00
2.480000E+03	1.850919E-17	0.000000E+00
2.520000E+03	1.895422E-17	0.000000E+00
2.560000E+03	1.940675E-17	0.000000E+00
2.600000E+03	1.986322E-17	0.000000E+00
2.640000E+03	2.032970E-17	0.000000E+00
2.680000E+03	2.079926E-17	0.000000E+00
2.720000E+03	2.127815E-17	0.000000E+00
2.760000E+03	2.175920E-17	0.000000E+00
2.800000E+03	2.224883E-17	0.000000E+00
2.840000E+03	2.273960E-17	0.000000E+00
2.880000E+03	2.323450E-17	0.000000E+00
2.920000E+03	2.373676E-17	0.000000E+00
2.960000E+03	2.423853E-17	0.000000E+00
3.000000E+03	2.474299E-17	0.000000E+00
3.010000E+03	2.486790E-17	0.000000E+00
3.020000E+03	2.499654E-17	0.000000E+00
3.030000E+03	2.512507E-17	0.000000E+00
3.040000E+03	2.524962E-17	0.000000E+00
3.050000E+03	2.537789E-17	0.000000E+00
3.060000E+03	2.550604E-17	0.000000E+00
3.070000E+03	2.563012E-17	0.000000E+00
3.080000E+03	2.575795E-17	0.000000E+00
3.090000E+03	2.588561E-17	0.000000E+00
3.100000E+03	2.601309E-17	0.000000E+00
3.110000E+03	2.614038E-17	0.000000E+00
3.120000E+03	2.626748E-17	0.000000E+00
3.130000E+03	2.639838E-17	0.000000E+00
3.140000E+03	2.652506E-17	0.000000E+00
3.150000E+03	2.665154E-17	0.000000E+00
3.160000E+03	2.677777E-17	0.000000E+00
3.170000E+03	2.690781E-17	0.000000E+00
3.180000E+03	2.703356E-17	0.000000E+00
3.190000E+03	2.716312E-17	0.000000E+00
3.200000E+03	2.728836E-17	0.000000E+00
3.210000E+03	2.741740E-17	0.000000E+00
3.220000E+03	2.754619E-17	0.000000E+00
3.230000E+03	2.767059E-17	0.000000E+00
3.240000E+03	2.779880E-17	0.000000E+00
3.250000E+03	2.792673E-17	0.000000E+00
3.260000E+03	2.805436E-17	0.000000E+00
3.270000E+03	2.818168E-17	0.000000E+00
3.280000E+03	2.830869E-17	0.000000E+00
3.290000E+03	2.843538E-17	0.000000E+00
3.300000E+03	2.856174E-17	0.000000E+00
3.310000E+03	2.868775E-17	0.000000E+00
3.320000E+03	2.881764E-17	0.000000E+00
3.330000E+03	2.894297E-17	0.000000E+00
3.340000E+03	2.906794E-17	0.000000E+00
3.350000E+03	2.919679E-17	0.000000E+00
3.360000E+03	2.932103E-17	0.000000E+00
3.370000E+03	2.944487E-17	0.000000E+00
3.380000E+03	2.957262E-17	0.000000E+00
3.390000E+03	2.970000E-17	0.000000E+00
3.400000E+03	2.982269E-17	0.000000E+00
3.410000E+03	2.994927E-17	0.000000E+00
3.420000E+03	3.007548E-17	0.000000E+00
3.430000E+03	3.019693E-17	0.000000E+00
3.440000E+03	3.032232E-17	0.000000E+00
3.450000E+03	3.044728E-17	0.000000E+00
3.460000E+03	3.057184E-17	0.000000E+00
3.470000E+03	3.069596E-17	0.000000E+00
3.480000E+03	3.081966E-17	0.000000E+00
3.490000E+03	3.094291E-17	0.000000E+00
3.500000E+03	3.106574E-17	0.000000E+00
3.510000E+03	3.118811E-17	0.000000E+00
3.520000E+03	3.131003E-17	0.000000E+00
3.530000E+03	3.143594E-17	0.000000E+00
3.540000E+03	3.155696E-17	0.000000E+00
3.550000E+03	3.167751E-17	0.000000E+00
3.560000E+03	3.179759E-17	0.000000E+00
3.570000E+03	3.192169E-17	0.000000E+00
3.580000E+03	3.204083E-17	0.000000E+00
3.590000E+03	3.216399E-17	0.000000E+00
3.600000E+03	3.228216E-17	0.000000E+00
3.610000E+03	3.240438E-17	0.000000E+00
3.620000E+03	3.252158E-17	0.000000E+00
3.630000E+03	3.264283E-17	0.000000E+00
3.640000E+03	3.275906E-17	0.000000E+00
3.650000E+03	3.287932E-17	0.000000E+00
3.660000E+03	3.299910E-17	0.000000E+00
3.670000E+03	3.311382E-17	0.000000E+00
3.680000E+03	3.323261E-17	0.000000E+00
3.690000E+03	3.335088E-17	0.000000E+00
3.700000E+03	3.346866E-17	0.000000E+00
3.710000E+03	3.358594E-17	0.000000E+00
3.720000E+03	3.369810E-17	0.000000E+00
3.730000E+03	3.381435E-17	0.000000E+00
3.740000E+03	3.393007E-17	0.000000E+00
3.750000E+03	3.404530E-17	0.000000E+00
3.760000E+03	3.415999E-17	0.000000E+00
3.770000E+03	3.427416E-17	0.000000E+00
3.780000E+03	3.438782E-17	0.000000E+00
3.790000E+03	3.450094E-17	0.000000E+00
3.800000E+03	3.461353E-17	0.000000E+00
3.810000E+03	3.472559E-17	0.000000E+00
3.820000E+03	3.483711E-17	0.000000E+00
3.830000E+03	3.494809E-17	0.000000E+00
3.840000E+03	3.505854E-17	0.000000E+00
3.850000E+03	3.516844E-17	0.000000E+00
3.860000E+03	3.527779E-17	0.000000E+00
3.870000E+03	3.538660E-17	0.000000E+00
3.880000E+03	3.549958E-17	0.000000E+00
3.890000E+03	3.560728E-17	0.000000E+00
3.900000E+03	3.571442E-17	0.000000E+00
3.910000E+03	3.582101E-17	0.000000E+00
3.920000E+03	3.592703E-17	0.000000E+00
3.930000E+03	3.603247E-17	0.000000E+00
3.940000E+03	3.613736E-17	0.000000E+00
3.950000E+03	3.624642E-17	0.000000E+00
3.960000E+03	3.635015E-17	0.000000E+00
3.970000E+03	3.645330E-17	0.000000E+00
3.980000E+03	3.655586E-17	0.000000E+00
3.990000E+03	3.665783E-17	0.000000E+00
4.000000E+03	3.675921E-17	0.000000E+00
4.010000E+03	3.686477E-17	0.000000E+00
4.020000E+03	3.696495E-17	0.000000E+00
4.030000E+03	3.706451E-17	0.000000E+00
4.040000E+03	3.716345E-17	0.000000E+00
4.050000E+03	3.726177E-17	0.000000E+00
4.060000E+03	3.735947E-17	0.000000E+00
4.070000E+03	3.745653E-17	0.000000E+00
4.080000E+03	3.755296E-17	0.000000E+00
4.090000E+03	3.764874E-17	0.000000E+00
4.100000E+03	3.774386E-17	0.000000E+00
4.110000E+03	3.783832E-17	0.000000E+00
4.120000E+03	3.793211E-17	0.000000E+00
4.130000E+03	3.802522E-17	0.000000E+00
4.140000E+03	3.811765E-17	0.000000E+00
4.150000E+03	3.820938E-17	0.000000E+00
4.160000E+03	3.830040E-17	0.000000E+00
4.170000E+03	3.839072E-17	0.000000E+00
4.180000E+03	3.848031E-17	0.000000E+00
4.190000E+03	3.856916E-17	0.000000E+00
4.200000E+03	3.865728E-17	0.000000E+00
4.210000E+03	3.874463E-17	0.000000E+00
4.220000E+03	3.882634E-17	0.000000E+00
4.230000E+03	3.891213E-17	0.000000E+00
4.240000E+03	3.899714E-17	0.000000E+00
4.250000E+03	3.908135E-17	0.000000E+00
4.260000E+03	3.915984E-17	0.000000E+00
4.270000E+03	3.924237E-17	0.000000E+00
4.280000E+03	3.931917E-17	0.000000E+00
4.290000E+03	3.939999E-17	0.000000E+00
4.300000E+03	3.947504E-17	0.000000E+00
4.310000E+03	3.955408E-17	0.000000E+00
4.320000E+03	3.962731E-17	0.000000E+00
4.330000E+03	3.970450E-17	0.000000E+00
4.340000E+03	3.977584E-17	0.000000E+00
4.350000E+03	3.984621E-17	0.000000E+00
4.360000E+03	3.991559E-17	0.000000E+00
4.370000E+03	3.998887E-17	0.000000E+00
4.380000E+03	4.005620E-17	0.000000E+00
4.390000E+03	4.012249E-17	0.000000E+00
4.400000E+03	4.018770E-17	0.000000E+00
4.410000E+03	4.025182E-17	0.000000E+00
4.420000E+03	4.031482E-17	0.000000E+00
4.430000E+03	4.037668E-17	0.000000E+00
4.440000E+03	4.043737E-17	0.000000E+00
4.450000E+03	4.049196E-17	0.000000E+00
4.460000E+03	4.055026E-17	0.000000E+00
4.470000E+03	4.060731E-17	0.000000E+00
4.480000E+03	4.065818E-17	0.000000E+00
4.490000E+03	4.071269E-17	0.000000E+00
4.500000E+03	4.076586E-17	0.000000E+00
4.510000E+03	4.081277E-17	0.000000E+00
4.520000E+03	4.085832E-17	0.000000E+00
4.530000E+03	4.090736E-17	0.000000E+00
4.540000E+03	4.095007E-17	0.000000E+00
4.550000E+03	4.099131E-17	0.000000E+00
4.560000E+03	4.103105E-17	0.000000E+00
4.570000E+03	4.106928E-17	0.000000E+00
4.580000E+03	4.110594E-17	0.000000E+00
4.590000E+03	4.114103E-17	0.000000E+00
4.600000E+03	4.117448E-17	0.000000E+00
4.610000E+03	4.120629E-17	0.000000E+00
4.620000E+03	4.123640E-17	0.000000E+00
4.630000E+03	4.125992E-17	0.000000E+00
4.640000E+03	4.128656E-17	0.000000E+00
4.650000E+03	4.130654E-17	0.000000E+00
4.660000E+03	4.132957E-17	0.000000E+00
4.670000E+03	4.134587E-17	0.000000E+00
4.680000E+03	4.136030E-17	0.000000E+00
4.690000E+03	4.137767E-17	0.000000E+00
4.700000E+03	4.138823E-17	0.000000E+00
4.710000E+03	4.139679E-17	0.000000E+00
4.720000E+03	4.140335E-17	0.000000E+00
4.730000E+03	4.140786E-17	0.000000E+00
4.740000E+03	4.141030E-17	0.000000E+00
4.750000E+03	4.140580E-17	0.000000E+00
4.760000E+03	4.140402E-17	0.000000E+00
4.770000E+03	4.140011E-17	0.000000E+00
4.780000E+03	4.138921E-17	0.000000E+00
4.790000E+03	4.138097E-17	0.000000E+00
4.800000E+03	4.136576E-17	0.000000E+00
4.810000E+03	4.134840E-17	0.000000E+00
4.820000E+03	4.132888E-17	0.000000E+00
4.830000E+03	4.130723E-17	0.000000E+00
4.840000E+03	4.128348E-17	0.000000E+00
4.850000E+03	4.125764E-17	0.000000E+00
4.860000E+03	4.122975E-17	0.000000E+00
4.870000E+03	4.119984E-17	0.000000E+00
4.880000E+03	4.116795E-17	0.000000E+00
4.890000E+03	4.112940E-17	0.000000E+00
4.900000E+03	4.109370E-17	0.000000E+00
4.910000E+03	4.105144E-17	0.000000E+00
4.920000E+03	4.101211E-17	0.000000E+00
4.930000E+03	4.096632E-17	0.000000E+00
4.940000E+03	4.091886E-17	0.000000E+00
4.950000E+03	4.086976E-17	0.000000E+00
4.960000E+03	4.081908E-17	0.000000E+00
4.970000E+03	4.076685E-17	0.000000E+00
4.980000E+03	4.071314E-17	0.000000E+00
4.990000E+03	4.065334E-17	0.000000E+00
5.000000E+03	4.059680E-17	0.000000E+00
5.010000E+03	4.053891E-17	0.000000E+00
5.020000E+03	4.047511E-17	0.000000E+00
5.030000E+03	4.041008E-17	0.000000E+00
5.040000E+03	4.034843E-17	0.000000E+00
5.050000E+03	4.028105E-17	0.000000E+00
5.060000E+03	4.021256E-17	0.000000E+00
5.070000E+03	4.014301E-17	0.000000E+00
5.080000E+03	4.007245E-17	0.000000E+00
5.090000E+03	4.000089E-17	0.000000E+00
5.100000E+03	3.992840E-17	0.000000E+00
5.110000E+03	3.985052E-17	0.000000E+00
5.120000E+03	3.977627E-17	0.000000E+00
5.130000E+03	3.969672E-17	0.000000E+00
5.140000E+03	3.962088E-17	0.000000E+00
5.150000E+03	3.953983E-17	0.000000E+00
5.160000E+03	3.945808E-17	0.000000E+00
5.170000E+03	3.937567E-17	0.000000E+00
5.180000E+03	3.929263E-17	0.000000E+00
5.190000E+03	3.920900E-17	0.000000E+00
5.200000E+03	3.912480E-17	0.000000E+00
5.210000E+03	3.904006E-17	0.000000E+00
5.220000E+03	3.895481E-17	0.000000E+00
5.230000E+03	3.886474E-17	0.000000E+00
5.240000E+03	3.877856E-17	0.000000E+00
5.250000E+03	3.868765E-17	0.000000E+00
5.260000E+03	3.859636E-17	0.000000E+00
5.270000E+03	3.850901E-17	0.000000E+00
5.280000E+03	3.841702E-17	0.000000E+00
5.290000E+03	3.832474E-17	0.000000E+00
5.300000E+03	3.823217E-17	0.000000E+00
5.310000E+03	3.813933E-17	0.000000E+00
5.320000E+03	3.804625E-17	0.000000E+00
5.330000E+03	3.794873E-17	0.000000E+00
5.340000E+03	3.785524E-17	0.000000E+00
5.350000E+03	3.775737E-17	0.000000E+00
5.360000E+03	3.766353E-17	0.000000E+00
5.370000E+03	3.756537E-17	0.000000E+00
5.380000E+03	3.747126E-17	0.000000E+00
5.390000E+03	3.737287E-17	0.000000E+00
5.400000E+03	3.727440E-17	0.000000E+00
5.410000E+03	3.717585E-17	0.000000E+00
5.420000E+03	3.707725E-17	0.000000E+00
5.430000E+03	3.697860E-17	0.000000E+00
5.440000E+03	3.687990E-17	0.000000E+00
5.450000E+03	3.677710E-17	0.000000E+00
5.460000E+03	3.667838E-17	0.000000E+00
5.470000E+03	3.657558E-17	0.000000E+00
5.480000E+03	3.647684E-17	0.000000E+00
5.490000E+03	3.637409E-17	0.000000E+00
5.500000E+03	3.627538E-17	0.000000E+00
5.510000E+03	3.617269E-17	0.000000E+00
5.520000E+03	3.607004E-17	0.000000E+00
5.530000E+03	3.596744E-17	0.000000E+00
5.540000E+03	3.586490E-17	0.000000E+00
5.550000E+03	3.576241E-17	0.000000E+00
5.560000E+03	3.565998E-17	0.000000E+00
5.570000E+03	3.555370E-17	0.000000E+00
5.580000E+03	3.545141E-17	0.000000E+00
5.590000E+03	3.534918E-17	0.000000E+00
5.600000E+03	3.524313E-17	0.000000E+00
5.610000E+03	3.514104E-17	0.000000E+00
5.620000E+03	3.503516E-17	0.000000E+00
5.630000E+03	3.492937E-17	0.000000E+00
5.640000E+03	3.482749E-17	0.000000E+00
5.650000E+03	3.472186E-17	0.000000E+00
5.660000E+03	3.461631E-17	0.000000E+00
5.670000E+03	3.451084E-17	0.000000E+00
5.680000E+03	3.440544E-17	0.000000E+00
5.690000E+03	3.430013E-17	0.000000E+00
5.700000E+03	3.419112E-17	0.000000E+00
5.710000E+03	3.408595E-17	0.000000E+00
5.720000E+03	3.398084E-17	0.000000E+00
5.730000E+03	3.387207E-17	0.000000E+00
5.740000E+03	3.376709E-17	0.000000E+00
5.750000E+03	3.365844E-17	0.000000E+00
5.760000E+03	3.355356E-17	0.000000E+00
5.770000E+03	3.344504E-17	0.000000E+00
5.780000E+03	3.333657E-17	0.000000E+00
5.790000E+03	3.322816E-17	0.000000E+00
5.800000E+03	3.311978E-17	0.000000E+00
5.810000E+03	3.301143E-17	0.000000E+00
5.820000E+03	3.290312E-17	0.000000E+00
5.830000E+03	3.279483E-17	0.000000E+00
5.840000E+03	3.268656E-17	0.000000E+00
5.850000E+03	3.257829E-17	0.000000E+00
5.860000E+03	3.247003E-17	0.000000E+00
5.870000E+03	3.235821E-17	0.000000E+00
5.880000E+03	3.224993E-17	0.000000E+00
5.890000E+03	3.214164E-17	0.000000E+00
5.900000E+03	3.202981E-17	0.000000E+00
5.910000E+03	3.191798E-17	0.000000E+00
5.920000E+03	3.180960E-17	0.000000E+00
5.930000E+03	3.169771E-17	0.000000E+00
5.940000E+03	3.158578E-17	0.000000E+00
5.950000E+03	3.147727E-17	0.000000E+00
5.960000E+03	3.136525E-17	0.000000E+00
5.970000E+03	3.125318E-17	0.000000E+00
5.980000E+03	3.114104E-17	0.000000E+00
5.990000E+03	3.102884E-17	0.000000E+00
6.000000E+03	3.091657E-17	0.000000E+00
6.010000E+03	3.080422E-17	0.000000E+00
6.020000E+03	3.068843E-17	0.000000E+00
6.030000E+03	3.057592E-17	0.000000E+00
6.040000E+03	3.046330E-17	0.000000E+00
6.050000E+03	3.035060E-17	0.000000E+00
6.060000E+03	3.023447E-17	0.000000E+00
6.070000E+03	3.012156E-17	0.000000E+00
6.080000E+03	3.000523E-17	0.000000E+00
6.090000E+03	2.989209E-17	0.000000E+00
6.100000E+03	2.977556E-17	0.000000E+00
6.110000E+03	2.965892E-17	0.000000E+00
6.120000E+03	2.954543E-17	0.000000E+00
6.130000E+03	2.942855E-17	0.000000E+00
6.140000E+03	2.931158E-17	0.000000E+00
6.150000E+03	2.919449E-17	0.000000E+00
6.160000E+03	2.907727E-17	0.000000E+00
6.170000E+03	2.896311E-17	0.000000E+00
6.180000E+03	2.884564E-17	0.000000E+00
6.190000E+03	2.872806E-17	0.000000E+00
6.200000E+03	2.861034E-17	0.000000E+00
6.210000E+03	2.848938E-17	0.000000E+00
6.220000E+03	2.837144E-17	0.000000E+00
6.230000E+03	2.825337E-17	0.000000E+00
6.240000E+03	2.813517E-17	0.000000E+00
6.250000E+03	2.801686E-17	0.000000E+00
6.260000E+03	2.789536E-17	0.000000E+00
6.270000E+03	2.777683E-17	0.000000E+00
6.280000E+03	2.765819E-17	0.000000E+00
6.290000E+03	2.753641E-17	0.000000E+00
6.300000E+03	2.741756E-17	0.000000E+00
6.310000E+03	2.729561E-17	0.000000E+00
6.320000E+03	2.717658E-17	0.000000E+00
6.330000E+03	2.705447E-17	0.000000E+00
6.340000E+03	2.693232E-17	0.000000E+00
6.350000E+03	2.681304E-17	0.000000E+00
6.360000E+03	2.669075E-17	0.000000E+00
6.370000E+03	2.656843E-17	0.000000E+00
6.380000E+03	2.644898E-17	0.000000E+00
6.390000E+03	2.632657E-17	0.000000E+00
6.400000E+03	2.620416E-17	0.000000E+00
6.410000E+03	2.608172E-17	0.000000E+00
6.420000E+03	2.595928E-17	0.000000E+00
6.430000E+03	2.583684E-17	0.000000E+00
6.440000E+03	2.571442E-17	0.000000E+00
6.450000E+03	2.559203E-17	0.000000E+00
6.460000E+03	2.546967E-17	0.000000E+00
6.470000E+03	2.534735E-17	0.000000E+00
6.480000E+03	2.522510E-17	0.000000E+00
6.490000E+03	2.510290E-17	0.000000E+00
6.500000E+03	2.498079E-17	0.000000E+00
6.510000E+03	2.485876E-17	0.000000E+00
6.520000E+03	2.473411E-17	0.000000E+00
6.530000E+03	2.461231E-17	0.000000E+00
6.540000E+03	2.449064E-17	0.000000E+00
6.550000E+03	2.436641E-17	0.000000E+00
6.560000E+03	2.424504E-17	0.000000E+00
6.570000E+03	2.412384E-17	0.000000E+00
6.580000E+03	2.400016E-17	0.000000E+00
6.590000E+03	2.387933E-17	0.000000E+00
6.600000E+03	2.375609E-17	0.000000E+00
6.610000E+03	2.363569E-17	0.000000E+00
6.620000E+03	2.351294E-17	0.000000E+00
6.630000E+03	2.339303E-17	0.000000E+00
6.640000E+03	2.327082E-17	0.000000E+00
6.650000E+03	2.315146E-17	0.000000E+00
6.660000E+03	2.302984E-17	0.000000E+00
6.670000E+03	2.290854E-17	0.000000E+00
6.680000E+03	2.279012E-17	0.000000E+00
6.690000E+03	2.266950E-17	0.000000E+00
6.700000E+03	2.254925E-17	0.000000E+00
6.710000E+03	2.242939E-17	0.000000E+00
6.720000E+03	2.231239E-17	0.000000E+00
6.730000E+03	2.219332E-17	0.000000E+00
6.740000E+03	2.207467E-17	0.000000E+00
6.750000E+03	2.195645E-17	0.000000E+00
6.760000E+03	2.183868E-17	0.000000E+00
6.770000E+03	2.172138E-17	0.000000E+00
6.780000E+03	2.160455E-17	0.000000E+00
6.790000E+03	2.148821E-17	0.000000E+00
6.800000E+03	2.137236E-17	0.000000E+00
6.810000E+03	2.125704E-17	0.000000E+00
6.820000E+03	2.114224E-17	0.000000E+00
6.830000E+03	2.102798E-17	0.000000E+00
6.840000E+03	2.091426E-17	0.000000E+00
6.850000E+03	2.080112E-17	0.000000E+00
6.860000E+03	2.068854E-17	0.000000E+00
6.870000E+03	2.057426E-17	0.000000E+00
6.880000E+03	2.046289E-17	0.000000E+00
6.890000E+03	2.035211E-17	0.000000E+00
6.900000E+03	2.024196E-17	0.000000E+00
6.910000E+03	2.013018E-17	0.000000E+00
6.920000E+03	2.002131E-17	0.000000E+00
6.930000E+03	1.991309E-17	0.000000E+00
6.940000E+03	1.980330E-17	0.000000E+00
6.950000E+03	1.969642E-17	0.000000E+00
6.960000E+03	1.959020E-17	0.000000E+00
6.970000E+03	1.948249E-17	0.000000E+00
6.980000E+03	1.937767E-17	0.000000E+00
6.990000E+03	1.927140E-17	0.000000E+00
7.000000E+03	1.916800E-17	0.000000E+00
7.010000E+03	1.906317E-17	0.000000E+00
7.020000E+03	1.895911E-17	0.000000E+00
7.030000E+03	1.885790E-17	0.000000E+00
7.040000E+03	1.875533E-17	0.000000E+00
7.050000E+03	1.865563E-17	0.000000E+00
7.060000E+03	1.855458E-17	0.000000E+00
7.070000E+03	1.845433E-17	0.000000E+00
7.080000E+03	1.835484E-17	0.000000E+00
7.090000E+03	1.825821E-17	0.000000E+00
7.100000E+03	1.816030E-17	0.000000E+00
7.110000E+03	1.806319E-17	0.000000E+00
7.120000E+03	1.796688E-17	0.000000E+00
7.130000E+03	1.787138E-17	0.000000E+00
7.140000E+03	1.777669E-17	0.000000E+00
7.150000E+03	1.768281E-17	0.000000E+00
7.160000E+03	1.758974E-17	0.000000E+00
7.170000E+03	1.749750E-17	0.000000E+00
7.180000E+03	1.740608E-17	0.000000E+00
7.190000E+03	1.731547E-17	0.000000E+00
7.200000E+03	1.722571E-17	0.000000E+00
7.210000E+03	1.713676E-17	0.000000E+00
7.220000E+03	1.704864E-17	0.000000E+00
7.230000E+03	1.696135E-17	0.000000E+00
7.240000E+03	1.687490E-17	0.000000E+00
7.250000E+03	1.678738E-17	0.000000E+00
7.260000E+03	1.670260E-17	0.000000E+00
7.270000E+03	1.661865E-17	0.000000E+00
7.280000E+03	1.653554E-17	0.000000E+00
7.290000E+03	1.645140E-17	0.000000E+00
7.300000E+03	1.636996E-17	0.000000E+00
7.310000E+03	1.628935E-17	0.000000E+00
7.320000E+03	1.620774E-17	0.000000E+00
7.330000E+03	1.612880E-17	0.000000E+00
7.340000E+03	1.604887E-17	0.000000E+00
7.350000E+03	1.597160E-17	0.000000E+00
7.360000E+03	1.589336E-17	0.000000E+00
7.370000E+03	1.581595E-17	0.000000E+00
7.380000E+03	1.574117E-17	0.000000E+00
7.390000E+03	1.566543E-17	0.000000E+00
7.400000E+03	1.559051E-17	0.000000E+00
7.410000E+03	1.551821E-17	0.000000E+00
7.420000E+03	1.544496E-17	0.000000E+00
7.430000E+03	1.537253E-17	0.000000E+00
7.440000E+03	1.530092E-17	0.000000E+00
7.450000E+03	1.523188E-17	0.000000E+00
7.460000E+03	1.516190E-17	0.000000E+00
7.470000E+03	1.509274E-17	0.000000E+00
7.480000E+03	1.502438E-17	0.000000E+00
7.490000E+03	1.495683E-17	0.000000E+00
7.500000E+03	1.489008E-17	0.000000E+00
7.510000E+03	1.482413E-17	0.000000E+00
7.520000E+03	1.475897E-17	0.000000E+00
7.530000E+03	1.469292E-17	0.000000E+00
7.540000E+03	1.462934E-17	0.000000E+00
7.550000E+03	1.456654E-17	0.000000E+00
7.560000E+03	1.450453E-17	0.000000E+00
7.570000E+03	1.444329E-17	0.000000E+00
7.580000E+03	1.438114E-17	0.000000E+00
7.590000E+03	1.432143E-17	0.000000E+00
7.600000E+03	1.426248E-17	0.000000E+00
7.610000E+03	1.420263E-17	0.000000E+00
7.620000E+03	1.414518E-17	0.000000E+00
7.630000E+03	1.408684E-17	0.000000E+00
7.640000E+03	1.403087E-17	0.000000E+00
7.650000E+03	1.397402E-17	0.000000E+00
7.660000E+03	1.391791E-17	0.000000E+00
7.670000E+03	1.386413E-17	0.000000E+00
7.680000E+03	1.380947E-17	0.000000E+00
7.690000E+03	1.375552E-17	0.000000E+00
7.700000E+03	1.370388E-17	0.000000E+00
7.710000E+03	1.365135E-17	0.000000E+00
7.720000E+03	1.359952E-17	0.000000E+00
7.730000E+03	1.354840E-17	0.000000E+00
7.740000E+03	1.349796E-17	0.000000E+00
7.750000E+03	1.344821E-17	0.000000E+00
7.760000E+03	1.339913E-17	0.000000E+00
