#wls	flux	fluxerr
1.600000E+03	1.522580E-17	0.000000E+00
1.640000E+03	1.553067E-17	0.000000E+00
1.680000E+03	1.583962E-17	0.000000E+00
1.720000E+03	1.615826E-17	0.000000E+00
1.760000E+03	1.648384E-17	0.000000E+00
1.800000E+03	1.681638E-17	0.000000E+00
1.840000E+03	1.715591E-17	0.000000E+00
1.880000E+03	1.750553E-17	0.000000E+00
1.920000E+03	1.786220E-17	0.000000E+00
1.960000E+03	1.822596E-17	0.000000E+00
2.000000E+03	1.859675E-17	0.000000E+00
2.040000E+03	1.897785E-17	0.000000E+00
2.080000E+03	1.936601E-17	0.000000E+00
2.120000E+03	1.976117E-17	0.000000E+00
2.160000E+03	2.016322E-17	0.000000E+00
2.200000E+03	2.057567E-17	0.000000E+00
2.240000E+03	2.099494E-17	0.000000E+00
2.280000E+03	2.142095E-17	0.000000E+00
2.320000E+03	2.185350E-17	0.000000E+00
2.360000E+03	2.229635E-17	0.000000E+00
2.400000E+03	2.274560E-17	0.000000E+00
2.440000E+03	2.320109E-17	0.000000E+00
2.480000E+03	2.366665E-17	0.000000E+00
2.520000E+03	2.413821E-17	0.000000E+00
2.560000E+03	2.461551E-17	0.000000E+00
2.600000E+03	2.509834E-17	0.000000E+00
2.640000E+03	2.559082E-17	0.000000E+00
2.680000E+03	2.608848E-17	0.000000E+00
2.720000E+03	2.659104E-17	0.000000E+00
2.760000E+03	2.710286E-17	0.000000E+00
2.800000E+03	2.761916E-17	0.000000E+00
2.840000E+03	2.813968E-17	0.000000E+00
2.880000E+03	2.866410E-17	0.000000E+00
2.920000E+03	2.919702E-17	0.000000E+00
2.960000E+03	2.973337E-17	0.000000E+00
3.000000E+03	3.027282E-17	0.000000E+00
3.010000E+03	3.040557E-17	0.000000E+00
3.020000E+03	3.054358E-17	0.000000E+00
3.030000E+03	3.068178E-17	0.000000E+00
3.040000E+03	3.081500E-17	0.000000E+00
3.050000E+03	3.095354E-17	0.000000E+00
3.060000E+03	3.109223E-17	0.000000E+00
3.070000E+03	3.122585E-17	0.000000E+00
3.080000E+03	3.136484E-17	0.000000E+00
3.090000E+03	3.150398E-17	0.000000E+00
3.100000E+03	3.163799E-17	0.000000E+00
3.110000E+03	3.177738E-17	0.000000E+00
3.120000E+03	3.191690E-17	0.000000E+00
3.130000E+03	3.205655E-17	0.000000E+00
3.140000E+03	3.219098E-17	0.000000E+00
3.150000E+03	3.233084E-17	0.000000E+00
3.160000E+03	3.247083E-17	0.000000E+00
3.170000E+03	3.261090E-17	0.000000E+00
3.180000E+03	3.275108E-17	0.000000E+00
3.190000E+03	3.289135E-17	0.000000E+00
3.200000E+03	3.302624E-17	0.000000E+00
3.210000E+03	3.316666E-17	0.000000E+00
3.220000E+03	3.330714E-17	0.000000E+00
3.230000E+03	3.344770E-17	0.000000E+00
3.240000E+03	3.358833E-17	0.000000E+00
3.250000E+03	3.372900E-17	0.000000E+00
3.260000E+03	3.386973E-17	0.000000E+00
3.270000E+03	3.401050E-17	0.000000E+00
3.280000E+03	3.415130E-17	0.000000E+00
3.290000E+03	3.429215E-17	0.000000E+00
3.300000E+03	3.443301E-17	0.000000E+00
3.310000E+03	3.457390E-17	0.000000E+00
3.320000E+03	3.471480E-17	0.000000E+00
3.330000E+03	3.485571E-17	0.000000E+00
3.340000E+03	3.499661E-17	0.000000E+00
3.350000E+03	3.513750E-17	0.000000E+00
3.360000E+03	3.527839E-17	0.000000E+00
3.370000E+03	3.541925E-17	0.000000E+00
3.380000E+03	3.556009E-17	0.000000E+00
3.390000E+03	3.570091E-17	0.000000E+00
3.400000E+03	3.584168E-17	0.000000E+00
3.410000E+03	3.598240E-17	0.000000E+00
3.420000E+03	3.612306E-17	0.000000E+00
3.430000E+03	3.626960E-17	0.000000E+00
3.440000E+03	3.641016E-17	0.000000E+00
3.450000E+03	3.655065E-17	0.000000E+00
3.460000E+03	3.669106E-17	0.000000E+00
3.470000E+03	3.683138E-17	0.000000E+00
3.480000E+03	3.697160E-17	0.000000E+00
3.490000E+03	3.711776E-17	0.000000E+00
3.500000E+03	3.725779E-17	0.000000E+00
3.510000E+03	3.739771E-17	0.000000E+00
3.520000E+03	3.753750E-17	0.000000E+00
3.530000E+03	3.767717E-17	0.000000E+00
3.540000E+03	3.782281E-17	0.000000E+00
3.550000E+03	3.796221E-17	0.000000E+00
3.560000E+03	3.810144E-17	0.000000E+00
3.570000E+03	3.824052E-17	0.000000E+00
3.580000E+03	3.837941E-17	0.000000E+00
3.590000E+03	3.852435E-17	0.000000E+00
3.600000E+03	3.866290E-17	0.000000E+00
3.610000E+03	3.880125E-17	0.000000E+00
3.620000E+03	3.894567E-17	0.000000E+00
3.630000E+03	3.908362E-17	0.000000E+00
3.640000E+03	3.922136E-17	0.000000E+00
3.650000E+03	3.935885E-17	0.000000E+00
3.660000E+03	3.950246E-17	0.000000E+00
3.670000E+03	3.963948E-17	0.000000E+00
3.680000E+03	3.977625E-17	0.000000E+00
3.690000E+03	3.991275E-17	0.000000E+00
3.700000E+03	4.005537E-17	0.000000E+00
3.710000E+03	4.019133E-17	0.000000E+00
3.720000E+03	4.032698E-17	0.000000E+00
3.730000E+03	4.046877E-17	0.000000E+00
3.740000E+03	4.060382E-17	0.000000E+00
3.750000E+03	4.073854E-17	0.000000E+00
3.760000E+03	4.087943E-17	0.000000E+00
3.770000E+03	4.101347E-17	0.000000E+00
3.780000E+03	4.114714E-17	0.000000E+00
3.790000E+03	4.128045E-17	0.000000E+00
3.800000E+03	4.141995E-17	0.000000E+00
3.810000E+03	4.155250E-17	0.000000E+00
3.820000E+03	4.168463E-17	0.000000E+00
3.830000E+03	4.182299E-17	0.000000E+00
3.840000E+03	4.195429E-17	0.000000E+00
3.850000E+03	4.208516E-17	0.000000E+00
3.860000E+03	4.222224E-17	0.000000E+00
3.870000E+03	4.235219E-17	0.000000E+00
3.880000E+03	4.248167E-17	0.000000E+00
3.890000E+03	4.261738E-17	0.000000E+00
3.900000E+03	4.274586E-17	0.000000E+00
3.910000E+03	4.287382E-17	0.000000E+00
3.920000E+03	4.300124E-17	0.000000E+00
3.930000E+03	4.313493E-17	0.000000E+00
3.940000E+03	4.326126E-17	0.000000E+00
3.950000E+03	4.338701E-17	0.000000E+00
3.960000E+03	4.351901E-17	0.000000E+00
3.970000E+03	4.364358E-17	0.000000E+00
3.980000E+03	4.376752E-17	0.000000E+00
3.990000E+03	4.389082E-17	0.000000E+00
4.000000E+03	4.402038E-17	0.000000E+00
4.010000E+03	4.414237E-17	0.000000E+00
4.020000E+03	4.426367E-17	0.000000E+00
4.030000E+03	4.438427E-17	0.000000E+00
4.040000E+03	4.451112E-17	0.000000E+00
4.050000E+03	4.463027E-17	0.000000E+00
4.060000E+03	4.474867E-17	0.000000E+00
4.070000E+03	4.486630E-17	0.000000E+00
4.080000E+03	4.498315E-17	0.000000E+00
4.090000E+03	4.510621E-17	0.000000E+00
4.100000E+03	4.522144E-17	0.000000E+00
4.110000E+03	4.533581E-17	0.000000E+00
4.120000E+03	4.544932E-17	0.000000E+00
4.130000E+03	4.556195E-17	0.000000E+00
4.140000E+03	4.568079E-17	0.000000E+00
4.150000E+03	4.579161E-17	0.000000E+00
4.160000E+03	4.590148E-17	0.000000E+00
4.170000E+03	4.601040E-17	0.000000E+00
4.180000E+03	4.611834E-17	0.000000E+00
4.190000E+03	4.622527E-17	0.000000E+00
4.200000E+03	4.633119E-17	0.000000E+00
4.210000E+03	4.643606E-17	0.000000E+00
4.220000E+03	4.653986E-17	0.000000E+00
4.230000E+03	4.664979E-17	0.000000E+00
4.240000E+03	4.675142E-17	0.000000E+00
4.250000E+03	4.685192E-17	0.000000E+00
4.260000E+03	4.695127E-17	0.000000E+00
4.270000E+03	4.704945E-17	0.000000E+00
4.280000E+03	4.714643E-17	0.000000E+00
4.290000E+03	4.724220E-17	0.000000E+00
4.300000E+03	4.733673E-17	0.000000E+00
4.310000E+03	4.743000E-17	0.000000E+00
4.320000E+03	4.752199E-17	0.000000E+00
4.330000E+03	4.760535E-17	0.000000E+00
4.340000E+03	4.769469E-17	0.000000E+00
4.350000E+03	4.778269E-17	0.000000E+00
4.360000E+03	4.786932E-17	0.000000E+00
4.370000E+03	4.795454E-17	0.000000E+00
4.380000E+03	4.803835E-17	0.000000E+00
4.390000E+03	4.812071E-17	0.000000E+00
4.400000E+03	4.820162E-17	0.000000E+00
4.410000E+03	4.827365E-17	0.000000E+00
4.420000E+03	4.835155E-17	0.000000E+00
4.430000E+03	4.842793E-17	0.000000E+00
4.440000E+03	4.850275E-17	0.000000E+00
4.450000E+03	4.856858E-17	0.000000E+00
4.460000E+03	4.864021E-17	0.000000E+00
4.470000E+03	4.871025E-17	0.000000E+00
4.480000E+03	4.877863E-17	0.000000E+00
4.490000E+03	4.883792E-17	0.000000E+00
4.500000E+03	4.890296E-17	0.000000E+00
4.510000E+03	4.896629E-17	0.000000E+00
4.520000E+03	4.902045E-17	0.000000E+00
4.530000E+03	4.908032E-17	0.000000E+00
4.540000E+03	4.913097E-17	0.000000E+00
4.550000E+03	4.918730E-17	0.000000E+00
4.560000E+03	4.923435E-17	0.000000E+00
4.570000E+03	4.928706E-17	0.000000E+00
4.580000E+03	4.933793E-17	0.000000E+00
4.590000E+03	4.937948E-17	0.000000E+00
4.600000E+03	4.941917E-17	0.000000E+00
4.610000E+03	4.946444E-17	0.000000E+00
4.620000E+03	4.950031E-17	0.000000E+00
4.630000E+03	4.954178E-17	0.000000E+00
4.640000E+03	4.957382E-17	0.000000E+00
4.650000E+03	4.961142E-17	0.000000E+00
4.660000E+03	4.963957E-17	0.000000E+00
4.670000E+03	4.966576E-17	0.000000E+00
4.680000E+03	4.968997E-17	0.000000E+00
4.690000E+03	4.971969E-17	0.000000E+00
4.700000E+03	4.973994E-17	0.000000E+00
4.710000E+03	4.975817E-17	0.000000E+00
4.720000E+03	4.977441E-17	0.000000E+00
4.730000E+03	4.979612E-17	0.000000E+00
4.740000E+03	4.980831E-17	0.000000E+00
4.750000E+03	4.981850E-17	0.000000E+00
4.760000E+03	4.982665E-17	0.000000E+00
4.770000E+03	4.983278E-17	0.000000E+00
4.780000E+03	4.983687E-17	0.000000E+00
4.790000E+03	4.983894E-17	0.000000E+00
4.800000E+03	4.983897E-17	0.000000E+00
4.810000E+03	4.983698E-17	0.000000E+00
4.820000E+03	4.983296E-17	0.000000E+00
4.830000E+03	4.982692E-17	0.000000E+00
4.840000E+03	4.981886E-17	0.000000E+00
4.850000E+03	4.980878E-17	0.000000E+00
4.860000E+03	4.979670E-17	0.000000E+00
4.870000E+03	4.978262E-17	0.000000E+00
4.880000E+03	4.976655E-17	0.000000E+00
4.890000E+03	4.974848E-17	0.000000E+00
4.900000E+03	4.972104E-17	0.000000E+00
4.910000E+03	4.969903E-17	0.000000E+00
4.920000E+03	4.967509E-17	0.000000E+00
4.930000E+03	4.964920E-17	0.000000E+00
4.940000E+03	4.961399E-17	0.000000E+00
4.950000E+03	4.958427E-17	0.000000E+00
4.960000E+03	4.955265E-17	0.000000E+00
4.970000E+03	4.951177E-17	0.000000E+00
4.980000E+03	4.947639E-17	0.000000E+00
4.990000E+03	4.943182E-17	0.000000E+00
5.000000E+03	4.939277E-17	0.000000E+00
5.010000E+03	4.935189E-17	0.000000E+00
5.020000E+03	4.930190E-17	0.000000E+00
5.030000E+03	4.925745E-17	0.000000E+00
5.040000E+03	4.920394E-17	0.000000E+00
5.050000E+03	4.914871E-17	0.000000E+00
5.060000E+03	4.909905E-17	0.000000E+00
5.070000E+03	4.904042E-17	0.000000E+00
5.080000E+03	4.898740E-17	0.000000E+00
5.090000E+03	4.892546E-17	0.000000E+00
5.100000E+03	4.886192E-17	0.000000E+00
5.110000E+03	4.879679E-17	0.000000E+00
5.120000E+03	4.873728E-17	0.000000E+00
5.130000E+03	4.866901E-17	0.000000E+00
5.140000E+03	4.859922E-17	0.000000E+00
5.150000E+03	4.852793E-17	0.000000E+00
5.160000E+03	4.845516E-17	0.000000E+00
5.170000E+03	4.838808E-17	0.000000E+00
5.180000E+03	4.831243E-17	0.000000E+00
5.190000E+03	4.823536E-17	0.000000E+00
5.200000E+03	4.815690E-17	0.000000E+00
5.210000E+03	4.807709E-17	0.000000E+00
5.220000E+03	4.799595E-17	0.000000E+00
5.230000E+03	4.791350E-17	0.000000E+00
5.240000E+03	4.782976E-17	0.000000E+00
5.250000E+03	4.774476E-17	0.000000E+00
5.260000E+03	4.765149E-17	0.000000E+00
5.270000E+03	4.756405E-17	0.000000E+00
5.280000E+03	4.747544E-17	0.000000E+00
5.290000E+03	4.738564E-17	0.000000E+00
5.300000E+03	4.729470E-17	0.000000E+00
5.310000E+03	4.720262E-17	0.000000E+00
5.320000E+03	4.710253E-17	0.000000E+00
5.330000E+03	4.700831E-17	0.000000E+00
5.340000E+03	4.691304E-17	0.000000E+00
5.350000E+03	4.680984E-17	0.000000E+00
5.360000E+03	4.671254E-17	0.000000E+00
5.370000E+03	4.661425E-17	0.000000E+00
5.380000E+03	4.650817E-17	0.000000E+00
5.390000E+03	4.640797E-17	0.000000E+00
5.400000E+03	4.630006E-17	0.000000E+00
5.410000E+03	4.619805E-17	0.000000E+00
5.420000E+03	4.608841E-17	0.000000E+00
5.430000E+03	4.598468E-17	0.000000E+00
5.440000E+03	4.587338E-17	0.000000E+00
5.450000E+03	4.576799E-17	0.000000E+00
5.460000E+03	4.565510E-17	0.000000E+00
5.470000E+03	4.554147E-17	0.000000E+00
5.480000E+03	4.543376E-17	0.000000E+00
5.490000E+03	4.531865E-17	0.000000E+00
5.500000E+03	4.520284E-17	0.000000E+00
5.510000E+03	4.509297E-17	0.000000E+00
5.520000E+03	4.497580E-17	0.000000E+00
5.530000E+03	4.485799E-17	0.000000E+00
5.540000E+03	4.473956E-17	0.000000E+00
5.550000E+03	4.462703E-17	0.000000E+00
5.560000E+03	4.450736E-17	0.000000E+00
5.570000E+03	4.438712E-17	0.000000E+00
5.580000E+03	4.426631E-17	0.000000E+00
5.590000E+03	4.414493E-17	0.000000E+00
5.600000E+03	4.402303E-17	0.000000E+00
5.610000E+03	4.390060E-17	0.000000E+00
5.620000E+03	4.377766E-17	0.000000E+00
5.630000E+03	4.365424E-17	0.000000E+00
5.640000E+03	4.353033E-17	0.000000E+00
5.650000E+03	4.340595E-17	0.000000E+00
5.660000E+03	4.328111E-17	0.000000E+00
5.670000E+03	4.315584E-17	0.000000E+00
5.680000E+03	4.303012E-17	0.000000E+00
5.690000E+03	4.290399E-17	0.000000E+00
5.700000E+03	4.277121E-17	0.000000E+00
5.710000E+03	4.264429E-17	0.000000E+00
5.720000E+03	4.251700E-17	0.000000E+00
5.730000E+03	4.238934E-17	0.000000E+00
5.740000E+03	4.226129E-17	0.000000E+00
5.750000E+03	4.212676E-17	0.000000E+00
5.760000E+03	4.199805E-17	0.000000E+00
5.770000E+03	4.186901E-17	0.000000E+00
5.780000E+03	4.173355E-17	0.000000E+00
5.790000E+03	4.160389E-17	0.000000E+00
5.800000E+03	4.147393E-17	0.000000E+00
5.810000E+03	4.133764E-17	0.000000E+00
5.820000E+03	4.120712E-17	0.000000E+00
5.830000E+03	4.107033E-17	0.000000E+00
5.840000E+03	4.093928E-17	0.000000E+00
5.850000E+03	4.080201E-17	0.000000E+00
5.860000E+03	4.067048E-17	0.000000E+00
5.870000E+03	4.053277E-17	0.000000E+00
5.880000E+03	4.040077E-17	0.000000E+00
5.890000E+03	4.026268E-17	0.000000E+00
5.900000E+03	4.013024E-17	0.000000E+00
5.910000E+03	3.999177E-17	0.000000E+00
5.920000E+03	3.985313E-17	0.000000E+00
5.930000E+03	3.972013E-17	0.000000E+00
5.940000E+03	3.958116E-17	0.000000E+00
5.950000E+03	3.944205E-17	0.000000E+00
5.960000E+03	3.930852E-17	0.000000E+00
5.970000E+03	3.916913E-17	0.000000E+00
5.980000E+03	3.902961E-17	0.000000E+00
5.990000E+03	3.888999E-17	0.000000E+00
6.000000E+03	3.875589E-17	0.000000E+00
6.010000E+03	3.861603E-17	0.000000E+00
6.020000E+03	3.847608E-17	0.000000E+00
6.030000E+03	3.833603E-17	0.000000E+00
6.040000E+03	3.819590E-17	0.000000E+00
6.050000E+03	3.805570E-17	0.000000E+00
6.060000E+03	3.792096E-17	0.000000E+00
6.070000E+03	3.778059E-17	0.000000E+00
6.080000E+03	3.764019E-17	0.000000E+00
6.090000E+03	3.749974E-17	0.000000E+00
6.100000E+03	3.735924E-17	0.000000E+00
6.110000E+03	3.721871E-17	0.000000E+00
6.120000E+03	3.707814E-17	0.000000E+00
6.130000E+03	3.693755E-17	0.000000E+00
6.140000E+03	3.679696E-17	0.000000E+00
6.150000E+03	3.665634E-17	0.000000E+00
6.160000E+03	3.651573E-17	0.000000E+00
6.170000E+03	3.637512E-17	0.000000E+00
6.180000E+03	3.622924E-17	0.000000E+00
6.190000E+03	3.608868E-17	0.000000E+00
6.200000E+03	3.594815E-17	0.000000E+00
6.210000E+03	3.580764E-17	0.000000E+00
6.220000E+03	3.566717E-17	0.000000E+00
6.230000E+03	3.552675E-17	0.000000E+00
6.240000E+03	3.538121E-17	0.000000E+00
6.250000E+03	3.524093E-17	0.000000E+00
6.260000E+03	3.510069E-17	0.000000E+00
6.270000E+03	3.496054E-17	0.000000E+00
6.280000E+03	3.481537E-17	0.000000E+00
6.290000E+03	3.467540E-17	0.000000E+00
6.300000E+03	3.453553E-17	0.000000E+00
6.310000E+03	3.439074E-17	0.000000E+00
6.320000E+03	3.425109E-17	0.000000E+00
6.330000E+03	3.411156E-17	0.000000E+00
6.340000E+03	3.396720E-17	0.000000E+00
6.350000E+03	3.382792E-17	0.000000E+00
6.360000E+03	3.368880E-17	0.000000E+00
6.370000E+03	3.354494E-17	0.000000E+00
6.380000E+03	3.340613E-17	0.000000E+00
6.390000E+03	3.326263E-17	0.000000E+00
6.400000E+03	3.312417E-17	0.000000E+00
6.410000E+03	3.298107E-17	0.000000E+00
6.420000E+03	3.284299E-17	0.000000E+00
6.430000E+03	3.270034E-17	0.000000E+00
6.440000E+03	3.256268E-17	0.000000E+00
6.450000E+03	3.242047E-17	0.000000E+00
6.460000E+03	3.228325E-17	0.000000E+00
6.470000E+03	3.214155E-17	0.000000E+00
6.480000E+03	3.200479E-17	0.000000E+00
6.490000E+03	3.186363E-17	0.000000E+00
6.500000E+03	3.172738E-17	0.000000E+00
6.510000E+03	3.158677E-17	0.000000E+00
6.520000E+03	3.144647E-17	0.000000E+00
6.530000E+03	3.131105E-17	0.000000E+00
6.540000E+03	3.117135E-17	0.000000E+00
6.550000E+03	3.103198E-17	0.000000E+00
6.560000E+03	3.089746E-17	0.000000E+00
6.570000E+03	3.075875E-17	0.000000E+00
6.580000E+03	3.062038E-17	0.000000E+00
6.590000E+03	3.048683E-17	0.000000E+00
6.600000E+03	3.034918E-17	0.000000E+00
6.610000E+03	3.021188E-17	0.000000E+00
6.620000E+03	3.007499E-17	0.000000E+00
6.630000E+03	2.994286E-17	0.000000E+00
6.640000E+03	2.980672E-17	0.000000E+00
6.650000E+03	2.967100E-17	0.000000E+00
6.660000E+03	2.953568E-17	0.000000E+00
6.670000E+03	2.940079E-17	0.000000E+00
6.680000E+03	2.926633E-17	0.000000E+00
6.690000E+03	2.913657E-17	0.000000E+00
6.700000E+03	2.900297E-17	0.000000E+00
6.710000E+03	2.886982E-17	0.000000E+00
6.720000E+03	2.873713E-17	0.000000E+00
6.730000E+03	2.860492E-17	0.000000E+00
6.740000E+03	2.847318E-17	0.000000E+00
6.750000E+03	2.834192E-17	0.000000E+00
6.760000E+03	2.821114E-17	0.000000E+00
6.770000E+03	2.808086E-17	0.000000E+00
6.780000E+03	2.795110E-17	0.000000E+00
6.790000E+03	2.782183E-17	0.000000E+00
6.800000E+03	2.769309E-17	0.000000E+00
6.810000E+03	2.756487E-17	0.000000E+00
6.820000E+03	2.743718E-17	0.000000E+00
6.830000E+03	2.731004E-17	0.000000E+00
6.840000E+03	2.718343E-17	0.000000E+00
6.850000E+03	2.705738E-17	0.000000E+00
6.860000E+03	2.693190E-17	0.000000E+00
6.870000E+03	2.680697E-17	0.000000E+00
6.880000E+03	2.668261E-17	0.000000E+00
6.890000E+03	2.655883E-17	0.000000E+00
6.900000E+03	2.643563E-17	0.000000E+00
6.910000E+03	2.631302E-17	0.000000E+00
6.920000E+03	2.619102E-17	0.000000E+00
6.930000E+03	2.606576E-17	0.000000E+00
6.940000E+03	2.594498E-17	0.000000E+00
6.950000E+03	2.582480E-17	0.000000E+00
6.960000E+03	2.570524E-17	0.000000E+00
6.970000E+03	2.558630E-17	0.000000E+00
6.980000E+03	2.546423E-17	0.000000E+00
6.990000E+03	2.534657E-17	0.000000E+00
7.000000E+03	2.522953E-17	0.000000E+00
7.010000E+03	2.511314E-17	0.000000E+00
7.020000E+03	2.499739E-17	0.000000E+00
7.030000E+03	2.487863E-17	0.000000E+00
7.040000E+03	2.476420E-17	0.000000E+00
7.050000E+03	2.465042E-17	0.000000E+00
7.060000E+03	2.453370E-17	0.000000E+00
7.070000E+03	2.442128E-17	0.000000E+00
7.080000E+03	2.430952E-17	0.000000E+00
7.090000E+03	2.419486E-17	0.000000E+00
7.100000E+03	2.408446E-17	0.000000E+00
7.110000E+03	2.397474E-17	0.000000E+00
7.120000E+03	2.386218E-17	0.000000E+00
7.130000E+03	2.375384E-17	0.000000E+00
7.140000E+03	2.364271E-17	0.000000E+00
7.150000E+03	2.353576E-17	0.000000E+00
7.160000E+03	2.342951E-17	0.000000E+00
7.170000E+03	2.332051E-17	0.000000E+00
7.180000E+03	2.321565E-17	0.000000E+00
7.190000E+03	2.310811E-17	0.000000E+00
7.200000E+03	2.300467E-17	0.000000E+00
7.210000E+03	2.289855E-17	0.000000E+00
7.220000E+03	2.279653E-17	0.000000E+00
7.230000E+03	2.269188E-17	0.000000E+00
7.240000E+03	2.259129E-17	0.000000E+00
7.250000E+03	2.248809E-17	0.000000E+00
7.260000E+03	2.238893E-17	0.000000E+00
7.270000E+03	2.228719E-17	0.000000E+00
7.280000E+03	2.218947E-17	0.000000E+00
7.290000E+03	2.208918E-17	0.000000E+00
7.300000E+03	2.198965E-17	0.000000E+00
7.310000E+03	2.189409E-17	0.000000E+00
7.320000E+03	2.179602E-17	0.000000E+00
7.330000E+03	2.170190E-17	0.000000E+00
7.340000E+03	2.160529E-17	0.000000E+00
7.350000E+03	2.150941E-17	0.000000E+00
7.360000E+03	2.141746E-17	0.000000E+00
7.370000E+03	2.132305E-17	0.000000E+00
7.380000E+03	2.122937E-17	0.000000E+00
7.390000E+03	2.113957E-17	0.000000E+00
7.400000E+03	2.104736E-17	0.000000E+00
7.410000E+03	2.095588E-17	0.000000E+00
7.420000E+03	2.086513E-17	0.000000E+00
7.430000E+03	2.077820E-17	0.000000E+00
7.440000E+03	2.068891E-17	0.000000E+00
7.450000E+03	2.060033E-17	0.000000E+00
7.460000E+03	2.051250E-17	0.000000E+00
7.470000E+03	2.042537E-17	0.000000E+00
7.480000E+03	2.034201E-17	0.000000E+00
7.490000E+03	2.025632E-17	0.000000E+00
7.500000E+03	2.017135E-17	0.000000E+00
7.510000E+03	2.008711E-17	0.000000E+00
7.520000E+03	2.000357E-17	0.000000E+00
7.530000E+03	1.992074E-17	0.000000E+00
7.540000E+03	1.984159E-17	0.000000E+00
7.550000E+03	1.976017E-17	0.000000E+00
7.560000E+03	1.967946E-17	0.000000E+00
7.570000E+03	1.959945E-17	0.000000E+00
7.580000E+03	1.952013E-17	0.000000E+00
7.590000E+03	1.944152E-17	0.000000E+00
7.600000E+03	1.936358E-17	0.000000E+00
7.610000E+03	1.928636E-17	0.000000E+00
7.620000E+03	1.920980E-17	0.000000E+00
7.630000E+03	1.913394E-17	0.000000E+00
7.640000E+03	1.905877E-17	0.000000E+00
7.650000E+03	1.898425E-17	0.000000E+00
7.660000E+03	1.891043E-17	0.000000E+00
7.670000E+03	1.883726E-17	0.000000E+00
7.680000E+03	1.876477E-17	0.000000E+00
7.690000E+03	1.869293E-17	0.000000E+00
7.700000E+03	1.862175E-17	0.000000E+00
7.710000E+03	1.854845E-17	0.000000E+00
7.720000E+03	1.847859E-17	0.000000E+00
7.730000E+03	1.840939E-17	0.000000E+00
7.740000E+03	1.834081E-17	0.000000E+00
7.750000E+03	1.827289E-17	0.000000E+00
7.760000E+03	1.820558E-17	0.000000E+00
