#wls	flux	fluxerr
1.600000E+03	6.996396E-17	4.135851E-17
1.640000E+03	7.089884E-17	4.147761E-17
1.680000E+03	7.193818E-17	4.163245E-17
1.720000E+03	7.308268E-17	4.182059E-17
1.760000E+03	7.433942E-17	4.204307E-17
1.800000E+03	7.572133E-17	4.230383E-17
1.840000E+03	7.721552E-17	4.259208E-17
1.880000E+03	7.884067E-17	4.291441E-17
1.920000E+03	8.059621E-17	4.326636E-17
1.960000E+03	8.248177E-17	4.364340E-17
2.000000E+03	8.449135E-17	4.403794E-17
2.040000E+03	8.662538E-17	4.444565E-17
2.080000E+03	8.887332E-17	4.485650E-17
2.120000E+03	9.121473E-17	4.525571E-17
2.160000E+03	9.364731E-17	4.563793E-17
2.200000E+03	9.614809E-17	4.598783E-17
2.240000E+03	9.870152E-17	4.629432E-17
2.280000E+03	1.013041E-16	4.655233E-17
2.320000E+03	1.039636E-16	4.676192E-17
2.360000E+03	1.067033E-16	4.692961E-17
2.400000E+03	1.095510E-16	4.706286E-17
2.440000E+03	1.125339E-16	4.716770E-17
2.480000E+03	1.156937E-16	4.725468E-17
2.520000E+03	1.190568E-16	4.732640E-17
2.560000E+03	1.226594E-16	4.738786E-17
2.600000E+03	1.265239E-16	4.743704E-17
2.640000E+03	1.306785E-16	4.747276E-17
2.680000E+03	1.351435E-16	4.748949E-17
2.720000E+03	1.399412E-16	4.748119E-17
2.760000E+03	1.450964E-16	4.744127E-17
2.800000E+03	1.506319E-16	4.736117E-17
2.840000E+03	1.565739E-16	4.723200E-17
2.880000E+03	1.629611E-16	4.704699E-17
2.920000E+03	1.698272E-16	4.679603E-17
2.960000E+03	1.772325E-16	4.647419E-17
3.000000E+03	1.852296E-16	4.607156E-17
3.010000E+03	1.873344E-16	4.595856E-17
3.020000E+03	1.894789E-16	4.583916E-17
3.030000E+03	1.916639E-16	4.571311E-17
3.040000E+03	1.938988E-16	4.558221E-17
3.050000E+03	1.961801E-16	4.544514E-17
3.060000E+03	1.985085E-16	4.530162E-17
3.070000E+03	2.008894E-16	4.515234E-17
3.080000E+03	2.033193E-16	4.499603E-17
3.090000E+03	2.057991E-16	4.483240E-17
3.100000E+03	2.083385E-16	4.466302E-17
3.110000E+03	2.109300E-16	4.448571E-17
3.120000E+03	2.135788E-16	4.430108E-17
3.130000E+03	2.162819E-16	4.410792E-17
3.140000E+03	2.190532E-16	4.390854E-17
3.150000E+03	2.218812E-16	4.369998E-17
3.160000E+03	2.247714E-16	4.348279E-17
3.170000E+03	2.277294E-16	4.325747E-17
3.180000E+03	2.307567E-16	4.302363E-17
3.190000E+03	2.338460E-16	4.277933E-17
3.200000E+03	2.370118E-16	4.252661E-17
3.210000E+03	2.402470E-16	4.226353E-17
3.220000E+03	2.435576E-16	4.199052E-17
3.230000E+03	2.469409E-16	4.170646E-17
3.240000E+03	2.504031E-16	4.141175E-17
3.250000E+03	2.539459E-16	4.110603E-17
3.260000E+03	2.575712E-16	4.078892E-17
3.270000E+03	2.612767E-16	4.045939E-17
3.280000E+03	2.650688E-16	4.011777E-17
3.290000E+03	2.689496E-16	3.976371E-17
3.300000E+03	2.729169E-16	3.939623E-17
3.310000E+03	2.769775E-16	3.901563E-17
3.320000E+03	2.811293E-16	3.862096E-17
3.330000E+03	2.853792E-16	3.821253E-17
3.340000E+03	2.897253E-16	3.778942E-17
3.350000E+03	2.941703E-16	3.735136E-17
3.360000E+03	2.987169E-16	3.689809E-17
3.370000E+03	3.033680E-16	3.642935E-17
3.380000E+03	3.081266E-16	3.594491E-17
3.390000E+03	3.129911E-16	3.544403E-17
3.400000E+03	3.179694E-16	3.492706E-17
3.410000E+03	3.230554E-16	3.439286E-17
3.420000E+03	3.282619E-16	3.384230E-17
3.430000E+03	3.335830E-16	3.327436E-17
3.440000E+03	3.390224E-16	3.268904E-17
3.450000E+03	3.445839E-16	3.208637E-17
3.460000E+03	3.502665E-16	3.146605E-17
3.470000E+03	3.560789E-16	3.082866E-17
3.480000E+03	3.620207E-16	3.017402E-17
3.490000E+03	3.680911E-16	2.950208E-17
3.500000E+03	3.742946E-16	2.881328E-17
3.510000E+03	3.806309E-16	2.810782E-17
3.520000E+03	3.871093E-16	2.738673E-17
3.530000E+03	3.937201E-16	2.664979E-17
3.540000E+03	4.004728E-16	2.589837E-17
3.550000E+03	4.073677E-16	2.513334E-17
3.560000E+03	4.144097E-16	2.435608E-17
3.570000E+03	4.215942E-16	2.356766E-17
3.580000E+03	4.289214E-16	2.276977E-17
3.590000E+03	4.364018E-16	2.196493E-17
3.600000E+03	4.440257E-16	2.115500E-17
3.610000E+03	4.518038E-16	2.034327E-17
3.620000E+03	4.597367E-16	1.953299E-17
3.630000E+03	4.678200E-16	1.872775E-17
3.640000E+03	4.760544E-16	1.793197E-17
3.644048E+03	6.838912E-16	5.049934E-17
3.649566E+03	6.865539E-16	5.050948E-17
3.655084E+03	6.912992E-16	5.054270E-17
3.660602E+03	6.983851E-16	5.060198E-17
3.666120E+03	7.061546E-16	5.066892E-17
3.671637E+03	7.122821E-16	5.755710E-17
3.677155E+03	7.183787E-16	6.198145E-17
3.682673E+03	7.238366E-16	5.930935E-17
3.688191E+03	7.282757E-16	5.514919E-17
3.693709E+03	7.301458E-16	4.919254E-17
3.699227E+03	7.311037E-16	3.668891E-17
3.704745E+03	7.287784E-16	3.247916E-17
3.710263E+03	7.217719E-16	3.360630E-17
3.715781E+03	7.109203E-16	3.698377E-17
3.721299E+03	6.959199E-16	3.349377E-17
3.726817E+03	6.756313E-16	2.874214E-17
3.732335E+03	6.511640E-16	2.782157E-17
3.737853E+03	6.239167E-16	2.734449E-17
3.743371E+03	5.928712E-16	2.802020E-17
3.748889E+03	5.589093E-16	2.734438E-17
3.754406E+03	5.269698E-16	2.481578E-17
3.759924E+03	4.978581E-16	2.423362E-17
3.765442E+03	4.715739E-16	2.269702E-17
3.770960E+03	4.494087E-16	2.213253E-17
3.776478E+03	4.341884E-16	2.145307E-17
3.781996E+03	4.225546E-16	2.212892E-17
3.787514E+03	4.134738E-16	2.183138E-17
3.793032E+03	4.064901E-16	2.052767E-17
3.798550E+03	4.001447E-16	2.327664E-17
3.804068E+03	3.968686E-16	2.305536E-17
3.809586E+03	3.977552E-16	2.206732E-17
3.815104E+03	4.016650E-16	2.091733E-17
3.820622E+03	4.091142E-16	1.575081E-17
3.826140E+03	4.216520E-16	1.787602E-17
3.831657E+03	4.354500E-16	1.882142E-17
3.837175E+03	4.536524E-16	2.013349E-17
3.842693E+03	4.764261E-16	2.015779E-17
3.848211E+03	5.025098E-16	1.684535E-17
3.853729E+03	5.322680E-16	1.622400E-17
3.859247E+03	5.663837E-16	1.704538E-17
3.864765E+03	6.030188E-16	1.917753E-17
3.870283E+03	6.433121E-16	2.167033E-17
3.875801E+03	6.901795E-16	2.281332E-17
3.881319E+03	7.402031E-16	2.400866E-17
3.886837E+03	7.923652E-16	2.447336E-17
3.892355E+03	8.467871E-16	2.619522E-17
3.897873E+03	9.045162E-16	2.745639E-17
3.903390E+03	9.632291E-16	2.885544E-17
3.908908E+03	1.023138E-15	3.023487E-17
3.914426E+03	1.083894E-15	3.145780E-17
3.919944E+03	1.143051E-15	3.410243E-17
3.925462E+03	1.198136E-15	3.581084E-17
3.930980E+03	1.247082E-15	3.687446E-17
3.936498E+03	1.291987E-15	3.770938E-17
3.942016E+03	1.331955E-15	3.790368E-17
3.947534E+03	1.367791E-15	3.816151E-17
3.953052E+03	1.398948E-15	3.847840E-17
3.958570E+03	1.427597E-15	3.870989E-17
3.964088E+03	1.451995E-15	3.924953E-17
3.969606E+03	1.471775E-15	3.978390E-17
3.975124E+03	1.488928E-15	4.300138E-17
3.980642E+03	1.504804E-15	4.643797E-17
3.986159E+03	1.516581E-15	4.734558E-17
3.991677E+03	1.525579E-15	4.742507E-17
3.997195E+03	1.531449E-15	4.905148E-17
4.002713E+03	1.533979E-15	5.286955E-17
4.008231E+03	1.532563E-15	5.250454E-17
4.013749E+03	1.527960E-15	5.289168E-17
4.019267E+03	1.520777E-15	5.320628E-17
4.024785E+03	1.510361E-15	5.068575E-17
4.030303E+03	1.497123E-15	4.510999E-17
4.035821E+03	1.479834E-15	4.012846E-17
4.041339E+03	1.459754E-15	3.764414E-17
4.046857E+03	1.435153E-15	3.913876E-17
4.052375E+03	1.408430E-15	3.883769E-17
4.057892E+03	1.379568E-15	3.823658E-17
4.063410E+03	1.349783E-15	3.942487E-17
4.068928E+03	1.319150E-15	3.807171E-17
4.074446E+03	1.289171E-15	3.635735E-17
4.079964E+03	1.257738E-15	3.589206E-17
4.085482E+03	1.225761E-15	3.367851E-17
4.091000E+03	1.194422E-15	3.237961E-17
4.096518E+03	1.166074E-15	3.220710E-17
4.102036E+03	1.141641E-15	3.061453E-17
4.107554E+03	1.122988E-15	3.061642E-17
4.113072E+03	1.108203E-15	2.751908E-17
4.118590E+03	1.098031E-15	2.619355E-17
4.124108E+03	1.090148E-15	2.637695E-17
4.129626E+03	1.083236E-15	2.642070E-17
4.135144E+03	1.080571E-15	2.658289E-17
4.140661E+03	1.081060E-15	2.623843E-17
4.146179E+03	1.083656E-15	2.652496E-17
4.151697E+03	1.087707E-15	2.612038E-17
4.157215E+03	1.094668E-15	2.531936E-17
4.162733E+03	1.100340E-15	2.585456E-17
4.168251E+03	1.105451E-15	2.580293E-17
4.173769E+03	1.112470E-15	2.598613E-17
4.179287E+03	1.120353E-15	2.593125E-17
4.184805E+03	1.127008E-15	2.584915E-17
4.190323E+03	1.134843E-15	2.605961E-17
4.195841E+03	1.142071E-15	2.530535E-17
4.201359E+03	1.148420E-15	2.529655E-17
4.206877E+03	1.154813E-15	2.568806E-17
4.212395E+03	1.160386E-15	2.552321E-17
4.217912E+03	1.164853E-15	2.558167E-17
4.223430E+03	1.168636E-15	2.529572E-17
4.228948E+03	1.169752E-15	2.523365E-17
4.234466E+03	1.168413E-15	2.500410E-17
4.239984E+03	1.167831E-15	2.493347E-17
4.245502E+03	1.165719E-15	2.476694E-17
4.251020E+03	1.164576E-15	2.475963E-17
4.256538E+03	1.164281E-15	2.447233E-17
4.262056E+03	1.165546E-15	2.424988E-17
4.267574E+03	1.165993E-15	2.439981E-17
4.273092E+03	1.168803E-15	2.524831E-17
4.278610E+03	1.172233E-15	2.697211E-17
4.284128E+03	1.177283E-15	2.707424E-17
4.289645E+03	1.183286E-15	2.680191E-17
4.295163E+03	1.191742E-15	2.680933E-17
4.300681E+03	1.200076E-15	2.838591E-17
4.306199E+03	1.208590E-15	2.930931E-17
4.311717E+03	1.215392E-15	2.970563E-17
4.317235E+03	1.220921E-15	3.013068E-17
4.322753E+03	1.223981E-15	2.966836E-17
4.328271E+03	1.224481E-15	2.776851E-17
4.333789E+03	1.222361E-15	2.620415E-17
4.339307E+03	1.215851E-15	2.582519E-17
4.344825E+03	1.204815E-15	2.503453E-17
4.350343E+03	1.188829E-15	2.449974E-17
4.355861E+03	1.168015E-15	2.475116E-17
4.361379E+03	1.141800E-15	2.497326E-17
4.366896E+03	1.112075E-15	2.561560E-17
4.372414E+03	1.079023E-15	2.518723E-17
4.377932E+03	1.043584E-15	2.474141E-17
4.383450E+03	1.006951E-15	2.420227E-17
4.388968E+03	9.707314E-16	2.123637E-17
4.394486E+03	9.355589E-16	2.020028E-17
4.400004E+03	9.041878E-16	1.864060E-17
4.405522E+03	8.766023E-16	1.820238E-17
4.411040E+03	8.538003E-16	1.813737E-17
4.416558E+03	8.364166E-16	1.818912E-17
4.422076E+03	8.245864E-16	1.876754E-17
4.427594E+03	8.172499E-16	1.995428E-17
4.433112E+03	8.157678E-16	2.090657E-17
4.438630E+03	8.205323E-16	2.105244E-17
4.444148E+03	8.310584E-16	2.030420E-17
4.449665E+03	8.470124E-16	1.827772E-17
4.455183E+03	8.680909E-16	1.656253E-17
4.460701E+03	8.923120E-16	1.692531E-17
4.466219E+03	9.169837E-16	1.718593E-17
4.471737E+03	9.443436E-16	1.820328E-17
4.477255E+03	9.735446E-16	1.848160E-17
4.482773E+03	1.005690E-15	1.869305E-17
4.488291E+03	1.039071E-15	1.917053E-17
4.493809E+03	1.074669E-15	1.931892E-17
4.499327E+03	1.110142E-15	1.985137E-17
4.504845E+03	1.146382E-15	2.064327E-17
4.510363E+03	1.182269E-15	2.177262E-17
4.515881E+03	1.220403E-15	2.284113E-17
4.521399E+03	1.261312E-15	2.346266E-17
4.526916E+03	1.303470E-15	2.341896E-17
4.532434E+03	1.346711E-15	2.451943E-17
4.537952E+03	1.390444E-15	2.623712E-17
4.543470E+03	1.433220E-15	2.674259E-17
4.548988E+03	1.474494E-15	2.727362E-17
4.554506E+03	1.515173E-15	2.775312E-17
4.560024E+03	1.553747E-15	2.818000E-17
4.565542E+03	1.590200E-15	2.789148E-17
4.571060E+03	1.624232E-15	2.859032E-17
4.576578E+03	1.657201E-15	2.851675E-17
4.582096E+03	1.685938E-15	2.891308E-17
4.587614E+03	1.711649E-15	3.075913E-17
4.593132E+03	1.732978E-15	3.163604E-17
4.598650E+03	1.752189E-15	3.184287E-17
4.604167E+03	1.765660E-15	3.203734E-17
4.609685E+03	1.776865E-15	3.205218E-17
4.615203E+03	1.786255E-15	3.222431E-17
4.620721E+03	1.794587E-15	3.117385E-17
4.626239E+03	1.801408E-15	3.117235E-17
4.631757E+03	1.808227E-15	3.032216E-17
4.637275E+03	1.814591E-15	2.986004E-17
4.642793E+03	1.820200E-15	3.022121E-17
4.648311E+03	1.825052E-15	3.025148E-17
4.653829E+03	1.828847E-15	3.174658E-17
4.659347E+03	1.830076E-15	3.228759E-17
4.664865E+03	1.829946E-15	3.319341E-17
4.670383E+03	1.829061E-15	3.363149E-17
4.675900E+03	1.825913E-15	3.398433E-17
4.681418E+03	1.821558E-15	3.375300E-17
4.686936E+03	1.815393E-15	3.435965E-17
4.692454E+03	1.807117E-15	3.509126E-17
4.697972E+03	1.795674E-15	3.528116E-17
4.703490E+03	1.780915E-15	3.541878E-17
4.709008E+03	1.760429E-15	3.462826E-17
4.714526E+03	1.736326E-15	3.340585E-17
4.720044E+03	1.705292E-15	3.329628E-17
4.725562E+03	1.667327E-15	3.427402E-17
4.731080E+03	1.623791E-15	3.717435E-17
4.736598E+03	1.574684E-15	3.654063E-17
4.742116E+03	1.520158E-15	3.387572E-17
4.747634E+03	1.463200E-15	3.053967E-17
4.753151E+03	1.404983E-15	2.833884E-17
4.758669E+03	1.345072E-15	3.337613E-17
4.764187E+03	1.286210E-15	4.047372E-17
4.769705E+03	1.230294E-15	4.681463E-17
4.775223E+03	1.176465E-15	4.668873E-17
4.780741E+03	1.125612E-15	4.186279E-17
4.786259E+03	1.079405E-15	3.811833E-17
4.791777E+03	1.038024E-15	3.516961E-17
4.797295E+03	1.002552E-15	3.431921E-17
4.802813E+03	9.721895E-16	3.714994E-17
4.808331E+03	9.477338E-16	3.870550E-17
4.813849E+03	9.292134E-16	3.617374E-17
4.819367E+03	9.156933E-16	2.831322E-17
4.824885E+03	9.061339E-16	1.995378E-17
4.830403E+03	9.016930E-16	1.566681E-17
4.835920E+03	8.996603E-16	1.384615E-17
4.841438E+03	8.990121E-16	1.373376E-17
4.846956E+03	8.997478E-16	1.381249E-17
4.852474E+03	9.004530E-16	1.506307E-17
4.857992E+03	8.993823E-16	1.507978E-17
4.863510E+03	8.983414E-16	1.688161E-17
4.869028E+03	8.965934E-16	1.860418E-17
4.874546E+03	8.939578E-16	1.945699E-17
4.880064E+03	8.919990E-16	1.867129E-17
4.885582E+03	8.923409E-16	1.834448E-17
4.891100E+03	8.972385E-16	1.717275E-17
4.896618E+03	9.075324E-16	1.428072E-17
4.902136E+03	9.246795E-16	1.577150E-17
4.907654E+03	9.485576E-16	1.566657E-17
4.913171E+03	9.780376E-16	1.611039E-17
4.918689E+03	1.011149E-15	1.653625E-17
4.924207E+03	1.048206E-15	1.684031E-17
4.929725E+03	1.087029E-15	1.849405E-17
4.935243E+03	1.126190E-15	1.978809E-17
4.940761E+03	1.165854E-15	2.260258E-17
4.946279E+03	1.203872E-15	2.969916E-17
4.951797E+03	1.237226E-15	3.591589E-17
4.957315E+03	1.264866E-15	3.700034E-17
4.962833E+03	1.285831E-15	3.465363E-17
4.968351E+03	1.298337E-15	3.084641E-17
4.973869E+03	1.301635E-15	3.186965E-17
4.979387E+03	1.298701E-15	3.796870E-17
4.984904E+03	1.288741E-15	4.111374E-17
4.990422E+03	1.273108E-15	4.362378E-17
4.995940E+03	1.253380E-15	4.305802E-17
5.001458E+03	1.230068E-15	3.584620E-17
5.006976E+03	1.202303E-15	2.830504E-17
5.012494E+03	1.171962E-15	2.197482E-17
5.018012E+03	1.140606E-15	1.796702E-17
5.023530E+03	1.110066E-15	2.032107E-17
5.029048E+03	1.083477E-15	2.146910E-17
5.034566E+03	1.062128E-15	2.255390E-17
5.040084E+03	1.047322E-15	2.207117E-17
5.045602E+03	1.039401E-15	1.974848E-17
5.051120E+03	1.039279E-15	2.081737E-17
5.056638E+03	1.045498E-15	2.215496E-17
5.062155E+03	1.057712E-15	2.285373E-17
5.067673E+03	1.075755E-15	2.457960E-17
5.073191E+03	1.098304E-15	2.416074E-17
5.078709E+03	1.121957E-15	2.437555E-17
5.084227E+03	1.146999E-15	2.601209E-17
5.089745E+03	1.173742E-15	2.775749E-17
5.095263E+03	1.200479E-15	3.025100E-17
5.100781E+03	1.227510E-15	2.939058E-17
5.106299E+03	1.254175E-15	2.742705E-17
5.111817E+03	1.278467E-15	2.503328E-17
5.117335E+03	1.300013E-15	2.118592E-17
5.122853E+03	1.319307E-15	2.142958E-17
5.128371E+03	1.335572E-15	2.192254E-17
5.133889E+03	1.350246E-15	2.099696E-17
5.139407E+03	1.364243E-15	2.112375E-17
5.144924E+03	1.376200E-15	2.006554E-17
5.150442E+03	1.386224E-15	1.970916E-17
5.155960E+03	1.394194E-15	1.977017E-17
5.161478E+03	1.401070E-15	2.002971E-17
5.166996E+03	1.407106E-15	1.975945E-17
5.172514E+03	1.413320E-15	2.027534E-17
5.178032E+03	1.421431E-15	2.048574E-17
5.183550E+03	1.432291E-15	2.074883E-17
5.189068E+03	1.446244E-15	2.098223E-17
5.194586E+03	1.464574E-15	1.971659E-17
5.200104E+03	1.486338E-15	1.997658E-17
5.205622E+03	1.510712E-15	2.048912E-17
5.211140E+03	1.536694E-15	2.066472E-17
5.216658E+03	1.563865E-15	2.113503E-17
5.222175E+03	1.592374E-15	2.129759E-17
5.227693E+03	1.624461E-15	2.158389E-17
5.233211E+03	1.659379E-15	2.154181E-17
5.238729E+03	1.696379E-15	2.162605E-17
5.244247E+03	1.735461E-15	2.248146E-17
5.249765E+03	1.775579E-15	2.310427E-17
5.255283E+03	1.814043E-15	2.329784E-17
5.260801E+03	1.850109E-15	2.315448E-17
5.266319E+03	1.885717E-15	2.350681E-17
5.271837E+03	1.920569E-15	2.397198E-17
5.277355E+03	1.953025E-15	2.445742E-17
5.282873E+03	1.984427E-15	2.547549E-17
5.288391E+03	2.015074E-15	2.649142E-17
5.293908E+03	2.042729E-15	2.674296E-17
5.299426E+03	2.066498E-15	2.819101E-17
5.304944E+03	2.086829E-15	2.922777E-17
5.310462E+03	2.103426E-15	3.069411E-17
5.315980E+03	2.116438E-15	3.155496E-17
5.321498E+03	2.126316E-15	3.173052E-17
5.327016E+03	2.133506E-15	3.372219E-17
5.332534E+03	2.137265E-15	3.411451E-17
5.338052E+03	2.137147E-15	3.378475E-17
5.343570E+03	2.133600E-15	3.389599E-17
5.349088E+03	2.126477E-15	3.306124E-17
5.354606E+03	2.116524E-15	3.226268E-17
5.360124E+03	2.105231E-15	3.054675E-17
5.365642E+03	2.092600E-15	2.854269E-17
5.371159E+03	2.079376E-15	2.849131E-17
5.376677E+03	2.066601E-15	2.777950E-17
5.382195E+03	2.055615E-15	2.792256E-17
5.387713E+03	2.044929E-15	2.788993E-17
5.393231E+03	2.036032E-15	2.751508E-17
5.398749E+03	2.027731E-15	2.711141E-17
5.404267E+03	2.020027E-15	2.822532E-17
5.409785E+03	2.012325E-15	3.079958E-17
5.415303E+03	2.005516E-15	3.235338E-17
5.420821E+03	1.999749E-15	3.382888E-17
5.426339E+03	1.997256E-15	3.398705E-17
5.431857E+03	1.996250E-15	3.242045E-17
5.437375E+03	1.996285E-15	3.051311E-17
5.442893E+03	1.997508E-15	2.901664E-17
5.448410E+03	1.999325E-15	2.946986E-17
5.453928E+03	1.999209E-15	3.094046E-17
5.459446E+03	1.998051E-15	2.979170E-17
5.464964E+03	1.995704E-15	2.853998E-17
5.470482E+03	1.992911E-15	2.746596E-17
5.476000E+03	1.988335E-15	2.695285E-17
5.481518E+03	1.983611E-15	2.710105E-17
5.487036E+03	1.977700E-15	2.699082E-17
5.492554E+03	1.970007E-15	2.665931E-17
5.498072E+03	1.960682E-15	2.614694E-17
5.503590E+03	1.951507E-15	2.494903E-17
5.509108E+03	1.942186E-15	2.481981E-17
5.514626E+03	1.935093E-15	2.525822E-17
5.520144E+03	1.929486E-15	2.519905E-17
5.525662E+03	1.923879E-15	2.464256E-17
5.531179E+03	1.916641E-15	2.441768E-17
5.536697E+03	1.906734E-15	2.476462E-17
5.542215E+03	1.894308E-15	2.498584E-17
5.547733E+03	1.878770E-15	2.607494E-17
5.553251E+03	1.862049E-15	2.581795E-17
5.558769E+03	1.845629E-15	2.602621E-17
5.564287E+03	1.828768E-15	2.495023E-17
5.569805E+03	1.811615E-15	2.289868E-17
5.575323E+03	1.794614E-15	2.330578E-17
5.580841E+03	1.778210E-15	2.510951E-17
5.586359E+03	1.759736E-15	3.041224E-17
5.591877E+03	1.741414E-15	3.159270E-17
5.597395E+03	1.723097E-15	2.951452E-17
5.602913E+03	1.706118E-15	2.921507E-17
5.608430E+03	1.690327E-15	2.933148E-17
5.613948E+03	1.677206E-15	3.042846E-17
5.619466E+03	1.665419E-15	3.073798E-17
5.624984E+03	1.656449E-15	3.070985E-17
5.630502E+03	1.649108E-15	3.068671E-17
5.636020E+03	1.641916E-15	2.671216E-17
5.641538E+03	1.635614E-15	2.443566E-17
5.647056E+03	1.631088E-15	2.407053E-17
5.652574E+03	1.625824E-15	2.431667E-17
5.658092E+03	1.620560E-15	2.472307E-17
5.663610E+03	1.615889E-15	2.386789E-17
5.669128E+03	1.612697E-15	2.363428E-17
5.674646E+03	1.608323E-15	2.356796E-17
5.680163E+03	1.603950E-15	2.260177E-17
5.685681E+03	1.597952E-15	2.316658E-17
5.691199E+03	1.590478E-15	2.346422E-17
5.696717E+03	1.580641E-15	2.341583E-17
5.702235E+03	1.570069E-15	2.253332E-17
5.707753E+03	1.558908E-15	2.221463E-17
5.713271E+03	1.548636E-15	2.457995E-17
5.718789E+03	1.538957E-15	2.524384E-17
5.724307E+03	1.530019E-15	2.593673E-17
5.729825E+03	1.521969E-15	2.505044E-17
5.735343E+03	1.515987E-15	2.593829E-17
5.740861E+03	1.513252E-15	2.994303E-17
5.746379E+03	1.513616E-15	3.115190E-17
5.751897E+03	1.518405E-15	3.257194E-17
5.757414E+03	1.528355E-15	3.184636E-17
5.762932E+03	1.541545E-15	2.899717E-17
5.768450E+03	1.558418E-15	2.782254E-17
5.773968E+03	1.580002E-15	2.562705E-17
5.779486E+03	1.606297E-15	2.761206E-17
5.785004E+03	1.635236E-15	3.022110E-17
5.790522E+03	1.668734E-15	2.797191E-17
5.796040E+03	1.706789E-15	2.676851E-17
5.801558E+03	1.748220E-15	2.543779E-17
5.807076E+03	1.793026E-15	2.670046E-17
5.812594E+03	1.840764E-15	2.955065E-17
5.818112E+03	1.888927E-15	3.020111E-17
5.823630E+03	1.936929E-15	3.025521E-17
5.829148E+03	1.983737E-15	2.955778E-17
5.834666E+03	2.028323E-15	2.899945E-17
5.840183E+03	2.070245E-15	2.976611E-17
5.845701E+03	2.109653E-15	3.013905E-17
5.851219E+03	2.143899E-15	3.067244E-17
5.856737E+03	2.171662E-15	3.094818E-17
5.862255E+03	2.190885E-15	2.828009E-17
5.867773E+03	2.202015E-15	2.737248E-17
5.873291E+03	2.204907E-15	2.702705E-17
5.878809E+03	2.202211E-15	2.654954E-17
5.884327E+03	2.195842E-15	2.648891E-17
5.889845E+03	2.186387E-15	2.642505E-17
5.895363E+03	2.174731E-15	2.633894E-17
5.900881E+03	2.161462E-15	3.040173E-17
5.906399E+03	2.146435E-15	3.778064E-17
5.911917E+03	2.129502E-15	4.539110E-17
