#wls	flux	fluxerr
1.600000E+03	7.310638E-17	4.327312E-17
1.640000E+03	7.415270E-17	4.344307E-17
1.680000E+03	7.531146E-17	4.365189E-17
1.720000E+03	7.658378E-17	4.389721E-17
1.760000E+03	7.797750E-17	4.418028E-17
1.800000E+03	7.950663E-17	4.450549E-17
1.840000E+03	8.115810E-17	4.486167E-17
1.880000E+03	8.295203E-17	4.525599E-17
1.920000E+03	8.488838E-17	4.568399E-17
1.960000E+03	8.696730E-17	4.614114E-17
2.000000E+03	8.918304E-17	4.661964E-17
2.040000E+03	9.153663E-17	4.711515E-17
2.080000E+03	9.401752E-17	4.761728E-17
2.120000E+03	9.660464E-17	4.811055E-17
2.160000E+03	9.929607E-17	4.858942E-17
2.200000E+03	1.020680E-16	4.903777E-17
2.240000E+03	1.049043E-16	4.944388E-17
2.280000E+03	1.078017E-16	4.980243E-17
2.320000E+03	1.107690E-16	5.011360E-17
2.360000E+03	1.138314E-16	5.038453E-17
2.400000E+03	1.170192E-16	5.062348E-17
2.440000E+03	1.203623E-16	5.083725E-17
2.480000E+03	1.239062E-16	5.103766E-17
2.520000E+03	1.276805E-16	5.122814E-17
2.560000E+03	1.317251E-16	5.141480E-17
2.600000E+03	1.360657E-16	5.159637E-17
2.640000E+03	1.407345E-16	5.177259E-17
2.680000E+03	1.457551E-16	5.193868E-17
2.720000E+03	1.511539E-16	5.208949E-17
2.760000E+03	1.569598E-16	5.221948E-17
2.800000E+03	1.632003E-16	5.232121E-17
2.840000E+03	1.699067E-16	5.238721E-17
2.880000E+03	1.771240E-16	5.241280E-17
2.920000E+03	1.848928E-16	5.239011E-17
2.960000E+03	1.932827E-16	5.231779E-17
3.000000E+03	2.023558E-16	5.218980E-17
3.010000E+03	2.047457E-16	5.215015E-17
3.020000E+03	2.071818E-16	5.210599E-17
3.030000E+03	2.096649E-16	5.205716E-17
3.040000E+03	2.122054E-16	5.200584E-17
3.050000E+03	2.147996E-16	5.195066E-17
3.060000E+03	2.174485E-16	5.189145E-17
3.070000E+03	2.201580E-16	5.182915E-17
3.080000E+03	2.229244E-16	5.176245E-17
3.090000E+03	2.257489E-16	5.169121E-17
3.100000E+03	2.286422E-16	5.161741E-17
3.110000E+03	2.315961E-16	5.153872E-17
3.120000E+03	2.346166E-16	5.145607E-17
3.130000E+03	2.377005E-16	5.136825E-17
3.140000E+03	2.408633E-16	5.127820E-17
3.150000E+03	2.440924E-16	5.118270E-17
3.160000E+03	2.473941E-16	5.108265E-17
3.170000E+03	2.507747E-16	5.097892E-17
3.180000E+03	2.542361E-16	5.087136E-17
3.190000E+03	2.577703E-16	5.075797E-17
3.200000E+03	2.613936E-16	5.064152E-17
3.210000E+03	2.650984E-16	5.052004E-17
3.220000E+03	2.688914E-16	5.039442E-17
3.230000E+03	2.727700E-16	5.026372E-17
3.240000E+03	2.767412E-16	5.012885E-17
3.250000E+03	2.808072E-16	4.998982E-17
3.260000E+03	2.849705E-16	4.984665E-17
3.270000E+03	2.892286E-16	4.969858E-17
3.280000E+03	2.935889E-16	4.954658E-17
3.290000E+03	2.980542E-16	4.939078E-17
3.300000E+03	3.026224E-16	4.923056E-17
3.310000E+03	3.073013E-16	4.906694E-17
3.320000E+03	3.120890E-16	4.889943E-17
3.330000E+03	3.169937E-16	4.872913E-17
3.340000E+03	3.220136E-16	4.855565E-17
3.350000E+03	3.271522E-16	4.837944E-17
3.360000E+03	3.324131E-16	4.820100E-17
3.370000E+03	3.378001E-16	4.802092E-17
3.380000E+03	3.433170E-16	4.783983E-17
3.390000E+03	3.489630E-16	4.765775E-17
3.400000E+03	3.547475E-16	4.747618E-17
3.410000E+03	3.606646E-16	4.729466E-17
3.420000E+03	3.667293E-16	4.711551E-17
3.430000E+03	3.729364E-16	4.693850E-17
3.440000E+03	3.792910E-16	4.676480E-17
3.450000E+03	3.857986E-16	4.659573E-17
3.460000E+03	3.924596E-16	4.643204E-17
3.470000E+03	3.992855E-16	4.627590E-17
3.480000E+03	4.062775E-16	4.612828E-17
3.490000E+03	4.134372E-16	4.599034E-17
3.500000E+03	4.207719E-16	4.586395E-17
3.510000E+03	4.282840E-16	4.575051E-17
3.520000E+03	4.359875E-16	4.565269E-17
3.530000E+03	4.438750E-16	4.557097E-17
3.540000E+03	4.519619E-16	4.550826E-17
3.550000E+03	4.602532E-16	4.546641E-17
3.560000E+03	4.687608E-16	4.544792E-17
3.570000E+03	4.774861E-16	4.545430E-17
3.580000E+03	4.864374E-16	4.548768E-17
3.590000E+03	4.956358E-16	4.555132E-17
3.600000E+03	5.050812E-16	4.564638E-17
3.610000E+03	5.147981E-16	4.577621E-17
3.620000E+03	5.248017E-16	4.594308E-17
3.630000E+03	5.351033E-16	4.614876E-17
3.640000E+03	5.457227E-16	4.639557E-17
3.650000E+03	5.566879E-16	4.668629E-17
3.660000E+03	5.680182E-16	4.702264E-17
3.670000E+03	5.797536E-16	4.740786E-17
3.680000E+03	5.919128E-16	4.784308E-17
3.690000E+03	6.045359E-16	4.833090E-17
3.700000E+03	6.176593E-16	4.887334E-17
3.710000E+03	6.313286E-16	4.947286E-17
3.720000E+03	6.455785E-16	5.013077E-17
3.730000E+03	6.604580E-16	5.084926E-17
3.740000E+03	6.760102E-16	5.162986E-17
3.750000E+03	6.922845E-16	5.247436E-17
3.760000E+03	7.093219E-16	5.338378E-17
3.770000E+03	7.271675E-16	5.435930E-17
3.780000E+03	7.458542E-16	5.540112E-17
3.790000E+03	7.654084E-16	5.650891E-17
3.800000E+03	7.858705E-16	5.768332E-17
3.810000E+03	8.072326E-16	5.892149E-17
3.820000E+03	8.295045E-16	6.022188E-17
3.830000E+03	8.526818E-16	6.158202E-17
3.840000E+03	8.767194E-16	6.299654E-17
3.850000E+03	9.015695E-16	6.446006E-17
3.860000E+03	9.271733E-16	6.596650E-17
3.870000E+03	9.534430E-16	6.750792E-17
3.880000E+03	9.802700E-16	6.907506E-17
3.890000E+03	1.007516E-15	7.065675E-17
3.900000E+03	1.035040E-15	7.224197E-17
3.910000E+03	1.062676E-15	7.381807E-17
3.920000E+03	1.090244E-15	7.537161E-17
3.930000E+03	1.117550E-15	7.688866E-17
3.940000E+03	1.144397E-15	7.835511E-17
3.950000E+03	1.170593E-15	7.975771E-17
3.960000E+03	1.195944E-15	8.108304E-17
3.970000E+03	1.220250E-15	8.231782E-17
3.980000E+03	1.243359E-15	8.345223E-17
3.990000E+03	1.265109E-15	8.447575E-17
4.000000E+03	1.285378E-15	8.538119E-17
4.010000E+03	1.304064E-15	8.616257E-17
4.020000E+03	1.321079E-15	8.681525E-17
4.030000E+03	1.336403E-15	8.733904E-17
4.040000E+03	1.350010E-15	8.773355E-17
4.050000E+03	1.361925E-15	8.800187E-17
4.060000E+03	1.372190E-15	8.814813E-17
4.070000E+03	1.380871E-15	8.817798E-17
4.080000E+03	1.388053E-15	8.809836E-17
4.090000E+03	1.393848E-15	8.791792E-17
4.100000E+03	1.398360E-15	8.764444E-17
4.110000E+03	1.401709E-15	8.728681E-17
4.120000E+03	1.404044E-15	8.685556E-17
4.130000E+03	1.405465E-15	8.635799E-17
4.140000E+03	1.406109E-15	8.580335E-17
4.150000E+03	1.406090E-15	8.519963E-17
4.160000E+03	1.405520E-15	8.455419E-17
4.170000E+03	1.404499E-15	8.387375E-17
4.180000E+03	1.403121E-15	8.316433E-17
4.190000E+03	1.401471E-15	8.243131E-17
4.200000E+03	1.399627E-15	8.167947E-17
4.210000E+03	1.397659E-15	8.091308E-17
4.220000E+03	1.395637E-15	8.013597E-17
4.230000E+03	1.393610E-15	7.935099E-17
4.240000E+03	1.391643E-15	7.856152E-17
4.250000E+03	1.389814E-15	7.777152E-17
4.260000E+03	1.388190E-15	7.698430E-17
4.270000E+03	1.386821E-15	7.620191E-17
4.280000E+03	1.385799E-15	7.542865E-17
4.290000E+03	1.385213E-15	7.466836E-17
4.300000E+03	1.385161E-15	7.392513E-17
4.310000E+03	1.385749E-15	7.320328E-17
4.320000E+03	1.387081E-15	7.250673E-17
4.330000E+03	1.389309E-15	7.184144E-17
4.340000E+03	1.392540E-15	7.121088E-17
4.350000E+03	1.396939E-15	7.062099E-17
4.360000E+03	1.402650E-15	7.007623E-17
4.370000E+03	1.409833E-15	6.958134E-17
4.380000E+03	1.418633E-15	6.913987E-17
4.390000E+03	1.429203E-15	6.875529E-17
4.400000E+03	1.441679E-15	6.842954E-17
4.410000E+03	1.456207E-15	6.816472E-17
4.420000E+03	1.472894E-15	6.796041E-17
4.430000E+03	1.491826E-15	6.781476E-17
4.440000E+03	1.513092E-15	6.772553E-17
4.450000E+03	1.536726E-15	6.768752E-17
4.460000E+03	1.562740E-15	6.769428E-17
4.470000E+03	1.591126E-15	6.773800E-17
4.480000E+03	1.621791E-15	6.780703E-17
4.490000E+03	1.654638E-15	6.788953E-17
4.500000E+03	1.689511E-15	6.797107E-17
4.510000E+03	1.726185E-15	6.803470E-17
4.520000E+03	1.764403E-15	6.806238E-17
4.530000E+03	1.803852E-15	6.803463E-17
4.540000E+03	1.844176E-15	6.793080E-17
4.550000E+03	1.884968E-15	6.772951E-17
4.560000E+03	1.925768E-15	6.740849E-17
4.570000E+03	1.966079E-15	6.694574E-17
4.580000E+03	2.005438E-15	6.632202E-17
4.590000E+03	2.043293E-15	6.551703E-17
4.600000E+03	2.079110E-15	6.451318E-17
4.610000E+03	2.112409E-15	6.329684E-17
4.620000E+03	2.142713E-15	6.185689E-17
4.630000E+03	2.169523E-15	6.018413E-17
4.640000E+03	2.192518E-15	5.827688E-17
4.650000E+03	2.211288E-15	5.613367E-17
4.660000E+03	2.225621E-15	5.376082E-17
4.670000E+03	2.235319E-15	5.116729E-17
4.680000E+03	2.240258E-15	4.836635E-17
4.690000E+03	2.240396E-15	4.537548E-17
4.700000E+03	2.235761E-15	4.221625E-17
4.710000E+03	2.226497E-15	3.891509E-17
4.720000E+03	2.212737E-15	3.550149E-17
4.730000E+03	2.194683E-15	3.201053E-17
4.740000E+03	2.172592E-15	2.848453E-17
4.750000E+03	2.146677E-15	2.497533E-17
4.760000E+03	2.117261E-15	2.155322E-17
4.770000E+03	2.084531E-15	1.831657E-17
4.780000E+03	2.048757E-15	1.541603E-17
4.790000E+03	2.010135E-15	1.308180E-17
4.800000E+03	1.968776E-15	1.162470E-17
4.810000E+03	1.924840E-15	1.130687E-17
4.820000E+03	1.879093E-15	1.204446E-17
4.830000E+03	1.832737E-15	1.345681E-17
4.840000E+03	1.786868E-15	1.519337E-17
4.850000E+03	1.742374E-15	1.703760E-17
4.860000E+03	1.699945E-15	1.887924E-17
4.870000E+03	1.660124E-15	2.067046E-17
4.880000E+03	1.623270E-15	2.239331E-17
4.890000E+03	1.589516E-15	2.404150E-17
4.900000E+03	1.558929E-15	2.561739E-17
4.910000E+03	1.531463E-15	2.712683E-17
4.920000E+03	1.507070E-15	2.857834E-17
4.930000E+03	1.485654E-15	2.998075E-17
4.940000E+03	1.467086E-15	3.134256E-17
4.950000E+03	1.451256E-15	3.267245E-17
4.960000E+03	1.438023E-15	3.397790E-17
4.970000E+03	1.427278E-15	3.526651E-17
4.980000E+03	1.418890E-15	3.654463E-17
4.990000E+03	1.412752E-15	3.781847E-17
5.000000E+03	1.408754E-15	3.909345E-17
5.010000E+03	1.406841E-15	4.037582E-17
5.020000E+03	1.406910E-15	4.166997E-17
5.030000E+03	1.408899E-15	4.298080E-17
5.040000E+03	1.412770E-15	4.431344E-17
5.050000E+03	1.418461E-15	4.567190E-17
5.060000E+03	1.425933E-15	4.706039E-17
5.070000E+03	1.435149E-15	4.848284E-17
5.080000E+03	1.446074E-15	4.994286E-17
5.090000E+03	1.458660E-15	5.144317E-17
5.100000E+03	1.472868E-15	5.298658E-17
5.110000E+03	1.488673E-15	5.457593E-17
5.120000E+03	1.505998E-15	5.621188E-17
5.130000E+03	1.524819E-15	5.789667E-17
5.140000E+03	1.545026E-15	5.962893E-17
5.150000E+03	1.566575E-15	6.140941E-17
5.160000E+03	1.589363E-15	6.323621E-17
5.170000E+03	1.613289E-15	6.510705E-17
5.180000E+03	1.638237E-15	6.701865E-17
5.190000E+03	1.664058E-15	6.896594E-17
5.200000E+03	1.690604E-15	7.094340E-17
5.210000E+03	1.717693E-15	7.294364E-17
5.220000E+03	1.745180E-15	7.496041E-17
5.230000E+03	1.772819E-15	7.698267E-17
5.240000E+03	1.800424E-15	7.900142E-17
5.250000E+03	1.827780E-15	8.100617E-17
5.260000E+03	1.854672E-15	8.298584E-17
5.270000E+03	1.880844E-15	8.492724E-17
5.280000E+03	1.906102E-15	8.681961E-17
5.290000E+03	1.930223E-15	8.865061E-17
5.300000E+03	1.953020E-15	9.040918E-17
5.310000E+03	1.974300E-15	9.208405E-17
5.320000E+03	1.993937E-15	9.366673E-17
5.330000E+03	2.011767E-15	9.514706E-17
5.340000E+03	2.027695E-15	9.651805E-17
5.350000E+03	2.041635E-15	9.777315E-17
5.360000E+03	2.053568E-15	9.890925E-17
5.370000E+03	2.063423E-15	9.992074E-17
5.380000E+03	2.071234E-15	1.008074E-16
5.390000E+03	2.077022E-15	1.015684E-16
5.400000E+03	2.080824E-15	1.022041E-16
5.410000E+03	2.082658E-15	1.027139E-16
5.420000E+03	2.082594E-15	1.031004E-16
5.430000E+03	2.080719E-15	1.033666E-16
5.440000E+03	2.077045E-15	1.035127E-16
5.450000E+03	2.071677E-15	1.035432E-16
5.460000E+03	2.064664E-15	1.034602E-16
5.470000E+03	2.056104E-15	1.032685E-16
5.480000E+03	2.046200E-15	1.029783E-16
5.490000E+03	2.035080E-15	1.025962E-16
5.500000E+03	2.022955E-15	1.021330E-16
5.510000E+03	2.009995E-15	1.015980E-16
5.520000E+03	1.996435E-15	1.010033E-16
5.530000E+03	1.982409E-15	1.003563E-16
5.540000E+03	1.968112E-15	9.966750E-17
5.550000E+03	1.953700E-15	9.894538E-17
5.560000E+03	1.939387E-15	9.820139E-17
5.570000E+03	1.925308E-15	9.744291E-17
5.580000E+03	1.911634E-15	9.667917E-17
5.590000E+03	1.898515E-15	9.591819E-17
5.600000E+03	1.886135E-15	9.516967E-17
5.610000E+03	1.874614E-15	9.443997E-17
5.620000E+03	1.864102E-15	9.373697E-17
5.630000E+03	1.854743E-15	9.306797E-17
5.640000E+03	1.846651E-15	9.243868E-17
5.650000E+03	1.839947E-15	9.185503E-17
5.660000E+03	1.834701E-15	9.132024E-17
5.670000E+03	1.831007E-15	9.083853E-17
5.680000E+03	1.828943E-15	9.041312E-17
5.690000E+03	1.828550E-15	9.004523E-17
5.700000E+03	1.829849E-15	8.973496E-17
5.710000E+03	1.832841E-15	8.948117E-17
5.720000E+03	1.837543E-15	8.928341E-17
5.730000E+03	1.843869E-15	8.913614E-17
5.740000E+03	1.851788E-15	8.903633E-17
5.750000E+03	1.861202E-15	8.897778E-17
5.760000E+03	1.871971E-15	8.895210E-17
5.770000E+03	1.883963E-15	8.895164E-17
5.780000E+03	1.897028E-15	8.896772E-17
5.790000E+03	1.910947E-15	8.898882E-17
5.800000E+03	1.925505E-15	8.900369E-17
5.810000E+03	1.940510E-15	8.900249E-17
5.820000E+03	1.955675E-15	8.897129E-17
5.830000E+03	1.970768E-15	8.889907E-17
5.840000E+03	1.985535E-15	8.877412E-17
5.850000E+03	1.999726E-15	8.858535E-17
5.860000E+03	2.013123E-15	8.832348E-17
5.870000E+03	2.025458E-15	8.797737E-17
5.880000E+03	2.036571E-15	8.754115E-17
5.890000E+03	2.046261E-15	8.700744E-17
5.900000E+03	2.054380E-15	8.637149E-17
5.910000E+03	2.060805E-15	8.563018E-17
5.920000E+03	2.065451E-15	8.478211E-17
5.930000E+03	2.068281E-15	8.382847E-17
5.940000E+03	2.069224E-15	8.276914E-17
5.950000E+03	2.068280E-15	8.160742E-17
5.960000E+03	2.065500E-15	8.034881E-17
5.970000E+03	2.060934E-15	7.899897E-17
5.980000E+03	2.054603E-15	7.756273E-17
5.990000E+03	2.046640E-15	7.604928E-17
6.000000E+03	2.037075E-15	7.446393E-17
6.010000E+03	2.026086E-15	7.281772E-17
6.020000E+03	2.013722E-15	7.111676E-17
6.030000E+03	2.000109E-15	6.937002E-17
6.040000E+03	1.985399E-15	6.758737E-17
6.050000E+03	1.969707E-15	6.577720E-17
6.060000E+03	1.953174E-15	6.394881E-17
6.070000E+03	1.935902E-15	6.211017E-17
6.080000E+03	1.918093E-15	6.027246E-17
6.090000E+03	1.899841E-15	5.844341E-17
6.100000E+03	1.881366E-15	5.663468E-17
6.110000E+03	1.862828E-15	5.485605E-17
6.120000E+03	1.844398E-15	5.311766E-17
6.130000E+03	1.826281E-15	5.143060E-17
6.140000E+03	1.808715E-15	4.980677E-17
6.150000E+03	1.791900E-15	4.825686E-17
6.160000E+03	1.776061E-15	4.679213E-17
6.170000E+03	1.761472E-15	4.542473E-17
6.180000E+03	1.748313E-15	4.416390E-17
6.190000E+03	1.736825E-15	4.301974E-17
6.200000E+03	1.727232E-15	4.200100E-17
6.210000E+03	1.719742E-15	4.111459E-17
6.220000E+03	1.714491E-15	4.036372E-17
6.230000E+03	1.711608E-15	3.974470E-17
6.240000E+03	1.711205E-15	3.924755E-17
6.250000E+03	1.713316E-15	3.885920E-17
6.260000E+03	1.717978E-15	3.856647E-17
6.270000E+03	1.725169E-15	3.835516E-17
6.280000E+03	1.734846E-15	3.821165E-17
6.290000E+03	1.746906E-15	3.812229E-17
6.300000E+03	1.761202E-15	3.807441E-17
6.310000E+03	1.777576E-15	3.805717E-17
6.320000E+03	1.795833E-15	3.806151E-17
6.330000E+03	1.815696E-15	3.807961E-17
6.340000E+03	1.836910E-15	3.810744E-17
6.350000E+03	1.859199E-15	3.814428E-17
6.360000E+03	1.882217E-15	3.819223E-17
6.370000E+03	1.905688E-15	3.825929E-17
6.380000E+03	1.929281E-15	3.835706E-17
6.390000E+03	1.952671E-15	3.850183E-17
6.400000E+03	1.975546E-15	3.871428E-17
6.410000E+03	1.997670E-15	3.901970E-17
6.420000E+03	2.018749E-15	3.944373E-17
6.430000E+03	2.038610E-15	4.001359E-17
6.440000E+03	2.057059E-15	4.075249E-17
6.450000E+03	2.073974E-15	4.167063E-17
6.460000E+03	2.089361E-15	4.275948E-17
6.470000E+03	2.103238E-15	4.400311E-17
6.480000E+03	2.115693E-15	4.538270E-17
6.490000E+03	2.126742E-15	4.687574E-17
6.500000E+03	2.136553E-15	4.846246E-17
6.510000E+03	2.145244E-15	5.012283E-17
6.520000E+03	2.152903E-15	5.183778E-17
6.530000E+03	2.159686E-15	5.359183E-17
6.540000E+03	2.165707E-15	5.537087E-17
6.550000E+03	2.171069E-15	5.716273E-17
6.560000E+03	2.175855E-15	5.895694E-17
6.570000E+03	2.180164E-15	6.074543E-17
6.580000E+03	2.184002E-15	6.251929E-17
6.590000E+03	2.187389E-15	6.427132E-17
6.600000E+03	2.190356E-15	6.599598E-17
6.610000E+03	2.192880E-15	6.768712E-17
6.620000E+03	2.194885E-15	6.933768E-17
6.630000E+03	2.196355E-15	7.094303E-17
6.640000E+03	2.197189E-15	7.249644E-17
6.650000E+03	2.197397E-15	7.399505E-17
6.660000E+03	2.196839E-15	7.543139E-17
6.670000E+03	2.195453E-15	7.680084E-17
6.680000E+03	2.193227E-15	7.810062E-17
6.690000E+03	2.190121E-15	7.932735E-17
6.700000E+03	2.186076E-15	8.047697E-17
6.710000E+03	2.181084E-15	8.154760E-17
6.720000E+03	2.175197E-15	8.253966E-17
6.730000E+03	2.168408E-15	8.345164E-17
6.740000E+03	2.160808E-15	8.428586E-17
6.750000E+03	2.152387E-15	8.504101E-17
6.760000E+03	2.143307E-15	8.572264E-17
6.770000E+03	2.133592E-15	8.633096E-17
6.780000E+03	2.123430E-15	8.687300E-17
6.790000E+03	2.112866E-15	8.735013E-17
6.800000E+03	2.102068E-15	8.776888E-17
6.810000E+03	2.091168E-15	8.813457E-17
6.820000E+03	2.080265E-15	8.845112E-17
6.830000E+03	2.069530E-15	8.872585E-17
6.840000E+03	2.059057E-15	8.896281E-17
6.850000E+03	2.049007E-15	8.916929E-17
6.860000E+03	2.039421E-15	8.934739E-17
6.870000E+03	2.030479E-15	8.950558E-17
6.880000E+03	2.022234E-15	8.964693E-17
6.890000E+03	2.014764E-15	8.977567E-17
6.900000E+03	2.008089E-15	8.989371E-17
6.910000E+03	2.002328E-15	9.000737E-17
6.920000E+03	1.997387E-15	9.011364E-17
6.930000E+03	1.993385E-15	9.021895E-17
6.940000E+03	1.990227E-15	9.032022E-17
6.950000E+03	1.987877E-15	9.041690E-17
6.960000E+03	1.986318E-15	9.050925E-17
6.970000E+03	1.985439E-15	9.059320E-17
6.980000E+03	1.985152E-15	9.066557E-17
6.990000E+03	1.985356E-15	9.072251E-17
7.000000E+03	1.985942E-15	9.075954E-17
7.010000E+03	1.986792E-15	9.077177E-17
7.020000E+03	1.987747E-15	9.075223E-17
7.030000E+03	1.988764E-15	9.069924E-17
7.040000E+03	1.989612E-15	9.060222E-17
7.050000E+03	1.990299E-15	9.046162E-17
7.060000E+03	1.990612E-15	9.026757E-17
7.070000E+03	1.990547E-15	9.001970E-17
7.080000E+03	1.990000E-15	8.971298E-17
7.090000E+03	1.988924E-15	8.934492E-17
7.100000E+03	1.987331E-15	8.891567E-17
7.110000E+03	1.985136E-15	8.842084E-17
7.120000E+03	1.982390E-15	8.786223E-17
7.130000E+03	1.979084E-15	8.723886E-17
7.140000E+03	1.975306E-15	8.655400E-17
7.150000E+03	1.971119E-15	8.580975E-17
7.160000E+03	1.966556E-15	8.500697E-17
7.170000E+03	1.961739E-15	8.415037E-17
7.180000E+03	1.956678E-15	8.323978E-17
7.190000E+03	1.951542E-15	8.228200E-17
7.200000E+03	1.946381E-15	8.127873E-17
7.210000E+03	1.941244E-15	8.023165E-17
7.220000E+03	1.936251E-15	7.914558E-17
7.230000E+03	1.931475E-15	7.802336E-17
7.240000E+03	1.926941E-15	7.686591E-17
7.250000E+03	1.922700E-15	7.567534E-17
7.260000E+03	1.918792E-15	7.445329E-17
7.270000E+03	1.915245E-15	7.320091E-17
7.280000E+03	1.912072E-15	7.191880E-17
7.290000E+03	1.909195E-15	7.060412E-17
7.300000E+03	1.906681E-15	6.925952E-17
7.310000E+03	1.904466E-15	6.788281E-17
7.320000E+03	1.902474E-15	6.647158E-17
7.330000E+03	1.900700E-15	6.502605E-17
7.340000E+03	1.899011E-15	6.354233E-17
7.350000E+03	1.897345E-15	6.201954E-17
7.360000E+03	1.895639E-15	6.045717E-17
7.370000E+03	1.893783E-15	5.885408E-17
7.380000E+03	1.891749E-15	5.721255E-17
7.390000E+03	1.889349E-15	5.553119E-17
7.400000E+03	1.886598E-15	5.381612E-17
7.410000E+03	1.883357E-15	5.207053E-17
7.420000E+03	1.879611E-15	5.030312E-17
7.430000E+03	1.875277E-15	4.852279E-17
7.440000E+03	1.870319E-15	4.674226E-17
7.450000E+03	1.864753E-15	4.497826E-17
7.460000E+03	1.858530E-15	4.324881E-17
7.470000E+03	1.851771E-15	4.157921E-17
7.480000E+03	1.844411E-15	3.999362E-17
7.490000E+03	1.836562E-15	3.852323E-17
7.500000E+03	1.828227E-15	3.719938E-17
7.510000E+03	1.819583E-15	3.605831E-17
7.520000E+03	1.810661E-15	3.513273E-17
7.530000E+03	1.801541E-15	3.445332E-17
7.540000E+03	1.792354E-15	3.404544E-17
7.550000E+03	1.783196E-15	3.392394E-17
7.560000E+03	1.774227E-15	3.408445E-17
7.570000E+03	1.765441E-15	3.450092E-17
7.580000E+03	1.756947E-15	3.514254E-17
7.590000E+03	1.748857E-15	3.597565E-17
7.600000E+03	1.741202E-15	3.696532E-17
7.610000E+03	1.734089E-15	3.808086E-17
7.620000E+03	1.727542E-15	3.929380E-17
7.630000E+03	1.721694E-15	4.058266E-17
7.640000E+03	1.716514E-15	4.192671E-17
7.650000E+03	1.712117E-15	4.331276E-17
7.660000E+03	1.708450E-15	4.472711E-17
7.670000E+03	1.705603E-15	4.616267E-17
7.680000E+03	1.703497E-15	4.761034E-17
7.690000E+03	1.702194E-15	4.906672E-17
7.700000E+03	1.701626E-15	5.052622E-17
7.710000E+03	1.701750E-15	5.198491E-17
7.720000E+03	1.702507E-15	5.343912E-17
7.730000E+03	1.703828E-15	5.488521E-17
7.740000E+03	1.705629E-15	5.631934E-17
7.750000E+03	1.707776E-15	5.773603E-17
7.760000E+03	1.710244E-15	5.913341E-17
