#wls	flux	fluxerr
1.600000E+03	2.737751E-17	1.794958E-17
1.640000E+03	2.739237E-17	1.786804E-17
1.680000E+03	2.741519E-17	1.778945E-17
1.720000E+03	2.745100E-17	1.771697E-17
1.760000E+03	2.750478E-17	1.765363E-17
1.800000E+03	2.757167E-17	1.759610E-17
1.840000E+03	2.765667E-17	1.754738E-17
1.880000E+03	2.775984E-17	1.750726E-17
1.920000E+03	2.787637E-17	1.747250E-17
1.960000E+03	2.801612E-17	1.744902E-17
2.000000E+03	2.817429E-17	1.743354E-17
2.040000E+03	2.835587E-17	1.742884E-17
2.080000E+03	2.856094E-17	1.743463E-17
2.120000E+03	2.879446E-17	1.745355E-17
2.160000E+03	2.904686E-17	1.747941E-17
2.200000E+03	2.933281E-17	1.752064E-17
2.240000E+03	2.964760E-17	1.757391E-17
2.280000E+03	2.999622E-17	1.764167E-17
2.320000E+03	3.037398E-17	1.772062E-17
2.360000E+03	3.079557E-17	1.781871E-17
2.400000E+03	3.125149E-17	1.792975E-17
2.440000E+03	3.175161E-17	1.805870E-17
2.480000E+03	3.229612E-17	1.820486E-17
2.520000E+03	3.288523E-17	1.836749E-17
2.560000E+03	3.353368E-17	1.855388E-17
2.600000E+03	3.423201E-17	1.875768E-17
2.640000E+03	3.499497E-17	1.898590E-17
2.680000E+03	3.581793E-17	1.923471E-17
2.720000E+03	3.671568E-17	1.951072E-17
2.760000E+03	3.768842E-17	1.981244E-17
2.800000E+03	3.874118E-17	2.014087E-17
2.840000E+03	3.988386E-17	2.049930E-17
2.880000E+03	4.111650E-17	2.088575E-17
2.920000E+03	4.245871E-17	2.130795E-17
2.960000E+03	4.391040E-17	2.176332E-17
3.000000E+03	4.548117E-17	2.225393E-17
3.010000E+03	4.589196E-17	2.238150E-17
3.020000E+03	4.631294E-17	2.251238E-17
3.030000E+03	4.674409E-17	2.264651E-17
3.040000E+03	4.718047E-17	2.278143E-17
3.050000E+03	4.762701E-17	2.291948E-17
3.060000E+03	4.808370E-17	2.306059E-17
3.070000E+03	4.855052E-17	2.320470E-17
3.080000E+03	4.902251E-17	2.334938E-17
3.090000E+03	4.950957E-17	2.349928E-17
3.100000E+03	5.000176E-17	2.364962E-17
3.110000E+03	5.050403E-17	2.380269E-17
3.120000E+03	5.101635E-17	2.395841E-17
3.130000E+03	5.154366E-17	2.411904E-17
3.140000E+03	5.207603E-17	2.427984E-17
3.150000E+03	5.262335E-17	2.444538E-17
3.160000E+03	5.317566E-17	2.461095E-17
3.170000E+03	5.374288E-17	2.478108E-17
3.180000E+03	5.432498E-17	2.495566E-17
3.190000E+03	5.491198E-17	2.513004E-17
3.200000E+03	5.551380E-17	2.530869E-17
3.210000E+03	5.613040E-17	2.549150E-17
3.220000E+03	5.675677E-17	2.567611E-17
3.230000E+03	5.739288E-17	2.586243E-17
3.240000E+03	5.804364E-17	2.605261E-17
3.250000E+03	5.870903E-17	2.624652E-17
3.260000E+03	5.938401E-17	2.644183E-17
3.270000E+03	6.007850E-17	2.664286E-17
3.280000E+03	6.078249E-17	2.684506E-17
3.290000E+03	6.150088E-17	2.705053E-17
3.300000E+03	6.223364E-17	2.725914E-17
3.310000E+03	6.298070E-17	2.747076E-17
3.320000E+03	6.374198E-17	2.768526E-17
3.330000E+03	6.451742E-17	2.790250E-17
3.340000E+03	6.531194E-17	2.812450E-17
3.350000E+03	6.611548E-17	2.834681E-17
3.360000E+03	6.693793E-17	2.857359E-17
3.370000E+03	6.777922E-17	2.880466E-17
3.380000E+03	6.863425E-17	2.903774E-17
3.390000E+03	6.950794E-17	2.927478E-17
3.400000E+03	7.039517E-17	2.951352E-17
3.410000E+03	7.130084E-17	2.975588E-17
3.420000E+03	7.222485E-17	3.000169E-17
3.430000E+03	7.316706E-17	3.025075E-17
3.440000E+03	7.412737E-17	3.050289E-17
3.450000E+03	7.510564E-17	3.075789E-17
3.460000E+03	7.610173E-17	3.101559E-17
3.470000E+03	7.711551E-17	3.127577E-17
3.480000E+03	7.815183E-17	3.154025E-17
3.490000E+03	7.920552E-17	3.180679E-17
3.500000E+03	8.027644E-17	3.207519E-17
3.510000E+03	8.137439E-17	3.234921E-17
3.520000E+03	8.248422E-17	3.262265E-17
3.530000E+03	8.362072E-17	3.290122E-17
3.540000E+03	8.477871E-17	3.318268E-17
3.550000E+03	8.595299E-17	3.346485E-17
3.560000E+03	8.715332E-17	3.375135E-17
3.570000E+03	8.837451E-17	3.403999E-17
3.580000E+03	8.961631E-17	3.433048E-17
3.590000E+03	9.087849E-17	3.462258E-17
3.600000E+03	9.216578E-17	3.491790E-17
3.610000E+03	9.347791E-17	3.521612E-17
3.620000E+03	9.480964E-17	3.551509E-17
3.630000E+03	9.616566E-17	3.581637E-17
3.640000E+03	9.754567E-17	3.611965E-17
3.650000E+03	9.894936E-17	3.642461E-17
3.660000E+03	1.003764E-16	3.673092E-17
3.670000E+03	1.018265E-16	3.703827E-17
3.680000E+03	1.033043E-16	3.734810E-17
3.690000E+03	1.048044E-16	3.765829E-17
3.700000E+03	1.063314E-16	3.797025E-17
3.710000E+03	1.078800E-16	3.828187E-17
3.720000E+03	1.094548E-16	3.859454E-17
3.730000E+03	1.110602E-16	3.890960E-17
3.740000E+03	1.126860E-16	3.922322E-17
3.750000E+03	1.143366E-16	3.953675E-17
3.760000E+03	1.160117E-16	3.984979E-17
3.770000E+03	1.177156E-16	4.016363E-17
3.780000E+03	1.194429E-16	4.047618E-17
3.790000E+03	1.211981E-16	4.078870E-17
3.800000E+03	1.229758E-16	4.109911E-17
3.810000E+03	1.247802E-16	4.140863E-17
3.820000E+03	1.266109E-16	4.171684E-17
3.830000E+03	1.284673E-16	4.202328E-17
3.840000E+03	1.303488E-16	4.232751E-17
3.850000E+03	1.322548E-16	4.262910E-17
3.860000E+03	1.341895E-16	4.292914E-17
3.870000E+03	1.361427E-16	4.322409E-17
3.880000E+03	1.381233E-16	4.351658E-17
3.890000E+03	1.401307E-16	4.380613E-17
3.900000E+03	1.421593E-16	4.409076E-17
3.910000E+03	1.442134E-16	4.437150E-17
3.920000E+03	1.462874E-16	4.464642E-17
3.930000E+03	1.483901E-16	4.491795E-17
3.940000E+03	1.505113E-16	4.518273E-17
3.950000E+03	1.526549E-16	4.544172E-17
3.960000E+03	1.548155E-16	4.569306E-17
3.970000E+03	1.570018E-16	4.593907E-17
3.980000E+03	1.592081E-16	4.617789E-17
3.990000E+03	1.614291E-16	4.640769E-17
4.000000E+03	1.636733E-16	4.663073E-17
4.010000E+03	1.659351E-16	4.684518E-17
4.020000E+03	1.682091E-16	4.704929E-17
4.030000E+03	1.705038E-16	4.724523E-17
4.040000E+03	1.728090E-16	4.742999E-17
4.050000E+03	1.751285E-16	4.760442E-17
4.060000E+03	1.774614E-16	4.776809E-17
4.070000E+03	1.798069E-16	4.792060E-17
4.080000E+03	1.821596E-16	4.806032E-17
4.090000E+03	1.845185E-16	4.818691E-17
4.100000E+03	1.868875E-16	4.830118E-17
4.110000E+03	1.892611E-16	4.840160E-17
4.120000E+03	1.916430E-16	4.848899E-17
4.130000E+03	1.940189E-16	4.855961E-17
4.140000E+03	1.964014E-16	4.861658E-17
4.150000E+03	1.987807E-16	4.865738E-17
4.160000E+03	2.011562E-16	4.868177E-17
4.170000E+03	2.035271E-16	4.868954E-17
4.180000E+03	2.058883E-16	4.867945E-17
4.190000E+03	2.082390E-16	4.865134E-17
4.200000E+03	2.105830E-16	4.860612E-17
4.210000E+03	2.129109E-16	4.854162E-17
4.220000E+03	2.152179E-16	4.845682E-17
4.230000E+03	2.175120E-16	4.835366E-17
4.240000E+03	2.197799E-16	4.822924E-17
4.250000E+03	2.220255E-16	4.808458E-17
4.260000E+03	2.242440E-16	4.791883E-17
4.270000E+03	2.264353E-16	4.773212E-17
4.280000E+03	2.285949E-16	4.752372E-17
4.290000E+03	2.307183E-16	4.729296E-17
4.300000E+03	2.328014E-16	4.703929E-17
4.310000E+03	2.348483E-16	4.676387E-17
4.320000E+03	2.368550E-16	4.646618E-17
4.330000E+03	2.388134E-16	4.614501E-17
4.340000E+03	2.407238E-16	4.580083E-17
4.350000E+03	2.425825E-16	4.543339E-17
4.360000E+03	2.443901E-16	4.504323E-17
4.370000E+03	2.461429E-16	4.463021E-17
4.380000E+03	2.478418E-16	4.419496E-17
4.390000E+03	2.494795E-16	4.373672E-17
4.400000E+03	2.510529E-16	4.325558E-17
4.410000E+03	2.525712E-16	4.275368E-17
4.420000E+03	2.540195E-16	4.222916E-17
4.430000E+03	2.554071E-16	4.168421E-17
4.440000E+03	2.567274E-16	4.111845E-17
4.450000E+03	2.579821E-16	4.053284E-17
4.460000E+03	2.591726E-16	3.992834E-17
4.470000E+03	2.602969E-16	3.930535E-17
4.480000E+03	2.613568E-16	3.866491E-17
4.490000E+03	2.623502E-16	3.800752E-17
4.500000E+03	2.632794E-16	3.733428E-17
4.510000E+03	2.641427E-16	3.664578E-17
4.520000E+03	2.649497E-16	3.594419E-17
4.530000E+03	2.656953E-16	3.522965E-17
4.540000E+03	2.663820E-16	3.450333E-17
4.550000E+03	2.670157E-16	3.376693E-17
4.560000E+03	2.675920E-16	3.302074E-17
4.570000E+03	2.681205E-16	3.226693E-17
4.580000E+03	2.686005E-16	3.150632E-17
4.590000E+03	2.690312E-16	3.073983E-17
4.600000E+03	2.694227E-16	2.996963E-17
4.610000E+03	2.697743E-16	2.919670E-17
4.620000E+03	2.700890E-16	2.842250E-17
4.630000E+03	2.703666E-16	2.764817E-17
4.640000E+03	2.706171E-16	2.687601E-17
4.650000E+03	2.708403E-16	2.610730E-17
4.660000E+03	2.710361E-16	2.534349E-17
4.670000E+03	2.712148E-16	2.458706E-17
4.680000E+03	2.713763E-16	2.383968E-17
4.690000E+03	2.715242E-16	2.310346E-17
4.700000E+03	2.716620E-16	2.238067E-17
4.710000E+03	2.717932E-16	2.167376E-17
4.720000E+03	2.719249E-16	2.098567E-17
4.730000E+03	2.720573E-16	2.031896E-17
4.740000E+03	2.721941E-16	1.967676E-17
4.750000E+03	2.723391E-16	1.906240E-17
4.760000E+03	2.725024E-16	1.847992E-17
4.770000E+03	2.726811E-16	1.793267E-17
4.780000E+03	2.728821E-16	1.742489E-17
4.790000E+03	2.731124E-16	1.696094E-17
4.800000E+03	2.733687E-16	1.654468E-17
4.810000E+03	2.736643E-16	1.618091E-17
4.820000E+03	2.739990E-16	1.587351E-17
4.830000E+03	2.743759E-16	1.562619E-17
4.840000E+03	2.748009E-16	1.544238E-17
4.850000E+03	2.752762E-16	1.532459E-17
4.860000E+03	2.758071E-16	1.527466E-17
4.870000E+03	2.763916E-16	1.529310E-17
4.880000E+03	2.770370E-16	1.537985E-17
4.890000E+03	2.777432E-16	1.553349E-17
4.900000E+03	2.785068E-16	1.575146E-17
4.910000E+03	2.793365E-16	1.603116E-17
4.920000E+03	2.802244E-16	1.636848E-17
4.930000E+03	2.811755E-16	1.675970E-17
4.940000E+03	2.821846E-16	1.720030E-17
4.950000E+03	2.832529E-16	1.768611E-17
4.960000E+03	2.843815E-16	1.821306E-17
4.970000E+03	2.855682E-16	1.877701E-17
4.980000E+03	2.868105E-16	1.937409E-17
4.990000E+03	2.881094E-16	2.000088E-17
5.000000E+03	2.894592E-16	2.065378E-17
5.010000E+03	2.908606E-16	2.132994E-17
5.020000E+03	2.923147E-16	2.202676E-17
5.030000E+03	2.938157E-16	2.274143E-17
5.040000E+03	2.953644E-16	2.347185E-17
5.050000E+03	2.969585E-16	2.421586E-17
5.060000E+03	2.985991E-16	2.497180E-17
5.070000E+03	3.002805E-16	2.573760E-17
5.080000E+03	3.020003E-16	2.651159E-17
5.090000E+03	3.037599E-16	2.729255E-17
5.100000E+03	3.055568E-16	2.807906E-17
5.110000E+03	3.073892E-16	2.886982E-17
5.120000E+03	3.092582E-16	2.966394E-17
5.130000E+03	3.111550E-16	3.045960E-17
5.140000E+03	3.130845E-16	3.125637E-17
5.150000E+03	3.150412E-16	3.205289E-17
5.160000E+03	3.170268E-16	3.284852E-17
5.170000E+03	3.190359E-16	3.364196E-17
5.180000E+03	3.210667E-16	3.443229E-17
5.190000E+03	3.231209E-16	3.521900E-17
5.200000E+03	3.251933E-16	3.600088E-17
5.210000E+03	3.272858E-16	3.677748E-17
5.220000E+03	3.293932E-16	3.754761E-17
5.230000E+03	3.315139E-16	3.831047E-17
5.240000E+03	3.336464E-16	3.906528E-17
5.250000E+03	3.357927E-16	3.981172E-17
5.260000E+03	3.379441E-16	4.054818E-17
5.270000E+03	3.401029E-16	4.127437E-17
5.280000E+03	3.422639E-16	4.198912E-17
5.290000E+03	3.444295E-16	4.269216E-17
5.300000E+03	3.465909E-16	4.338188E-17
5.310000E+03	3.487544E-16	4.405852E-17
5.320000E+03	3.509072E-16	4.471996E-17
5.330000E+03	3.530559E-16	4.536649E-17
5.340000E+03	3.551953E-16	4.599697E-17
5.350000E+03	3.573204E-16	4.661024E-17
5.360000E+03	3.594301E-16	4.720566E-17
5.370000E+03	3.615233E-16	4.778259E-17
5.380000E+03	3.635950E-16	4.833991E-17
5.390000E+03	3.656441E-16	4.887699E-17
5.400000E+03	3.676616E-16	4.939220E-17
5.410000E+03	3.696544E-16	4.988601E-17
5.420000E+03	3.716176E-16	5.035733E-17
5.430000E+03	3.735422E-16	5.080454E-17
5.440000E+03	3.754313E-16	5.122765E-17
5.450000E+03	3.772800E-16	5.162562E-17
5.460000E+03	3.790913E-16	5.199851E-17
5.470000E+03	3.808564E-16	5.234477E-17
5.480000E+03	3.825785E-16	5.266453E-17
5.490000E+03	3.842568E-16	5.295739E-17
5.500000E+03	3.858908E-16	5.322300E-17
5.510000E+03	3.874797E-16	5.346101E-17
5.520000E+03	3.890272E-16	5.367171E-17
5.530000E+03	3.905286E-16	5.385425E-17
5.540000E+03	3.919877E-16	5.400897E-17
5.550000E+03	3.934040E-16	5.413568E-17
5.560000E+03	3.947816E-16	5.423477E-17
5.570000E+03	3.961244E-16	5.430669E-17
5.580000E+03	3.974282E-16	5.435076E-17
5.590000E+03	3.987014E-16	5.436806E-17
5.600000E+03	3.999440E-16	5.435855E-17
5.610000E+03	4.011562E-16	5.432220E-17
5.620000E+03	4.023468E-16	5.426018E-17
5.630000E+03	4.035118E-16	5.417194E-17
5.640000E+03	4.046516E-16	5.405753E-17
5.650000E+03	4.057753E-16	5.391820E-17
5.660000E+03	4.068834E-16	5.375404E-17
5.670000E+03	4.079766E-16	5.356516E-17
5.680000E+03	4.090600E-16	5.335229E-17
5.690000E+03	4.101299E-16	5.311500E-17
5.700000E+03	4.111916E-16	5.285404E-17
5.710000E+03	4.122461E-16	5.256960E-17
5.720000E+03	4.132987E-16	5.226247E-17
5.730000E+03	4.143507E-16	5.193287E-17
5.740000E+03	4.154031E-16	5.158104E-17
5.750000E+03	4.164574E-16	5.120723E-17
5.760000E+03	4.175102E-16	5.081118E-17
5.770000E+03	4.185766E-16	5.039483E-17
5.780000E+03	4.196447E-16	4.995683E-17
5.790000E+03	4.207250E-16	4.949862E-17
5.800000E+03	4.218193E-16	4.902051E-17
5.810000E+03	4.229250E-16	4.852234E-17
5.820000E+03	4.240440E-16	4.800449E-17
5.830000E+03	4.251876E-16	4.746839E-17
5.840000E+03	4.263440E-16	4.691289E-17
5.850000E+03	4.275249E-16	4.633948E-17
5.860000E+03	4.287327E-16	4.574859E-17
5.870000E+03	4.299607E-16	4.513970E-17
5.880000E+03	4.312210E-16	4.451430E-17
5.890000E+03	4.325164E-16	4.387292E-17
5.900000E+03	4.338406E-16	4.321515E-17
5.910000E+03	4.352015E-16	4.254204E-17
5.920000E+03	4.366023E-16	4.185424E-17
5.930000E+03	4.380420E-16	4.115192E-17
5.940000E+03	4.395290E-16	4.043625E-17
5.950000E+03	4.410624E-16	3.970752E-17
5.960000E+03	4.426463E-16	3.896653E-17
5.970000E+03	4.442851E-16	3.821414E-17
5.980000E+03	4.459833E-16	3.745126E-17
5.990000E+03	4.477409E-16	3.667846E-17
6.000000E+03	4.495627E-16	3.589683E-17
6.010000E+03	4.514491E-16	3.510716E-17
6.020000E+03	4.534153E-16	3.431149E-17
6.030000E+03	4.554573E-16	3.351046E-17
6.040000E+03	4.575808E-16	3.270562E-17
6.050000E+03	4.597871E-16	3.189831E-17
6.060000E+03	4.620927E-16	3.109114E-17
6.070000E+03	4.644889E-16	3.028515E-17
6.080000E+03	4.669930E-16	2.948337E-17
6.090000E+03	4.696067E-16	2.868807E-17
6.100000E+03	4.723323E-16	2.790183E-17
6.110000E+03	4.751771E-16	2.712794E-17
6.120000E+03	4.781539E-16	2.637033E-17
6.130000E+03	4.812599E-16	2.563247E-17
6.140000E+03	4.845078E-16	2.491913E-17
6.150000E+03	4.879054E-16	2.423529E-17
6.160000E+03	4.914600E-16	2.358633E-17
6.170000E+03	4.951732E-16	2.297783E-17
6.180000E+03	4.990514E-16	2.241599E-17
6.190000E+03	5.031002E-16	2.190726E-17
6.200000E+03	5.073242E-16	2.145810E-17
6.210000E+03	5.117320E-16	2.107506E-17
6.220000E+03	5.163137E-16	2.076351E-17
6.230000E+03	5.210797E-16	2.052902E-17
6.240000E+03	5.260155E-16	2.037530E-17
6.250000E+03	5.311277E-16	2.030589E-17
6.260000E+03	5.364034E-16	2.032253E-17
6.270000E+03	5.418401E-16	2.042629E-17
6.280000E+03	5.474158E-16	2.061648E-17
6.290000E+03	5.531315E-16	2.089237E-17
6.300000E+03	5.589689E-16	2.125171E-17
6.310000E+03	5.649213E-16	2.169209E-17
6.320000E+03	5.709752E-16	2.221037E-17
6.330000E+03	5.771096E-16	2.280282E-17
6.340000E+03	5.833161E-16	2.346609E-17
6.350000E+03	5.895794E-16	2.419650E-17
6.360000E+03	5.958770E-16	2.499013E-17
6.370000E+03	6.022062E-16	2.584402E-17
6.380000E+03	6.085442E-16	2.675451E-17
6.390000E+03	6.148743E-16	2.771834E-17
6.400000E+03	6.211801E-16	2.873241E-17
6.410000E+03	6.274451E-16	2.979374E-17
6.420000E+03	6.336601E-16	3.089976E-17
6.430000E+03	6.398018E-16	3.204728E-17
6.440000E+03	6.458544E-16	3.323344E-17
6.450000E+03	6.518102E-16	3.445575E-17
6.460000E+03	6.576545E-16	3.571128E-17
6.470000E+03	6.633734E-16	3.699706E-17
6.480000E+03	6.689455E-16	3.830958E-17
6.490000E+03	6.743739E-16	3.964658E-17
6.500000E+03	6.796384E-16	4.100444E-17
6.510000E+03	6.847275E-16	4.237990E-17
6.520000E+03	6.896384E-16	4.377016E-17
6.530000E+03	6.943527E-16	4.517138E-17
6.540000E+03	6.988691E-16	4.658070E-17
6.550000E+03	7.031874E-16	4.799533E-17
6.560000E+03	7.072911E-16	4.941133E-17
6.570000E+03	7.111814E-16	5.082593E-17
6.580000E+03	7.148518E-16	5.223578E-17
6.590000E+03	7.182964E-16	5.363757E-17
6.600000E+03	7.215101E-16	5.502802E-17
6.610000E+03	7.245061E-16	5.640529E-17
6.620000E+03	7.272629E-16	5.776489E-17
6.630000E+03	7.297954E-16	5.910518E-17
6.640000E+03	7.321013E-16	6.042324E-17
6.650000E+03	7.341698E-16	6.171549E-17
6.660000E+03	7.360179E-16	6.298073E-17
6.670000E+03	7.376360E-16	6.421558E-17
6.680000E+03	7.390240E-16	6.541755E-17
6.690000E+03	7.402012E-16	6.658593E-17
6.700000E+03	7.411592E-16	6.771771E-17
6.710000E+03	7.419091E-16	6.881169E-17
6.720000E+03	7.424434E-16	6.986509E-17
6.730000E+03	7.427741E-16	7.087700E-17
6.740000E+03	7.429039E-16	7.184579E-17
6.750000E+03	7.428455E-16	7.277091E-17
6.760000E+03	7.425835E-16	7.364917E-17
6.770000E+03	7.421503E-16	7.448217E-17
6.780000E+03	7.415405E-16	7.526795E-17
6.790000E+03	7.407488E-16	7.600462E-17
6.800000E+03	7.397896E-16	7.669235E-17
6.810000E+03	7.386772E-16	7.733152E-17
6.820000E+03	7.374070E-16	7.792061E-17
6.830000E+03	7.359938E-16	7.846026E-17
6.840000E+03	7.344334E-16	7.894917E-17
6.850000E+03	7.327408E-16	7.938823E-17
6.860000E+03	7.309216E-16	7.977742E-17
6.870000E+03	7.289814E-16	8.011681E-17
6.880000E+03	7.269164E-16	8.040552E-17
6.890000E+03	7.247515E-16	8.064597E-17
6.900000E+03	7.224733E-16	8.083639E-17
6.910000E+03	7.201070E-16	8.097939E-17
6.920000E+03	7.176488E-16	8.107447E-17
6.930000E+03	7.151046E-16	8.112224E-17
6.940000E+03	7.124804E-16	8.112344E-17
6.950000E+03	7.097820E-16	8.107884E-17
6.960000E+03	7.070153E-16	8.098929E-17
6.970000E+03	7.041958E-16	8.085682E-17
6.980000E+03	7.013198E-16	8.068132E-17
6.990000E+03	6.983835E-16	8.046274E-17
7.000000E+03	6.954119E-16	8.020436E-17
7.010000E+03	6.924011E-16	7.990622E-17
7.020000E+03	6.893569E-16	7.956954E-17
7.030000E+03	6.862850E-16	7.919555E-17
7.040000E+03	6.831910E-16	7.878553E-17
7.050000E+03	6.800805E-16	7.834081E-17
7.060000E+03	6.769498E-16	7.786168E-17
7.070000E+03	6.738137E-16	7.735061E-17
7.080000E+03	6.706777E-16	7.680903E-17
7.090000E+03	6.675380E-16	7.623734E-17
7.100000E+03	6.644093E-16	7.563810E-17
7.110000E+03	6.612786E-16	7.501076E-17
7.120000E+03	6.581695E-16	7.435895E-17
7.130000E+03	6.550782E-16	7.368323E-17
7.140000E+03	6.520011E-16	7.298420E-17
7.150000E+03	6.489524E-16	7.226454E-17
7.160000E+03	6.459374E-16	7.152592E-17
7.170000E+03	6.429435E-16	7.076808E-17
7.180000E+03	6.399937E-16	6.999473E-17
7.190000E+03	6.370755E-16	6.920572E-17
7.200000E+03	6.342118E-16	6.840478E-17
7.210000E+03	6.313814E-16	6.759091E-17
7.220000E+03	6.286070E-16	6.676790E-17
7.230000E+03	6.258765E-16	6.593584E-17
7.240000E+03	6.232037E-16	6.509762E-17
7.250000E+03	6.205853E-16	6.425438E-17
7.260000E+03	6.180350E-16	6.340908E-17
7.270000E+03	6.155409E-16	6.256208E-17
7.280000E+03	6.131082E-16	6.171559E-17
7.290000E+03	6.107507E-16	6.087271E-17
7.300000E+03	6.084567E-16	6.003406E-17
7.310000E+03	6.062315E-16	5.920202E-17
7.320000E+03	6.040885E-16	5.837985E-17
7.330000E+03	6.020248E-16	5.756921E-17
7.340000E+03	6.000369E-16	5.677188E-17
7.350000E+03	5.981303E-16	5.599049E-17
7.360000E+03	5.963100E-16	5.522775E-17
7.370000E+03	5.945810E-16	5.448638E-17
7.380000E+03	5.929401E-16	5.376845E-17
7.390000E+03	5.914005E-16	5.307753E-17
7.400000E+03	5.899507E-16	5.241504E-17
7.410000E+03	5.886037E-16	5.178464E-17
7.420000E+03	5.873640E-16	5.118922E-17
7.430000E+03	5.862363E-16	5.063170E-17
7.440000E+03	5.852167E-16	5.011426E-17
7.450000E+03	5.843178E-16	4.964042E-17
7.460000E+03	5.835435E-16	4.921294E-17
7.470000E+03	5.828897E-16	4.883379E-17
7.480000E+03	5.823680E-16	4.850616E-17
7.490000E+03	5.819821E-16	4.823242E-17
7.500000E+03	5.817349E-16	4.801471E-17
7.510000E+03	5.816377E-16	4.785564E-17
7.520000E+03	5.816848E-16	4.775618E-17
7.530000E+03	5.818785E-16	4.771772E-17
7.540000E+03	5.822369E-16	4.774261E-17
7.550000E+03	5.827533E-16	4.783088E-17
7.560000E+03	5.834288E-16	4.798284E-17
7.570000E+03	5.842719E-16	4.819912E-17
7.580000E+03	5.852747E-16	4.847863E-17
7.590000E+03	5.864449E-16	4.882132E-17
7.600000E+03	5.877905E-16	4.922687E-17
7.610000E+03	5.893021E-16	4.969334E-17
7.620000E+03	5.909872E-16	5.021991E-17
7.630000E+03	5.928446E-16	5.080494E-17
7.640000E+03	5.948642E-16	5.144584E-17
7.650000E+03	5.970615E-16	5.214213E-17
7.660000E+03	5.994178E-16	5.289024E-17
7.670000E+03	6.019483E-16	5.368955E-17
7.680000E+03	6.046512E-16	5.453789E-17
7.690000E+03	6.075161E-16	5.543227E-17
7.700000E+03	6.105407E-16	5.637046E-17
7.710000E+03	6.137406E-16	5.735184E-17
7.720000E+03	6.170873E-16	5.837176E-17
7.730000E+03	6.206053E-16	5.943051E-17
7.740000E+03	6.242745E-16	6.052424E-17
7.750000E+03	6.281019E-16	6.165170E-17
7.760000E+03	6.320853E-16	6.281079E-17
