#wls	flux	fluxerr
1.600000E+03	2.660964E-17	1.757310E-17
1.640000E+03	2.667427E-17	1.753056E-17
1.680000E+03	2.674718E-17	1.749100E-17
1.720000E+03	2.683795E-17	1.746054E-17
1.760000E+03	2.694199E-17	1.743597E-17
1.800000E+03	2.705943E-17	1.741719E-17
1.840000E+03	2.719514E-17	1.740713E-17
1.880000E+03	2.734455E-17	1.740264E-17
1.920000E+03	2.751727E-17	1.740957E-17
1.960000E+03	2.770875E-17	1.742474E-17
2.000000E+03	2.791918E-17	1.744799E-17
2.040000E+03	2.815347E-17	1.748205E-17
2.080000E+03	2.840712E-17	1.752380E-17
2.120000E+03	2.868981E-17	1.757882E-17
2.160000E+03	2.899705E-17	1.764394E-17
2.200000E+03	2.933384E-17	1.772174E-17
2.240000E+03	2.970047E-17	1.781190E-17
2.280000E+03	3.009723E-17	1.791407E-17
2.320000E+03	3.053395E-17	1.803351E-17
2.360000E+03	3.100147E-17	1.816415E-17
2.400000E+03	3.150968E-17	1.831114E-17
2.440000E+03	3.205897E-17	1.847392E-17
2.480000E+03	3.265454E-17	1.865469E-17
2.520000E+03	3.330165E-17	1.885550E-17
2.560000E+03	3.399596E-17	1.907291E-17
2.600000E+03	3.474276E-17	1.930886E-17
2.640000E+03	3.555223E-17	1.956783E-17
2.680000E+03	3.642976E-17	1.985145E-17
2.720000E+03	3.737108E-17	2.015595E-17
2.760000E+03	3.838157E-17	2.048276E-17
2.800000E+03	3.947648E-17	2.083834E-17
2.840000E+03	4.065641E-17	2.122107E-17
2.880000E+03	4.192684E-17	2.163179E-17
2.920000E+03	4.329323E-17	2.207109E-17
2.960000E+03	4.477095E-17	2.254434E-17
3.000000E+03	4.636047E-17	2.304903E-17
3.010000E+03	4.677472E-17	2.317948E-17
3.020000E+03	4.719974E-17	2.331355E-17
3.030000E+03	4.763052E-17	2.344869E-17
3.040000E+03	4.806706E-17	2.358487E-17
3.050000E+03	4.851940E-17	2.372696E-17
3.060000E+03	4.897249E-17	2.386752E-17
3.070000E+03	4.943635E-17	2.401142E-17
3.080000E+03	4.991101E-17	2.415859E-17
3.090000E+03	5.039143E-17	2.430654E-17
3.100000E+03	5.088768E-17	2.446007E-17
3.110000E+03	5.138464E-17	2.461183E-17
3.120000E+03	5.189744E-17	2.476903E-17
3.130000E+03	5.241599E-17	2.492677E-17
3.140000E+03	5.294532E-17	2.508740E-17
3.150000E+03	5.348036E-17	2.524844E-17
3.160000E+03	5.403125E-17	2.541462E-17
3.170000E+03	5.459292E-17	2.558347E-17
3.180000E+03	5.516027E-17	2.575252E-17
3.190000E+03	5.573837E-17	2.592409E-17
3.200000E+03	5.633230E-17	2.610046E-17
3.210000E+03	5.693186E-17	2.627681E-17
3.220000E+03	5.754724E-17	2.645779E-17
3.230000E+03	5.816821E-17	2.663859E-17
3.240000E+03	5.880495E-17	2.682383E-17
3.250000E+03	5.945236E-17	2.701106E-17
3.260000E+03	6.011039E-17	2.720019E-17
3.270000E+03	6.078416E-17	2.739345E-17
3.280000E+03	6.146850E-17	2.758841E-17
3.290000E+03	6.216340E-17	2.778497E-17
3.300000E+03	6.287395E-17	2.798533E-17
3.310000E+03	6.359498E-17	2.818709E-17
3.320000E+03	6.432645E-17	2.839013E-17
3.330000E+03	6.507862E-17	2.859889E-17
3.340000E+03	6.584115E-17	2.880870E-17
3.350000E+03	6.661400E-17	2.901946E-17
3.360000E+03	6.740226E-17	2.923328E-17
3.370000E+03	6.820589E-17	2.945004E-17
3.380000E+03	6.902485E-17	2.966960E-17
3.390000E+03	6.985906E-17	2.989181E-17
3.400000E+03	7.070848E-17	3.011653E-17
3.410000E+03	7.156787E-17	3.034142E-17
3.420000E+03	7.244750E-17	3.057073E-17
3.430000E+03	7.334213E-17	3.080210E-17
3.440000E+03	7.425167E-17	3.103538E-17
3.450000E+03	7.517606E-17	3.127041E-17
3.460000E+03	7.611519E-17	3.150704E-17
3.470000E+03	7.707417E-17	3.174724E-17
3.480000E+03	7.804772E-17	3.198869E-17
3.490000E+03	7.904092E-17	3.223334E-17
3.500000E+03	8.004847E-17	3.247889E-17
3.510000E+03	8.107027E-17	3.272515E-17
3.520000E+03	8.211658E-17	3.297614E-17
3.530000E+03	8.317690E-17	3.322746E-17
3.540000E+03	8.425108E-17	3.347893E-17
3.550000E+03	8.534939E-17	3.373448E-17
3.560000E+03	8.646129E-17	3.398976E-17
3.570000E+03	8.759703E-17	3.424867E-17
3.580000E+03	8.874605E-17	3.450690E-17
3.590000E+03	8.991859E-17	3.476829E-17
3.600000E+03	9.110407E-17	3.502855E-17
3.610000E+03	9.231272E-17	3.529149E-17
3.620000E+03	9.353915E-17	3.555484E-17
3.630000E+03	9.478837E-17	3.582035E-17
3.640000E+03	9.605496E-17	3.608578E-17
3.650000E+03	9.733871E-17	3.635089E-17
3.660000E+03	9.864460E-17	3.661735E-17
3.670000E+03	9.997240E-17	3.688490E-17
3.680000E+03	1.013167E-16	3.715133E-17
3.690000E+03	1.026824E-16	3.741828E-17
3.700000E+03	1.040692E-16	3.768547E-17
3.710000E+03	1.054717E-16	3.795071E-17
3.720000E+03	1.069000E-16	3.821748E-17
3.730000E+03	1.083434E-16	3.848173E-17
3.740000E+03	1.098120E-16	3.874687E-17
3.750000E+03	1.113003E-16	3.901073E-17
3.760000E+03	1.128079E-16	3.927300E-17
3.770000E+03	1.143346E-16	3.953336E-17
3.780000E+03	1.158799E-16	3.979152E-17
3.790000E+03	1.174486E-16	4.004890E-17
3.800000E+03	1.190353E-16	4.030341E-17
3.810000E+03	1.206396E-16	4.055473E-17
3.820000E+03	1.222661E-16	4.080425E-17
3.830000E+03	1.239145E-16	4.105162E-17
3.840000E+03	1.255792E-16	4.129476E-17
3.850000E+03	1.272649E-16	4.153504E-17
3.860000E+03	1.289661E-16	4.177042E-17
3.870000E+03	1.306873E-16	4.200223E-17
3.880000E+03	1.324281E-16	4.223009E-17
3.890000E+03	1.341829E-16	4.245202E-17
3.900000E+03	1.359563E-16	4.266928E-17
3.910000E+03	1.377477E-16	4.288152E-17
3.920000E+03	1.395568E-16	4.308835E-17
3.930000E+03	1.413828E-16	4.328941E-17
3.940000E+03	1.432201E-16	4.348278E-17
3.950000E+03	1.450734E-16	4.366966E-17
3.960000E+03	1.469419E-16	4.384970E-17
3.970000E+03	1.488251E-16	4.402251E-17
3.980000E+03	1.507225E-16	4.418775E-17
3.990000E+03	1.526282E-16	4.434357E-17
4.000000E+03	1.545468E-16	4.449111E-17
4.010000E+03	1.564725E-16	4.462859E-17
4.020000E+03	1.584099E-16	4.475711E-17
4.030000E+03	1.603581E-16	4.487634E-17
4.040000E+03	1.623116E-16	4.498452E-17
4.050000E+03	1.642747E-16	4.508275E-17
4.060000E+03	1.662417E-16	4.516933E-17
4.070000E+03	1.682120E-16	4.524398E-17
4.080000E+03	1.701849E-16	4.530643E-17
4.090000E+03	1.721597E-16	4.535640E-17
4.100000E+03	1.741357E-16	4.539363E-17
4.110000E+03	1.761124E-16	4.541786E-17
4.120000E+03	1.780889E-16	4.542885E-17
4.130000E+03	1.800598E-16	4.542513E-17
4.140000E+03	1.820243E-16	4.540650E-17
4.150000E+03	1.839819E-16	4.537279E-17
4.160000E+03	1.859367E-16	4.532504E-17
4.170000E+03	1.878785E-16	4.526069E-17
4.180000E+03	1.898115E-16	4.518081E-17
4.190000E+03	1.917302E-16	4.508412E-17
4.200000E+03	1.936341E-16	4.497057E-17
4.210000E+03	1.955274E-16	4.484119E-17
4.220000E+03	1.974000E-16	4.469371E-17
4.230000E+03	1.992515E-16	4.452815E-17
4.240000E+03	2.010814E-16	4.434455E-17
4.250000E+03	2.028940E-16	4.414397E-17
4.260000E+03	2.046794E-16	4.392439E-17
4.270000E+03	2.064373E-16	4.368592E-17
4.280000E+03	2.081674E-16	4.342871E-17
4.290000E+03	2.098695E-16	4.315289E-17
4.300000E+03	2.115432E-16	4.285862E-17
4.310000E+03	2.131838E-16	4.254515E-17
4.320000E+03	2.147866E-16	4.221181E-17
4.330000E+03	2.163561E-16	4.185979E-17
4.340000E+03	2.178877E-16	4.148849E-17
4.350000E+03	2.193815E-16	4.109823E-17
4.360000E+03	2.208376E-16	4.068935E-17
4.370000E+03	2.222472E-16	4.026058E-17
4.380000E+03	2.236196E-16	3.981398E-17
4.390000E+03	2.249461E-16	3.934837E-17
4.400000E+03	2.262271E-16	3.886425E-17
4.410000E+03	2.274677E-16	3.836286E-17
4.420000E+03	2.286594E-16	3.784322E-17
4.430000E+03	2.298031E-16	3.730590E-17
4.440000E+03	2.309038E-16	3.675220E-17
4.450000E+03	2.319536E-16	3.618131E-17
4.460000E+03	2.329536E-16	3.559389E-17
4.470000E+03	2.339090E-16	3.499126E-17
4.480000E+03	2.348166E-16	3.437342E-17
4.490000E+03	2.356776E-16	3.374107E-17
4.500000E+03	2.364892E-16	3.309432E-17
4.510000E+03	2.372527E-16	3.243392E-17
4.520000E+03	2.379737E-16	3.176121E-17
4.530000E+03	2.386457E-16	3.107584E-17
4.540000E+03	2.392743E-16	3.037917E-17
4.550000E+03	2.398614E-16	2.967201E-17
4.560000E+03	2.404008E-16	2.895420E-17
4.570000E+03	2.409025E-16	2.822760E-17
4.580000E+03	2.413647E-16	2.749263E-17
4.590000E+03	2.417895E-16	2.675020E-17
4.600000E+03	2.421792E-16	2.600125E-17
4.610000E+03	2.425363E-16	2.524675E-17
4.620000E+03	2.428594E-16	2.448734E-17
4.630000E+03	2.431510E-16	2.372410E-17
4.640000E+03	2.434179E-16	2.295855E-17
4.650000E+03	2.436629E-16	2.219187E-17
4.660000E+03	2.438851E-16	2.142497E-17
4.670000E+03	2.440875E-16	2.065924E-17
4.680000E+03	2.442771E-16	1.989648E-17
4.690000E+03	2.444534E-16	1.913801E-17
4.700000E+03	2.446236E-16	1.838593E-17
4.710000E+03	2.447836E-16	1.764167E-17
4.720000E+03	2.449482E-16	1.690834E-17
4.730000E+03	2.451100E-16	1.618770E-17
4.740000E+03	2.452839E-16	1.548344E-17
4.750000E+03	2.454663E-16	1.479842E-17
4.760000E+03	2.456613E-16	1.413655E-17
4.770000E+03	2.458767E-16	1.350250E-17
4.780000E+03	2.461202E-16	1.290158E-17
4.790000E+03	2.463887E-16	1.233922E-17
4.800000E+03	2.466902E-16	1.182219E-17
4.810000E+03	2.470288E-16	1.135768E-17
4.820000E+03	2.474124E-16	1.095358E-17
4.830000E+03	2.478415E-16	1.061760E-17
4.840000E+03	2.483200E-16	1.035733E-17
4.850000E+03	2.488584E-16	1.017973E-17
4.860000E+03	2.494525E-16	1.008954E-17
4.870000E+03	2.501117E-16	1.008983E-17
4.880000E+03	2.508296E-16	1.018043E-17
4.890000E+03	2.516137E-16	1.035906E-17
4.900000E+03	2.524593E-16	1.062068E-17
4.910000E+03	2.533686E-16	1.095886E-17
4.920000E+03	2.543393E-16	1.136602E-17
4.930000E+03	2.553728E-16	1.183444E-17
4.940000E+03	2.564593E-16	1.235601E-17
4.950000E+03	2.575996E-16	1.292361E-17
4.960000E+03	2.587947E-16	1.353081E-17
4.970000E+03	2.600418E-16	1.417174E-17
4.980000E+03	2.613381E-16	1.484124E-17
4.990000E+03	2.626808E-16	1.553484E-17
5.000000E+03	2.640674E-16	1.624865E-17
5.010000E+03	2.654951E-16	1.697934E-17
5.020000E+03	2.669614E-16	1.772397E-17
5.030000E+03	2.684710E-16	1.848055E-17
5.040000E+03	2.700105E-16	1.924611E-17
5.050000E+03	2.715885E-16	2.001951E-17
5.060000E+03	2.731990E-16	2.079877E-17
5.070000E+03	2.748361E-16	2.158209E-17
5.080000E+03	2.765049E-16	2.236867E-17
5.090000E+03	2.781996E-16	2.315697E-17
5.100000E+03	2.799220E-16	2.394617E-17
5.110000E+03	2.816623E-16	2.473456E-17
5.120000E+03	2.834263E-16	2.552180E-17
5.130000E+03	2.852120E-16	2.630700E-17
5.140000E+03	2.870138E-16	2.708891E-17
5.150000E+03	2.888338E-16	2.786707E-17
5.160000E+03	2.906663E-16	2.864031E-17
5.170000E+03	2.925097E-16	2.940785E-17
5.180000E+03	2.943701E-16	3.016972E-17
5.190000E+03	2.962382E-16	3.092442E-17
5.200000E+03	2.981124E-16	3.167123E-17
5.210000E+03	2.999952E-16	3.240988E-17
5.220000E+03	3.018811E-16	3.313925E-17
5.230000E+03	3.037727E-16	3.385914E-17
5.240000E+03	3.056648E-16	3.456843E-17
5.250000E+03	3.075599E-16	3.526695E-17
5.260000E+03	3.094529E-16	3.595360E-17
5.270000E+03	3.113424E-16	3.662775E-17
5.280000E+03	3.132272E-16	3.728879E-17
5.290000E+03	3.151062E-16	3.793611E-17
5.300000E+03	3.169782E-16	3.856912E-17
5.310000E+03	3.188421E-16	3.918722E-17
5.320000E+03	3.206970E-16	3.978984E-17
5.330000E+03	3.225375E-16	4.037589E-17
5.340000E+03	3.243668E-16	4.094535E-17
5.350000E+03	3.261841E-16	4.149766E-17
5.360000E+03	3.279841E-16	4.203176E-17
5.370000E+03	3.297659E-16	4.254713E-17
5.380000E+03	3.315286E-16	4.304323E-17
5.390000E+03	3.332757E-16	4.352015E-17
5.400000E+03	3.349977E-16	4.397628E-17
5.410000E+03	3.367025E-16	4.441228E-17
5.420000E+03	3.383806E-16	4.482655E-17
5.430000E+03	3.400357E-16	4.521923E-17
5.440000E+03	3.416716E-16	4.559051E-17
5.450000E+03	3.432787E-16	4.593881E-17
5.460000E+03	3.448562E-16	4.626373E-17
5.470000E+03	3.464127E-16	4.656611E-17
5.480000E+03	3.479386E-16	4.684442E-17
5.490000E+03	3.494378E-16	4.709892E-17
5.500000E+03	3.509098E-16	4.732933E-17
5.510000E+03	3.523542E-16	4.753536E-17
5.520000E+03	3.537705E-16	4.771675E-17
5.530000E+03	3.551585E-16	4.787327E-17
5.540000E+03	3.565176E-16	4.800471E-17
5.550000E+03	3.578477E-16	4.811086E-17
5.560000E+03	3.591483E-16	4.819155E-17
5.570000E+03	3.604240E-16	4.824727E-17
5.580000E+03	3.616745E-16	4.827788E-17
5.590000E+03	3.628950E-16	4.828265E-17
5.600000E+03	3.640901E-16	4.826212E-17
5.610000E+03	3.652549E-16	4.821559E-17
5.620000E+03	3.663990E-16	4.814429E-17
5.630000E+03	3.675174E-16	4.804756E-17
5.640000E+03	3.686152E-16	4.792603E-17
5.650000E+03	3.696875E-16	4.777908E-17
5.660000E+03	3.707394E-16	4.760739E-17
5.670000E+03	3.717661E-16	4.741038E-17
5.680000E+03	3.727775E-16	4.718937E-17
5.690000E+03	3.737692E-16	4.694384E-17
5.700000E+03	3.747414E-16	4.667390E-17
5.710000E+03	3.756944E-16	4.637969E-17
5.720000E+03	3.766336E-16	4.606196E-17
5.730000E+03	3.775595E-16	4.572089E-17
5.740000E+03	3.784677E-16	4.535606E-17
5.750000E+03	3.793636E-16	4.496828E-17
5.760000E+03	3.802479E-16	4.455776E-17
5.770000E+03	3.811263E-16	4.412533E-17
5.780000E+03	3.819896E-16	4.367009E-17
5.790000E+03	3.828487E-16	4.319347E-17
5.800000E+03	3.836993E-16	4.269519E-17
5.810000E+03	3.845425E-16	4.217557E-17
5.820000E+03	3.853843E-16	4.163550E-17
5.830000E+03	3.862209E-16	4.107478E-17
5.840000E+03	3.870585E-16	4.049435E-17
5.850000E+03	3.878985E-16	3.989457E-17
5.860000E+03	3.887372E-16	3.927535E-17
5.870000E+03	3.895761E-16	3.863714E-17
5.880000E+03	3.904219E-16	3.798093E-17
5.890000E+03	3.912765E-16	3.730721E-17
5.900000E+03	3.921364E-16	3.661601E-17
5.910000E+03	3.930090E-16	3.590840E-17
5.920000E+03	3.938912E-16	3.518448E-17
5.930000E+03	3.947906E-16	3.444537E-17
5.940000E+03	3.957044E-16	3.369129E-17
5.950000E+03	3.966352E-16	3.292299E-17
5.960000E+03	3.975913E-16	3.214171E-17
5.970000E+03	3.985757E-16	3.134827E-17
5.980000E+03	3.995812E-16	3.054278E-17
5.990000E+03	4.006218E-16	2.972709E-17
6.000000E+03	4.016908E-16	2.890151E-17
6.010000E+03	4.028029E-16	2.806807E-17
6.020000E+03	4.039571E-16	2.722775E-17
6.030000E+03	4.051582E-16	2.638207E-17
6.040000E+03	4.064056E-16	2.553242E-17
6.050000E+03	4.077158E-16	2.468145E-17
6.060000E+03	4.090833E-16	2.383071E-17
6.070000E+03	4.105145E-16	2.298277E-17
6.080000E+03	4.120212E-16	2.214091E-17
6.090000E+03	4.136106E-16	2.130852E-17
6.100000E+03	4.152843E-16	2.048929E-17
6.110000E+03	4.170560E-16	1.968813E-17
6.120000E+03	4.189225E-16	1.890988E-17
6.130000E+03	4.209039E-16	1.816135E-17
6.140000E+03	4.230094E-16	1.744978E-17
6.150000E+03	4.252369E-16	1.678299E-17
6.160000E+03	4.276018E-16	1.617062E-17
6.170000E+03	4.301197E-16	1.562324E-17
6.180000E+03	4.327886E-16	1.515152E-17
6.190000E+03	4.356233E-16	1.476702E-17
6.200000E+03	4.386319E-16	1.448067E-17
6.210000E+03	4.418207E-16	1.430197E-17
6.220000E+03	4.451932E-16	1.423804E-17
6.230000E+03	4.487501E-16	1.429275E-17
6.240000E+03	4.524884E-16	1.446637E-17
6.250000E+03	4.563961E-16	1.475553E-17
6.260000E+03	4.604714E-16	1.515445E-17
6.270000E+03	4.647046E-16	1.565517E-17
6.280000E+03	4.690852E-16	1.624863E-17
6.290000E+03	4.736014E-16	1.692537E-17
6.300000E+03	4.782344E-16	1.767587E-17
6.310000E+03	4.829850E-16	1.849193E-17
6.320000E+03	4.878268E-16	1.936508E-17
6.330000E+03	4.927534E-16	2.028849E-17
6.340000E+03	4.977588E-16	2.125620E-17
6.350000E+03	5.028155E-16	2.226219E-17
6.360000E+03	5.079173E-16	2.330199E-17
6.370000E+03	5.130581E-16	2.437184E-17
6.380000E+03	5.182103E-16	2.546745E-17
6.390000E+03	5.233754E-16	2.658638E-17
6.400000E+03	5.285330E-16	2.772550E-17
6.410000E+03	5.336704E-16	2.888228E-17
6.420000E+03	5.387826E-16	3.005487E-17
6.430000E+03	5.438500E-16	3.124077E-17
6.440000E+03	5.488683E-16	3.243842E-17
6.450000E+03	5.538184E-16	3.364547E-17
6.460000E+03	5.586972E-16	3.486055E-17
6.470000E+03	5.634945E-16	3.608185E-17
6.480000E+03	5.682003E-16	3.730758E-17
6.490000E+03	5.728052E-16	3.853596E-17
6.500000E+03	5.773002E-16	3.976520E-17
6.510000E+03	5.816767E-16	4.099351E-17
6.520000E+03	5.859267E-16	4.221907E-17
6.530000E+03	5.900511E-16	4.344070E-17
6.540000E+03	5.940429E-16	4.465662E-17
6.550000E+03	5.978868E-16	4.586438E-17
6.560000E+03	6.015854E-16	4.706280E-17
6.570000E+03	6.051242E-16	4.824935E-17
6.580000E+03	6.085158E-16	4.942364E-17
6.590000E+03	6.117466E-16	5.058313E-17
6.600000E+03	6.148124E-16	5.172602E-17
6.610000E+03	6.177093E-16	5.285049E-17
6.620000E+03	6.204435E-16	5.395556E-17
6.630000E+03	6.230120E-16	5.503951E-17
6.640000E+03	6.254033E-16	5.609979E-17
6.650000E+03	6.276246E-16	5.713553E-17
6.660000E+03	6.296746E-16	5.814512E-17
6.670000E+03	6.315522E-16	5.912694E-17
6.680000E+03	6.332662E-16	6.008038E-17
6.690000E+03	6.347971E-16	6.100212E-17
6.700000E+03	6.361741E-16	6.189350E-17
6.710000E+03	6.373685E-16	6.275037E-17
6.720000E+03	6.384102E-16	6.357428E-17
6.730000E+03	6.392808E-16	6.436210E-17
6.740000E+03	6.399915E-16	6.511364E-17
6.750000E+03	6.405442E-16	6.582786E-17
6.760000E+03	6.409406E-16	6.650374E-17
6.770000E+03	6.411831E-16	6.714040E-17
6.780000E+03	6.412741E-16	6.773699E-17
6.790000E+03	6.412264E-16	6.829383E-17
6.800000E+03	6.410328E-16	6.880920E-17
6.810000E+03	6.407066E-16	6.928360E-17
6.820000E+03	6.402408E-16	6.971545E-17
6.830000E+03	6.396491E-16	7.010543E-17
6.840000E+03	6.389250E-16	7.045210E-17
6.850000E+03	6.380822E-16	7.075631E-17
6.860000E+03	6.371247E-16	7.101789E-17
6.870000E+03	6.360462E-16	7.123563E-17
6.880000E+03	6.348610E-16	7.141061E-17
6.890000E+03	6.335833E-16	7.154404E-17
6.900000E+03	6.321970E-16	7.163377E-17
6.910000E+03	6.307166E-16	7.168113E-17
6.920000E+03	6.291364E-16	7.168522E-17
6.930000E+03	6.274808E-16	7.164867E-17
6.940000E+03	6.257442E-16	7.157072E-17
6.950000E+03	6.239310E-16	7.145182E-17
6.960000E+03	6.220358E-16	7.129131E-17
6.970000E+03	6.200829E-16	7.109206E-17
6.980000E+03	6.180570E-16	7.085239E-17
6.990000E+03	6.159725E-16	7.057411E-17
7.000000E+03	6.138340E-16	7.025792E-17
7.010000E+03	6.116459E-16	6.990460E-17
7.020000E+03	6.094029E-16	6.951381E-17
7.030000E+03	6.071195E-16	6.908753E-17
7.040000E+03	6.048000E-16	6.862664E-17
7.050000E+03	6.024490E-16	6.813208E-17
7.060000E+03	6.000612E-16	6.760369E-17
7.070000E+03	5.976412E-16	6.704248E-17
7.080000E+03	5.952030E-16	6.645060E-17
7.090000E+03	5.927416E-16	6.582802E-17
7.100000E+03	5.902615E-16	6.517586E-17
7.110000E+03	5.877766E-16	6.449632E-17
7.120000E+03	5.852723E-16	6.378845E-17
7.130000E+03	5.827723E-16	6.305557E-17
7.140000E+03	5.802618E-16	6.229683E-17
7.150000E+03	5.777550E-16	6.151455E-17
7.160000E+03	5.752562E-16	6.071002E-17
7.170000E+03	5.727607E-16	5.988358E-17
7.180000E+03	5.702823E-16	5.903761E-17
7.190000E+03	5.678161E-16	5.817254E-17
7.200000E+03	5.653668E-16	5.728985E-17
7.210000E+03	5.629390E-16	5.639103E-17
7.220000E+03	5.605373E-16	5.547765E-17
7.230000E+03	5.581663E-16	5.455129E-17
7.240000E+03	5.558308E-16	5.361360E-17
7.250000E+03	5.535263E-16	5.266542E-17
7.260000E+03	5.512576E-16	5.170853E-17
7.270000E+03	5.490386E-16	5.074566E-17
7.280000E+03	5.468653E-16	4.977786E-17
7.290000E+03	5.447424E-16	4.880717E-17
7.300000E+03	5.426749E-16	4.783570E-17
7.310000E+03	5.406680E-16	4.686565E-17
7.320000E+03	5.387266E-16	4.589934E-17
7.330000E+03	5.368471E-16	4.493848E-17
7.340000E+03	5.350346E-16	4.398569E-17
7.350000E+03	5.333034E-16	4.304444E-17
7.360000E+03	5.316499E-16	4.211693E-17
7.370000E+03	5.300882E-16	4.120693E-17
7.380000E+03	5.286063E-16	4.031635E-17
7.390000E+03	5.272272E-16	3.945003E-17
7.400000E+03	5.259389E-16	3.861031E-17
7.410000E+03	5.247644E-16	3.780241E-17
7.420000E+03	5.236919E-16	3.702913E-17
7.430000E+03	5.227357E-16	3.629544E-17
7.440000E+03	5.218927E-16	3.560521E-17
7.450000E+03	5.211860E-16	3.496430E-17
7.460000E+03	5.206036E-16	3.437628E-17
7.470000E+03	5.201511E-16	3.384599E-17
7.480000E+03	5.198511E-16	3.337937E-17
7.490000E+03	5.196916E-16	3.297996E-17
7.500000E+03	5.196773E-16	3.265226E-17
7.510000E+03	5.198218E-16	3.240092E-17
7.520000E+03	5.201292E-16	3.222959E-17
7.530000E+03	5.205943E-16	3.214072E-17
7.540000E+03	5.212290E-16	3.213712E-17
7.550000E+03	5.220266E-16	3.221965E-17
7.560000E+03	5.229972E-16	3.238932E-17
7.570000E+03	5.241410E-16	3.264568E-17
7.580000E+03	5.254577E-16	3.298744E-17
7.590000E+03	5.269372E-16	3.341195E-17
7.600000E+03	5.285867E-16	3.391705E-17
7.610000E+03	5.303950E-16	3.449895E-17
7.620000E+03	5.323776E-16	3.515519E-17
7.630000E+03	5.345137E-16	3.588075E-17
7.640000E+03	5.368094E-16	3.667219E-17
7.650000E+03	5.392617E-16	3.752547E-17
7.660000E+03	5.418674E-16	3.843652E-17
7.670000E+03	5.446232E-16	3.940137E-17
7.680000E+03	5.475166E-16	4.041547E-17
7.690000E+03	5.505630E-16	4.147646E-17
7.700000E+03	5.537403E-16	4.257937E-17
7.710000E+03	5.570642E-16	4.372225E-17
7.720000E+03	5.605124E-16	4.490041E-17
7.730000E+03	5.640911E-16	4.611152E-17
7.740000E+03	5.677974E-16	4.735268E-17
7.750000E+03	5.716279E-16	4.862117E-17
7.760000E+03	5.755796E-16	4.991439E-17
