#wls	flux	fluxerr
1.600000E+03	2.103828E-17	1.406896E-17
1.640000E+03	2.115409E-17	1.408334E-17
1.680000E+03	2.128152E-17	1.410313E-17
1.720000E+03	2.141708E-17	1.412585E-17
1.760000E+03	2.156837E-17	1.415638E-17
1.800000E+03	2.172824E-17	1.418980E-17
1.840000E+03	2.190434E-17	1.423095E-17
1.880000E+03	2.209323E-17	1.427737E-17
1.920000E+03	2.229892E-17	1.433141E-17
1.960000E+03	2.252173E-17	1.439302E-17
2.000000E+03	2.275824E-17	1.445975E-17
2.040000E+03	2.301255E-17	1.453393E-17
2.080000E+03	2.328880E-17	1.461788E-17
2.120000E+03	2.358364E-17	1.470910E-17
2.160000E+03	2.389746E-17	1.480754E-17
2.200000E+03	2.423455E-17	1.491543E-17
2.240000E+03	2.459925E-17	1.503502E-17
2.280000E+03	2.498827E-17	1.516380E-17
2.320000E+03	2.540215E-17	1.530163E-17
2.360000E+03	2.584539E-17	1.545068E-17
2.400000E+03	2.632258E-17	1.561307E-17
2.440000E+03	2.683051E-17	1.578626E-17
2.480000E+03	2.736989E-17	1.596998E-17
2.520000E+03	2.794949E-17	1.616862E-17
2.560000E+03	2.857021E-17	1.638182E-17
2.600000E+03	2.923301E-17	1.660923E-17
2.640000E+03	2.993886E-17	1.685043E-17
2.680000E+03	3.068877E-17	1.710497E-17
2.720000E+03	3.149622E-17	1.737920E-17
2.760000E+03	3.235417E-17	1.766794E-17
2.800000E+03	3.327222E-17	1.797509E-17
2.840000E+03	3.424751E-17	1.829762E-17
2.880000E+03	3.529419E-17	1.864148E-17
2.920000E+03	3.640955E-17	1.900343E-17
2.960000E+03	3.759950E-17	1.938465E-17
3.000000E+03	3.886566E-17	1.978391E-17
3.010000E+03	3.919815E-17	1.988835E-17
3.020000E+03	3.953224E-17	1.999212E-17
3.030000E+03	3.987236E-17	2.009746E-17
3.040000E+03	4.022297E-17	2.020655E-17
3.050000E+03	4.057524E-17	2.031492E-17
3.060000E+03	4.093363E-17	2.042476E-17
3.070000E+03	4.129371E-17	2.053383E-17
3.080000E+03	4.166444E-17	2.064655E-17
3.090000E+03	4.204138E-17	2.076066E-17
3.100000E+03	4.242457E-17	2.087613E-17
3.110000E+03	4.280954E-17	2.099073E-17
3.120000E+03	4.320532E-17	2.110884E-17
3.130000E+03	4.360744E-17	2.122822E-17
3.140000E+03	4.401594E-17	2.134884E-17
3.150000E+03	4.442629E-17	2.146846E-17
3.160000E+03	4.484762E-17	2.159145E-17
3.170000E+03	4.527542E-17	2.171558E-17
3.180000E+03	4.570972E-17	2.184081E-17
3.190000E+03	4.615054E-17	2.196709E-17
3.200000E+03	4.659792E-17	2.209440E-17
3.210000E+03	4.705188E-17	2.222270E-17
3.220000E+03	4.751708E-17	2.235411E-17
3.230000E+03	4.798431E-17	2.248425E-17
3.240000E+03	4.846286E-17	2.261742E-17
3.250000E+03	4.894812E-17	2.275141E-17
3.260000E+03	4.944013E-17	2.288616E-17
3.270000E+03	4.993891E-17	2.302164E-17
3.280000E+03	5.044917E-17	2.315995E-17
3.290000E+03	5.096628E-17	2.329889E-17
3.300000E+03	5.149026E-17	2.343841E-17
3.310000E+03	5.202114E-17	2.357846E-17
3.320000E+03	5.256366E-17	2.372112E-17
3.330000E+03	5.311314E-17	2.386420E-17
3.340000E+03	5.366961E-17	2.400765E-17
3.350000E+03	5.423784E-17	2.415353E-17
3.360000E+03	5.481313E-17	2.429967E-17
3.370000E+03	5.539548E-17	2.444600E-17
3.380000E+03	5.598971E-17	2.459458E-17
3.390000E+03	5.659107E-17	2.474324E-17
3.400000E+03	5.720440E-17	2.489400E-17
3.410000E+03	5.782491E-17	2.504470E-17
3.420000E+03	5.845746E-17	2.519738E-17
3.430000E+03	5.909725E-17	2.534986E-17
3.440000E+03	5.974428E-17	2.550208E-17
3.450000E+03	6.040345E-17	2.565605E-17
3.460000E+03	6.107481E-17	2.581169E-17
3.470000E+03	6.175349E-17	2.596685E-17
3.480000E+03	6.244441E-17	2.612351E-17
3.490000E+03	6.314270E-17	2.627954E-17
3.500000E+03	6.385330E-17	2.643691E-17
3.510000E+03	6.457130E-17	2.659348E-17
3.520000E+03	6.530165E-17	2.675123E-17
3.530000E+03	6.604440E-17	2.691004E-17
3.540000E+03	6.679460E-17	2.706781E-17
3.550000E+03	6.755724E-17	2.722646E-17
3.560000E+03	6.832735E-17	2.738390E-17
3.570000E+03	6.911495E-17	2.754403E-17
3.580000E+03	6.991006E-17	2.770275E-17
3.590000E+03	7.071267E-17	2.785998E-17
3.600000E+03	7.153286E-17	2.801958E-17
3.610000E+03	7.236058E-17	2.817747E-17
3.620000E+03	7.320088E-17	2.833555E-17
3.630000E+03	7.405378E-17	2.849368E-17
3.640000E+03	7.491421E-17	2.864981E-17
3.650000E+03	7.578726E-17	2.880579E-17
3.660000E+03	7.667293E-17	2.896150E-17
3.670000E+03	7.757123E-17	2.911681E-17
3.680000E+03	7.848219E-17	2.927160E-17
3.690000E+03	7.940066E-17	2.942385E-17
3.700000E+03	8.033176E-17	2.957535E-17
3.710000E+03	8.127551E-17	2.972597E-17
3.720000E+03	8.223189E-17	2.987559E-17
3.730000E+03	8.320092E-17	3.002407E-17
3.740000E+03	8.418257E-17	3.017128E-17
3.750000E+03	8.517166E-17	3.031523E-17
3.760000E+03	8.617333E-17	3.045766E-17
3.770000E+03	8.719282E-17	3.060027E-17
3.780000E+03	8.821443E-17	3.073741E-17
3.790000E+03	8.925382E-17	3.087444E-17
3.800000E+03	9.030575E-17	3.100939E-17
3.810000E+03	9.136492E-17	3.114032E-17
3.820000E+03	9.244182E-17	3.127068E-17
3.830000E+03	9.352591E-17	3.139675E-17
3.840000E+03	9.462240E-17	3.152017E-17
3.850000E+03	9.573126E-17	3.164079E-17
3.860000E+03	9.684714E-17	3.175671E-17
3.870000E+03	9.798062E-17	3.187129E-17
3.880000E+03	9.912102E-17	3.198088E-17
3.890000E+03	1.002736E-16	3.208709E-17
3.900000E+03	1.014383E-16	3.218975E-17
3.910000E+03	1.026098E-16	3.228701E-17
3.920000E+03	1.037933E-16	3.238044E-17
3.930000E+03	1.049887E-16	3.246986E-17
3.940000E+03	1.061960E-16	3.255512E-17
3.950000E+03	1.074097E-16	3.263442E-17
3.960000E+03	1.086352E-16	3.270926E-17
3.970000E+03	1.098724E-16	3.277946E-17
3.980000E+03	1.111157E-16	3.284328E-17
3.990000E+03	1.123705E-16	3.290217E-17
4.000000E+03	1.136313E-16	3.295439E-17
4.010000E+03	1.149034E-16	3.300138E-17
4.020000E+03	1.161813E-16	3.304141E-17
4.030000E+03	1.174703E-16	3.307591E-17
4.040000E+03	1.187648E-16	3.310318E-17
4.050000E+03	1.200648E-16	3.312309E-17
4.060000E+03	1.213756E-16	3.313702E-17
4.070000E+03	1.226970E-16	3.314480E-17
4.080000E+03	1.240181E-16	3.314333E-17
4.090000E+03	1.253495E-16	3.313544E-17
4.100000E+03	1.266803E-16	3.311807E-17
4.110000E+03	1.280212E-16	3.309401E-17
4.120000E+03	1.293666E-16	3.306168E-17
4.130000E+03	1.307164E-16	3.302097E-17
4.140000E+03	1.320705E-16	3.297174E-17
4.150000E+03	1.334286E-16	3.291390E-17
4.160000E+03	1.347906E-16	3.284732E-17
4.170000E+03	1.361509E-16	3.277056E-17
4.180000E+03	1.375203E-16	3.268619E-17
4.190000E+03	1.388875E-16	3.259146E-17
4.200000E+03	1.402525E-16	3.248629E-17
4.210000E+03	1.416261E-16	3.237319E-17
4.220000E+03	1.429914E-16	3.224824E-17
4.230000E+03	1.443595E-16	3.211391E-17
4.240000E+03	1.457302E-16	3.197010E-17
4.250000E+03	1.470976E-16	3.181553E-17
4.260000E+03	1.484616E-16	3.165016E-17
4.270000E+03	1.498220E-16	3.147394E-17
4.280000E+03	1.511842E-16	3.128800E-17
4.290000E+03	1.525368E-16	3.109000E-17
4.300000E+03	1.538908E-16	3.088219E-17
4.310000E+03	1.552348E-16	3.066232E-17
4.320000E+03	1.565743E-16	3.043149E-17
4.330000E+03	1.579089E-16	3.018972E-17
4.340000E+03	1.592386E-16	2.993699E-17
4.350000E+03	1.605575E-16	2.967228E-17
4.360000E+03	1.618710E-16	2.939667E-17
4.370000E+03	1.631789E-16	2.911019E-17
4.380000E+03	1.644698E-16	2.881088E-17
4.390000E+03	1.657603E-16	2.850180E-17
4.400000E+03	1.670335E-16	2.818008E-17
4.410000E+03	1.683003E-16	2.784774E-17
4.420000E+03	1.695550E-16	2.750392E-17
4.430000E+03	1.707974E-16	2.714877E-17
4.440000E+03	1.720216E-16	2.678152E-17
4.450000E+03	1.732389E-16	2.640410E-17
4.460000E+03	1.744433E-16	2.601576E-17
4.470000E+03	1.756348E-16	2.561668E-17
4.480000E+03	1.768077E-16	2.520624E-17
4.490000E+03	1.779673E-16	2.478548E-17
4.500000E+03	1.791137E-16	2.435460E-17
4.510000E+03	1.802411E-16	2.391309E-17
4.520000E+03	1.813550E-16	2.346199E-17
4.530000E+03	1.824554E-16	2.300155E-17
4.540000E+03	1.835311E-16	2.253070E-17
4.550000E+03	1.845989E-16	2.205187E-17
4.560000E+03	1.856420E-16	2.156339E-17
4.570000E+03	1.866716E-16	2.106701E-17
4.580000E+03	1.876822E-16	2.056253E-17
4.590000E+03	1.886740E-16	2.005043E-17
4.600000E+03	1.896470E-16	1.953128E-17
4.610000E+03	1.906015E-16	1.900564E-17
4.620000E+03	1.915433E-16	1.847470E-17
4.630000E+03	1.924615E-16	1.793808E-17
4.640000E+03	1.933619E-16	1.739711E-17
4.650000E+03	1.942505E-16	1.685313E-17
4.660000E+03	1.951166E-16	1.630611E-17
4.670000E+03	1.959662E-16	1.575762E-17
4.680000E+03	1.967998E-16	1.520886E-17
4.690000E+03	1.976180E-16	1.466118E-17
4.700000E+03	1.984158E-16	1.411572E-17
4.710000E+03	1.992051E-16	1.357502E-17
4.720000E+03	1.999754E-16	1.304030E-17
4.730000E+03	2.007331E-16	1.251422E-17
4.740000E+03	2.014736E-16	1.199908E-17
4.750000E+03	2.022087E-16	1.149852E-17
4.760000E+03	2.029283E-16	1.101532E-17
4.770000E+03	2.036334E-16	1.055344E-17
4.780000E+03	2.043361E-16	1.011785E-17
4.790000E+03	2.050262E-16	9.712933E-18
4.800000E+03	2.057050E-16	9.344120E-18
4.810000E+03	2.063843E-16	9.017695E-18
4.820000E+03	2.070542E-16	8.739128E-18
4.830000E+03	2.077212E-16	8.514515E-18
4.840000E+03	2.083808E-16	8.348987E-18
4.850000E+03	2.090393E-16	8.247173E-18
4.860000E+03	2.096977E-16	8.212075E-18
4.870000E+03	2.103512E-16	8.244736E-18
4.880000E+03	2.110060E-16	8.344725E-18
4.890000E+03	2.116628E-16	8.509574E-18
4.900000E+03	2.123223E-16	8.735292E-18
4.910000E+03	2.129794E-16	9.016572E-18
4.920000E+03	2.136400E-16	9.347931E-18
4.930000E+03	2.142990E-16	9.723212E-18
4.940000E+03	2.149678E-16	1.013710E-17
4.950000E+03	2.156355E-16	1.058363E-17
4.960000E+03	2.163079E-16	1.105802E-17
4.970000E+03	2.169796E-16	1.155548E-17
4.980000E+03	2.176617E-16	1.207258E-17
4.990000E+03	2.183433E-16	1.260520E-17
5.000000E+03	2.190299E-16	1.315057E-17
5.010000E+03	2.197216E-16	1.370601E-17
5.020000E+03	2.204130E-16	1.426883E-17
5.030000E+03	2.211148E-16	1.483768E-17
5.040000E+03	2.218163E-16	1.541008E-17
5.050000E+03	2.225283E-16	1.598520E-17
5.060000E+03	2.232400E-16	1.656091E-17
5.070000E+03	2.239566E-16	1.713637E-17
5.080000E+03	2.246783E-16	1.771052E-17
5.090000E+03	2.254051E-16	1.828240E-17
5.100000E+03	2.261368E-16	1.885115E-17
5.110000E+03	2.268736E-16	1.941601E-17
5.120000E+03	2.276099E-16	1.997580E-17
5.130000E+03	2.283567E-16	2.053085E-17
5.140000E+03	2.291085E-16	2.108011E-17
5.150000E+03	2.298654E-16	2.162306E-17
5.160000E+03	2.306273E-16	2.215921E-17
5.170000E+03	2.313943E-16	2.268813E-17
5.180000E+03	2.321663E-16	2.320939E-17
5.190000E+03	2.329434E-16	2.372261E-17
5.200000E+03	2.337257E-16	2.422743E-17
5.210000E+03	2.345186E-16	2.472410E-17
5.220000E+03	2.353112E-16	2.521114E-17
5.230000E+03	2.361090E-16	2.568882E-17
5.240000E+03	2.369176E-16	2.615747E-17
5.250000E+03	2.377315E-16	2.661623E-17
5.260000E+03	2.385508E-16	2.706483E-17
5.270000E+03	2.393754E-16	2.750303E-17
5.280000E+03	2.402054E-16	2.793058E-17
5.290000E+03	2.410465E-16	2.834792E-17
5.300000E+03	2.418875E-16	2.875351E-17
5.310000E+03	2.427396E-16	2.914846E-17
5.320000E+03	2.435974E-16	2.953192E-17
5.330000E+03	2.444608E-16	2.990367E-17
5.340000E+03	2.453357E-16	3.026422E-17
5.350000E+03	2.462163E-16	3.061270E-17
5.360000E+03	2.471028E-16	3.094891E-17
5.370000E+03	2.479951E-16	3.127267E-17
5.380000E+03	2.488992E-16	3.158454E-17
5.390000E+03	2.498034E-16	3.188288E-17
5.400000E+03	2.507254E-16	3.216976E-17
5.410000E+03	2.516477E-16	3.244276E-17
5.420000E+03	2.525821E-16	3.270323E-17
5.430000E+03	2.535228E-16	3.295027E-17
5.440000E+03	2.544759E-16	3.318449E-17
5.450000E+03	2.554354E-16	3.340496E-17
5.460000E+03	2.564015E-16	3.361155E-17
5.470000E+03	2.573802E-16	3.380487E-17
5.480000E+03	2.583657E-16	3.398402E-17
5.490000E+03	2.593581E-16	3.414884E-17
5.500000E+03	2.603635E-16	3.429999E-17
5.510000E+03	2.613821E-16	3.443735E-17
5.520000E+03	2.624079E-16	3.455998E-17
5.530000E+03	2.634411E-16	3.466774E-17
5.540000E+03	2.644879E-16	3.476132E-17
5.550000E+03	2.655485E-16	3.484060E-17
5.560000E+03	2.666170E-16	3.490462E-17
5.570000E+03	2.676933E-16	3.495329E-17
5.580000E+03	2.687903E-16	3.498809E-17
5.590000E+03	2.698893E-16	3.500648E-17
5.600000E+03	2.710094E-16	3.501077E-17
5.610000E+03	2.721381E-16	3.499923E-17
5.620000E+03	2.732820E-16	3.497255E-17
5.630000E+03	2.744350E-16	3.492982E-17
5.640000E+03	2.756036E-16	3.487174E-17
5.650000E+03	2.767882E-16	3.479819E-17
5.660000E+03	2.779890E-16	3.470909E-17
5.670000E+03	2.792062E-16	3.460431E-17
5.680000E+03	2.804337E-16	3.448296E-17
5.690000E+03	2.816782E-16	3.434574E-17
5.700000E+03	2.829400E-16	3.419255E-17
5.710000E+03	2.842194E-16	3.402329E-17
5.720000E+03	2.855167E-16	3.383788E-17
5.730000E+03	2.868257E-16	3.363543E-17
5.740000E+03	2.881599E-16	3.341742E-17
5.750000E+03	2.895063E-16	3.318221E-17
5.760000E+03	2.908787E-16	3.293127E-17
5.770000E+03	2.922639E-16	3.266297E-17
5.780000E+03	2.936759E-16	3.237877E-17
5.790000E+03	2.951013E-16	3.207707E-17
5.800000E+03	2.965543E-16	3.175932E-17
5.810000E+03	2.980214E-16	3.142395E-17
5.820000E+03	2.995168E-16	3.107240E-17
5.830000E+03	3.010339E-16	3.070386E-17
5.840000E+03	3.025732E-16	3.031830E-17
5.850000E+03	3.041348E-16	2.991568E-17
5.860000E+03	3.057192E-16	2.949598E-17
5.870000E+03	3.073339E-16	2.905987E-17
5.880000E+03	3.089647E-16	2.860599E-17
5.890000E+03	3.106265E-16	2.813572E-17
5.900000E+03	3.123122E-16	2.764840E-17
5.910000E+03	3.140220E-16	2.714410E-17
5.920000E+03	3.157636E-16	2.662353E-17
5.930000E+03	3.175297E-16	2.608618E-17
5.940000E+03	3.193204E-16	2.553218E-17
5.950000E+03	3.211358E-16	2.496175E-17
5.960000E+03	3.229834E-16	2.437570E-17
5.970000E+03	3.248556E-16	2.377374E-17
5.980000E+03	3.267521E-16	2.315624E-17
5.990000E+03	3.286805E-16	2.252421E-17
6.000000E+03	3.306327E-16	2.187765E-17
6.010000E+03	3.326080E-16	2.121723E-17
6.020000E+03	3.346137E-16	2.054427E-17
6.030000E+03	3.366412E-16	1.985926E-17
6.040000E+03	3.386893E-16	1.916340E-17
6.050000E+03	3.407650E-16	1.845860E-17
6.060000E+03	3.428587E-16	1.774617E-17
6.070000E+03	3.449770E-16	1.702866E-17
6.080000E+03	3.471097E-16	1.630827E-17
6.090000E+03	3.492629E-16	1.558853E-17
6.100000E+03	3.514173E-16	1.487257E-17
6.110000E+03	3.535951E-16	1.416617E-17
6.120000E+03	3.557763E-16	1.347432E-17
6.130000E+03	3.579571E-16	1.280394E-17
6.140000E+03	3.601423E-16	1.216363E-17
6.150000E+03	3.623188E-16	1.156294E-17
6.160000E+03	3.644908E-16	1.101358E-17
6.170000E+03	3.666449E-16	1.052813E-17
6.180000E+03	3.687851E-16	1.012070E-17
6.190000E+03	3.709069E-16	9.805167E-18
6.200000E+03	3.729881E-16	9.593655E-18
6.210000E+03	3.750521E-16	9.496508E-18
6.220000E+03	3.770778E-16	9.518397E-18
6.230000E+03	3.790628E-16	9.659073E-18
6.240000E+03	3.810244E-16	9.913476E-18
6.250000E+03	3.829339E-16	1.027113E-17
6.260000E+03	3.848195E-16	1.072039E-17
6.270000E+03	3.866535E-16	1.124708E-17
6.280000E+03	3.884650E-16	1.183888E-17
6.290000E+03	3.902359E-16	1.248319E-17
6.300000E+03	3.919769E-16	1.316975E-17
6.310000E+03	3.936790E-16	1.388926E-17
6.320000E+03	3.953623E-16	1.463492E-17
6.330000E+03	3.970080E-16	1.539994E-17
6.340000E+03	3.986160E-16	1.617928E-17
6.350000E+03	4.001962E-16	1.696935E-17
6.360000E+03	4.017483E-16	1.776695E-17
6.370000E+03	4.032719E-16	1.856954E-17
6.380000E+03	4.047665E-16	1.937512E-17
6.390000E+03	4.062209E-16	2.018157E-17
6.400000E+03	4.076444E-16	2.098810E-17
6.410000E+03	4.090358E-16	2.179367E-17
6.420000E+03	4.103940E-16	2.259746E-17
6.430000E+03	4.117074E-16	2.339817E-17
6.440000E+03	4.129955E-16	2.419634E-17
6.450000E+03	4.142364E-16	2.499022E-17
6.460000E+03	4.154393E-16	2.577984E-17
6.470000E+03	4.166136E-16	2.656534E-17
6.480000E+03	4.177374E-16	2.734485E-17
6.490000E+03	4.188201E-16	2.811848E-17
6.500000E+03	4.198609E-16	2.888567E-17
6.510000E+03	4.208589E-16	2.964584E-17
6.520000E+03	4.218133E-16	3.039840E-17
6.530000E+03	4.227233E-16	3.114274E-17
6.540000E+03	4.235882E-16	3.187823E-17
6.550000E+03	4.244182E-16	3.260508E-17
6.560000E+03	4.251911E-16	3.332099E-17
6.570000E+03	4.259171E-16	3.402611E-17
6.580000E+03	4.266067E-16	3.472066E-17
6.590000E+03	4.272486E-16	3.540311E-17
6.600000E+03	4.278424E-16	3.607280E-17
6.610000E+03	4.283880E-16	3.672903E-17
6.620000E+03	4.288851E-16	3.737113E-17
6.630000E+03	4.293446E-16	3.799941E-17
6.640000E+03	4.297444E-16	3.861124E-17
6.650000E+03	4.301067E-16	3.920796E-17
6.660000E+03	4.304315E-16	3.978895E-17
6.670000E+03	4.306969E-16	4.035154E-17
6.680000E+03	4.309252E-16	4.089717E-17
6.690000E+03	4.311170E-16	4.142529E-17
6.700000E+03	4.312501E-16	4.193316E-17
6.710000E+03	4.313474E-16	4.242238E-17
6.720000E+03	4.314095E-16	4.289244E-17
6.730000E+03	4.314144E-16	4.334059E-17
6.740000E+03	4.313853E-16	4.376856E-17
6.750000E+03	4.313229E-16	4.417591E-17
6.760000E+03	4.312167E-16	4.456105E-17
6.770000E+03	4.310788E-16	4.492472E-17
6.780000E+03	4.308873E-16	4.526416E-17
6.790000E+03	4.306774E-16	4.558257E-17
6.800000E+03	4.304272E-16	4.587721E-17
6.810000E+03	4.301378E-16	4.614776E-17
6.820000E+03	4.298215E-16	4.639513E-17
6.830000E+03	4.294682E-16	4.661785E-17
6.840000E+03	4.290904E-16	4.681689E-17
6.850000E+03	4.286777E-16	4.699081E-17
6.860000E+03	4.282430E-16	4.714066E-17
6.870000E+03	4.277760E-16	4.726502E-17
6.880000E+03	4.272894E-16	4.736500E-17
6.890000E+03	4.267731E-16	4.743923E-17
6.900000E+03	4.262398E-16	4.748887E-17
6.910000E+03	4.256909E-16	4.751387E-17
6.920000E+03	4.251050E-16	4.751160E-17
6.930000E+03	4.245176E-16	4.748588E-17
6.940000E+03	4.239073E-16	4.743413E-17
6.950000E+03	4.232755E-16	4.735637E-17
6.960000E+03	4.226351E-16	4.725390E-17
6.970000E+03	4.219761E-16	4.712550E-17
6.980000E+03	4.213113E-16	4.697249E-17
6.990000E+03	4.206421E-16	4.679495E-17
7.000000E+03	4.199585E-16	4.659170E-17
7.010000E+03	4.192620E-16	4.636287E-17
7.020000E+03	4.185654E-16	4.610981E-17
7.030000E+03	4.178587E-16	4.583143E-17
7.040000E+03	4.171434E-16	4.552786E-17
7.050000E+03	4.164321E-16	4.520051E-17
7.060000E+03	4.157263E-16	4.484953E-17
7.070000E+03	4.150160E-16	4.447386E-17
7.080000E+03	4.143025E-16	4.407370E-17
7.090000E+03	4.135872E-16	4.364925E-17
7.100000E+03	4.128828E-16	4.320191E-17
7.110000E+03	4.121905E-16	4.273186E-17
7.120000E+03	4.114890E-16	4.223698E-17
7.130000E+03	4.108023E-16	4.171983E-17
7.140000E+03	4.101202E-16	4.117948E-17
7.150000E+03	4.094441E-16	4.061617E-17
7.160000E+03	4.087864E-16	4.003126E-17
7.170000E+03	4.081371E-16	3.942387E-17
7.180000E+03	4.074974E-16	3.879428E-17
7.190000E+03	4.068684E-16	3.814275E-17
7.200000E+03	4.062514E-16	3.746957E-17
7.210000E+03	4.056587E-16	3.677604E-17
7.220000E+03	4.050691E-16	3.606042E-17
7.230000E+03	4.045061E-16	3.532503E-17
7.240000E+03	4.039597E-16	3.456917E-17
7.250000E+03	4.034198E-16	3.379227E-17
7.260000E+03	4.029100E-16	3.299656E-17
7.270000E+03	4.024203E-16	3.218149E-17
7.280000E+03	4.019408E-16	3.134660E-17
7.290000E+03	4.014950E-16	3.049409E-17
7.300000E+03	4.010731E-16	2.962357E-17
7.310000E+03	4.006652E-16	2.873477E-17
7.320000E+03	4.002952E-16	2.782992E-17
7.330000E+03	3.999420E-16	2.690810E-17
7.340000E+03	3.996187E-16	2.597089E-17
7.350000E+03	3.993268E-16	2.501914E-17
7.360000E+03	3.990570E-16	2.405321E-17
7.370000E+03	3.988337E-16	2.307564E-17
7.380000E+03	3.986366E-16	2.208651E-17
7.390000E+03	3.984795E-16	2.108817E-17
7.400000E+03	3.983649E-16	2.008262E-17
7.410000E+03	3.982845E-16	1.907179E-17
7.420000E+03	3.982526E-16	1.805932E-17
7.430000E+03	3.982727E-16	1.704900E-17
7.440000E+03	3.983374E-16	1.604514E-17
7.450000E+03	3.984621E-16	1.505433E-17
7.460000E+03	3.986400E-16	1.408393E-17
7.470000E+03	3.988872E-16	1.314439E-17
7.480000E+03	3.992088E-16	1.224854E-17
7.490000E+03	3.995988E-16	1.141245E-17
7.500000E+03	4.000742E-16	1.065706E-17
7.510000E+03	4.006290E-16	1.000694E-17
7.520000E+03	4.012798E-16	9.490691E-18
7.530000E+03	4.020200E-16	9.137037E-18
7.540000E+03	4.028531E-16	8.970865E-18
7.550000E+03	4.037933E-16	9.007399E-18
7.560000E+03	4.048415E-16	9.247597E-18
7.570000E+03	4.059856E-16	9.678198E-18
7.580000E+03	4.072236E-16	1.027634E-17
7.590000E+03	4.085527E-16	1.101499E-17
7.600000E+03	4.099813E-16	1.186793E-17
7.610000E+03	4.115055E-16	1.281174E-17
7.620000E+03	4.131100E-16	1.382662E-17
7.630000E+03	4.147907E-16	1.489692E-17
7.640000E+03	4.165441E-16	1.601030E-17
7.650000E+03	4.183788E-16	1.715758E-17
7.660000E+03	4.202798E-16	1.833074E-17
7.670000E+03	4.222443E-16	1.952378E-17
7.680000E+03	4.242696E-16	2.073192E-17
7.690000E+03	4.263660E-16	2.195195E-17
7.700000E+03	4.285193E-16	2.318017E-17
7.710000E+03	4.307404E-16	2.441472E-17
7.720000E+03	4.330026E-16	2.565203E-17
7.730000E+03	4.353301E-16	2.689173E-17
7.740000E+03	4.377092E-16	2.813154E-17
7.750000E+03	4.401389E-16	2.937007E-17
7.760000E+03	4.426317E-16	3.060703E-17
