#wls	flux	fluxerr
1.600000E+03	1.527257E-17	1.038863E-17
1.640000E+03	1.541546E-17	1.044346E-17
1.680000E+03	1.556373E-17	1.049991E-17
1.720000E+03	1.572303E-17	1.056167E-17
1.760000E+03	1.589099E-17	1.062697E-17
1.800000E+03	1.606519E-17	1.069406E-17
1.840000E+03	1.625416E-17	1.076846E-17
1.880000E+03	1.645005E-17	1.084476E-17
1.920000E+03	1.665877E-17	1.092669E-17
1.960000E+03	1.687793E-17	1.101246E-17
2.000000E+03	1.710796E-17	1.110213E-17
2.040000E+03	1.735217E-17	1.119763E-17
2.080000E+03	1.761108E-17	1.129903E-17
2.120000E+03	1.788526E-17	1.140639E-17
2.160000E+03	1.817235E-17	1.151791E-17
2.200000E+03	1.847589E-17	1.163554E-17
2.240000E+03	1.879349E-17	1.175743E-17
2.280000E+03	1.913190E-17	1.188744E-17
2.320000E+03	1.948886E-17	1.202375E-17
2.360000E+03	1.986202E-17	1.216448E-17
2.400000E+03	2.025843E-17	1.231352E-17
2.440000E+03	2.067910E-17	1.247094E-17
2.480000E+03	2.111855E-17	1.263291E-17
2.520000E+03	2.158425E-17	1.280334E-17
2.560000E+03	2.207735E-17	1.298227E-17
2.600000E+03	2.259570E-17	1.316775E-17
2.640000E+03	2.314391E-17	1.336176E-17
2.680000E+03	2.372337E-17	1.356430E-17
2.720000E+03	2.433197E-17	1.377333E-17
2.760000E+03	2.497833E-17	1.399283E-17
2.800000E+03	2.565691E-17	1.421868E-17
2.840000E+03	2.637673E-17	1.445487E-17
2.880000E+03	2.713602E-17	1.469922E-17
2.920000E+03	2.793671E-17	1.495158E-17
2.960000E+03	2.878481E-17	1.521381E-17
3.000000E+03	2.967869E-17	1.548362E-17
3.010000E+03	2.990970E-17	1.555228E-17
3.020000E+03	3.014301E-17	1.562100E-17
3.030000E+03	3.038269E-17	1.569187E-17
3.040000E+03	3.062475E-17	1.576279E-17
3.050000E+03	3.086921E-17	1.583375E-17
3.060000E+03	3.111612E-17	1.590474E-17
3.070000E+03	3.136548E-17	1.597575E-17
3.080000E+03	3.162151E-17	1.604889E-17
3.090000E+03	3.188010E-17	1.612204E-17
3.100000E+03	3.214128E-17	1.619520E-17
3.110000E+03	3.240510E-17	1.626835E-17
3.120000E+03	3.267581E-17	1.634361E-17
3.130000E+03	3.294926E-17	1.641885E-17
3.140000E+03	3.322547E-17	1.649406E-17
3.150000E+03	3.350448E-17	1.656923E-17
3.160000E+03	3.379065E-17	1.664649E-17
3.170000E+03	3.407539E-17	1.672155E-17
3.180000E+03	3.436739E-17	1.679868E-17
3.190000E+03	3.466678E-17	1.687788E-17
3.200000E+03	3.496480E-17	1.695484E-17
3.210000E+03	3.527033E-17	1.703385E-17
3.220000E+03	3.557899E-17	1.711274E-17
3.230000E+03	3.589082E-17	1.719152E-17
3.240000E+03	3.620587E-17	1.727015E-17
3.250000E+03	3.652870E-17	1.735079E-17
3.260000E+03	3.685488E-17	1.743127E-17
3.270000E+03	3.718443E-17	1.751158E-17
3.280000E+03	3.751740E-17	1.759170E-17
3.290000E+03	3.785847E-17	1.767377E-17
3.300000E+03	3.820310E-17	1.775563E-17
3.310000E+03	3.855132E-17	1.783726E-17
3.320000E+03	3.890319E-17	1.791863E-17
3.330000E+03	3.926348E-17	1.800192E-17
3.340000E+03	3.962755E-17	1.808492E-17
3.350000E+03	3.999545E-17	1.816762E-17
3.360000E+03	4.036723E-17	1.825001E-17
3.370000E+03	4.074777E-17	1.833424E-17
3.380000E+03	4.113234E-17	1.841812E-17
3.390000E+03	4.152098E-17	1.850163E-17
3.400000E+03	4.191375E-17	1.858474E-17
3.410000E+03	4.231070E-17	1.866744E-17
3.420000E+03	4.271685E-17	1.875189E-17
3.430000E+03	4.312734E-17	1.883588E-17
3.440000E+03	4.354726E-17	1.892159E-17
3.450000E+03	4.396661E-17	1.900460E-17
3.460000E+03	4.439555E-17	1.908929E-17
3.470000E+03	4.482911E-17	1.917342E-17
3.480000E+03	4.526734E-17	1.925698E-17
3.490000E+03	4.571029E-17	1.933994E-17
3.500000E+03	4.616325E-17	1.942446E-17
3.510000E+03	4.662111E-17	1.950834E-17
3.520000E+03	4.708394E-17	1.959154E-17
3.530000E+03	4.755179E-17	1.967402E-17
3.540000E+03	4.803008E-17	1.975796E-17
3.550000E+03	4.851358E-17	1.984114E-17
3.560000E+03	4.900237E-17	1.992352E-17
3.570000E+03	4.949650E-17	2.000506E-17
3.580000E+03	5.000152E-17	2.008794E-17
3.590000E+03	5.050658E-17	2.016773E-17
3.600000E+03	5.102272E-17	2.024878E-17
3.610000E+03	5.154455E-17	2.032886E-17
3.620000E+03	5.207774E-17	2.041014E-17
3.630000E+03	5.261118E-17	2.048818E-17
3.640000E+03	5.315619E-17	2.056734E-17
3.650000E+03	5.370725E-17	2.064539E-17
3.660000E+03	5.426442E-17	2.072227E-17
3.670000E+03	5.483357E-17	2.080016E-17
3.680000E+03	5.540323E-17	2.087461E-17
3.690000E+03	5.598509E-17	2.094997E-17
3.700000E+03	5.657346E-17	2.102401E-17
3.710000E+03	5.717433E-17	2.109887E-17
3.720000E+03	5.777596E-17	2.117011E-17
3.730000E+03	5.839034E-17	2.124208E-17
3.740000E+03	5.900556E-17	2.131035E-17
3.750000E+03	5.963378E-17	2.137925E-17
3.760000E+03	6.026906E-17	2.144653E-17
3.770000E+03	6.091767E-17	2.151432E-17
3.780000E+03	6.156738E-17	2.157822E-17
3.790000E+03	6.223068E-17	2.164252E-17
3.800000E+03	6.290147E-17	2.170499E-17
3.810000E+03	6.357984E-17	2.176557E-17
3.820000E+03	6.426589E-17	2.182421E-17
3.830000E+03	6.495971E-17	2.188085E-17
3.840000E+03	6.566786E-17	2.193758E-17
3.850000E+03	6.637754E-17	2.199003E-17
3.860000E+03	6.710181E-17	2.204245E-17
3.870000E+03	6.783432E-17	2.209261E-17
3.880000E+03	6.857516E-17	2.214044E-17
3.890000E+03	6.932441E-17	2.218589E-17
3.900000E+03	7.008893E-17	2.223102E-17
3.910000E+03	7.085537E-17	2.227148E-17
3.920000E+03	7.163735E-17	2.231147E-17
3.930000E+03	7.242137E-17	2.234666E-17
3.940000E+03	7.322122E-17	2.238122E-17
3.950000E+03	7.403018E-17	2.241296E-17
3.960000E+03	7.484835E-17	2.244178E-17
3.970000E+03	7.567582E-17	2.246762E-17
3.980000E+03	7.651271E-17	2.249039E-17
3.990000E+03	7.736627E-17	2.251210E-17
4.000000E+03	7.822232E-17	2.252849E-17
4.010000E+03	7.908807E-17	2.254156E-17
4.020000E+03	7.997096E-17	2.255329E-17
4.030000E+03	8.085648E-17	2.255945E-17
4.040000E+03	8.175943E-17	2.256408E-17
4.050000E+03	8.267258E-17	2.256502E-17
4.060000E+03	8.358850E-17	2.256014E-17
4.070000E+03	8.452229E-17	2.255342E-17
4.080000E+03	8.546658E-17	2.254272E-17
4.090000E+03	8.642145E-17	2.252794E-17
4.100000E+03	8.738700E-17	2.250898E-17
4.110000E+03	8.836330E-17	2.248574E-17
4.120000E+03	8.934258E-17	2.245614E-17
4.130000E+03	9.034061E-17	2.242402E-17
4.140000E+03	9.134964E-17	2.238730E-17
4.150000E+03	9.236976E-17	2.234587E-17
4.160000E+03	9.340104E-17	2.229961E-17
4.170000E+03	9.444355E-17	2.224842E-17
4.180000E+03	9.549735E-17	2.219217E-17
4.190000E+03	9.656251E-17	2.213074E-17
4.200000E+03	9.763907E-17	2.206403E-17
4.210000E+03	9.871869E-17	2.199003E-17
4.220000E+03	9.981815E-17	2.191238E-17
4.230000E+03	1.009291E-16	2.182908E-17
4.240000E+03	1.020431E-16	2.173817E-17
4.250000E+03	1.031772E-16	2.164319E-17
4.260000E+03	1.043142E-16	2.154037E-17
4.270000E+03	1.054714E-16	2.143321E-17
4.280000E+03	1.066313E-16	2.131798E-17
4.290000E+03	1.078028E-16	2.119636E-17
4.300000E+03	1.089946E-16	2.106995E-17
4.310000E+03	1.101888E-16	2.093514E-17
4.320000E+03	1.113944E-16	2.079353E-17
4.330000E+03	1.126021E-16	2.064332E-17
4.340000E+03	1.138301E-16	2.048777E-17
4.350000E+03	1.150691E-16	2.032502E-17
4.360000E+03	1.163097E-16	2.015334E-17
4.370000E+03	1.175704E-16	1.997586E-17
4.380000E+03	1.188323E-16	1.978922E-17
4.390000E+03	1.201046E-16	1.959491E-17
4.400000E+03	1.213870E-16	1.939282E-17
4.410000E+03	1.226793E-16	1.918283E-17
4.420000E+03	1.239716E-16	1.896330E-17
4.430000E+03	1.252830E-16	1.873716E-17
4.440000E+03	1.265937E-16	1.850132E-17
4.450000E+03	1.279130E-16	1.825716E-17
4.460000E+03	1.292406E-16	1.800459E-17
4.470000E+03	1.305761E-16	1.774353E-17
4.480000E+03	1.319090E-16	1.747253E-17
4.490000E+03	1.332487E-16	1.719292E-17
4.500000E+03	1.345949E-16	1.690465E-17
4.510000E+03	1.359469E-16	1.660766E-17
4.520000E+03	1.373043E-16	1.630193E-17
4.530000E+03	1.386557E-16	1.598619E-17
4.540000E+03	1.400217E-16	1.566294E-17
4.550000E+03	1.413695E-16	1.532860E-17
4.560000E+03	1.427303E-16	1.498681E-17
4.570000E+03	1.440928E-16	1.463643E-17
4.580000E+03	1.454450E-16	1.427651E-17
4.590000E+03	1.467968E-16	1.390831E-17
4.600000E+03	1.481472E-16	1.353201E-17
4.610000E+03	1.494840E-16	1.314686E-17
4.620000E+03	1.508171E-16	1.275420E-17
4.630000E+03	1.521454E-16	1.235437E-17
4.640000E+03	1.534674E-16	1.194781E-17
4.650000E+03	1.547705E-16	1.153417E-17
4.660000E+03	1.560645E-16	1.111500E-17
4.670000E+03	1.573480E-16	1.069105E-17
4.680000E+03	1.586193E-16	1.026322E-17
4.690000E+03	1.598651E-16	9.831883E-18
4.700000E+03	1.610952E-16	9.399127E-18
4.710000E+03	1.622961E-16	8.965877E-18
4.720000E+03	1.634893E-16	8.535376E-18
4.730000E+03	1.646492E-16	8.108660E-18
4.740000E+03	1.657856E-16	7.689179E-18
4.750000E+03	1.668844E-16	7.279806E-18
4.760000E+03	1.679554E-16	6.885237E-18
4.770000E+03	1.689963E-16	6.510424E-18
4.780000E+03	1.699929E-16	6.160829E-18
4.790000E+03	1.709548E-16	5.843837E-18
4.800000E+03	1.718800E-16	5.567263E-18
4.810000E+03	1.727661E-16	5.339531E-18
4.820000E+03	1.735989E-16	5.168318E-18
4.830000E+03	1.743768E-16	5.060480E-18
4.840000E+03	1.751231E-16	5.021789E-18
4.850000E+03	1.758113E-16	5.053992E-18
4.860000E+03	1.764522E-16	5.156888E-18
4.870000E+03	1.770317E-16	5.326673E-18
4.880000E+03	1.775625E-16	5.557396E-18
4.890000E+03	1.780483E-16	5.840583E-18
4.900000E+03	1.784805E-16	6.167091E-18
4.910000E+03	1.788875E-16	6.529594E-18
4.920000E+03	1.792357E-16	6.919496E-18
4.930000E+03	1.795656E-16	7.331972E-18
4.940000E+03	1.798556E-16	7.760862E-18
4.950000E+03	1.801089E-16	8.201811E-18
4.960000E+03	1.803406E-16	8.651829E-18
4.970000E+03	1.805536E-16	9.108058E-18
4.980000E+03	1.807504E-16	9.568167E-18
4.990000E+03	1.809211E-16	1.002956E-17
5.000000E+03	1.810803E-16	1.049131E-17
5.010000E+03	1.812302E-16	1.095213E-17
5.020000E+03	1.813605E-16	1.141019E-17
5.030000E+03	1.814731E-16	1.186453E-17
5.040000E+03	1.815945E-16	1.231600E-17
5.050000E+03	1.817017E-16	1.276239E-17
5.060000E+03	1.818087E-16	1.320399E-17
5.070000E+03	1.819047E-16	1.363948E-17
5.080000E+03	1.820033E-16	1.406940E-17
5.090000E+03	1.821059E-16	1.449345E-17
5.100000E+03	1.822015E-16	1.491042E-17
5.110000E+03	1.823036E-16	1.532107E-17
5.120000E+03	1.824009E-16	1.572418E-17
5.130000E+03	1.825191E-16	1.612174E-17
5.140000E+03	1.826224E-16	1.651040E-17
5.150000E+03	1.827484E-16	1.689334E-17
5.160000E+03	1.828736E-16	1.726826E-17
5.170000E+03	1.830110E-16	1.763623E-17
5.180000E+03	1.831492E-16	1.799603E-17
5.190000E+03	1.833010E-16	1.834879E-17
5.200000E+03	1.834673E-16	1.869452E-17
5.210000E+03	1.836365E-16	1.903195E-17
5.220000E+03	1.838213E-16	1.936231E-17
5.230000E+03	1.840224E-16	1.968562E-17
5.240000E+03	1.842281E-16	2.000056E-17
5.250000E+03	1.844510E-16	2.030845E-17
5.260000E+03	1.846918E-16	2.060930E-17
5.270000E+03	1.849386E-16	2.090176E-17
5.280000E+03	1.852040E-16	2.118720E-17
5.290000E+03	1.854885E-16	2.146565E-17
5.300000E+03	1.857803E-16	2.173569E-17
5.310000E+03	1.860918E-16	2.199876E-17
5.320000E+03	1.864235E-16	2.225486E-17
5.330000E+03	1.867634E-16	2.250255E-17
5.340000E+03	1.871240E-16	2.274330E-17
5.350000E+03	1.874933E-16	2.297561E-17
5.360000E+03	1.878962E-16	2.320249E-17
5.370000E+03	1.883083E-16	2.342095E-17
5.380000E+03	1.887297E-16	2.363094E-17
5.390000E+03	1.891855E-16	2.383556E-17
5.400000E+03	1.896510E-16	2.403170E-17
5.410000E+03	1.901264E-16	2.421933E-17
5.420000E+03	1.906366E-16	2.440160E-17
5.430000E+03	1.911571E-16	2.457534E-17
5.440000E+03	1.916878E-16	2.474050E-17
5.450000E+03	1.922538E-16	2.490030E-17
5.460000E+03	1.928302E-16	2.505147E-17
5.470000E+03	1.934297E-16	2.519563E-17
5.480000E+03	1.940397E-16	2.533110E-17
5.490000E+03	1.946728E-16	2.545949E-17
5.500000E+03	1.953292E-16	2.558078E-17
5.510000E+03	1.960088E-16	2.569493E-17
5.520000E+03	1.966990E-16	2.580025E-17
5.530000E+03	1.974124E-16	2.589836E-17
5.540000E+03	1.981491E-16	2.598922E-17
5.550000E+03	1.988961E-16	2.607110E-17
5.560000E+03	1.996664E-16	2.614565E-17
5.570000E+03	2.004597E-16	2.621283E-17
5.580000E+03	2.012761E-16	2.627258E-17
5.590000E+03	2.021025E-16	2.632316E-17
5.600000E+03	2.029516E-16	2.636622E-17
5.610000E+03	2.038234E-16	2.640171E-17
5.620000E+03	2.047178E-16	2.642958E-17
5.630000E+03	2.056214E-16	2.644808E-17
5.640000E+03	2.065471E-16	2.645886E-17
5.650000E+03	2.074813E-16	2.646016E-17
5.660000E+03	2.084506E-16	2.645536E-17
5.670000E+03	2.094278E-16	2.644098E-17
5.680000E+03	2.104261E-16	2.641870E-17
5.690000E+03	2.114452E-16	2.638846E-17
5.700000E+03	2.124710E-16	2.634853E-17
5.710000E+03	2.135305E-16	2.630226E-17
5.720000E+03	2.145958E-16	2.624624E-17
5.730000E+03	2.156664E-16	2.618043E-17
5.740000E+03	2.167694E-16	2.610819E-17
5.750000E+03	2.178765E-16	2.602612E-17
5.760000E+03	2.190011E-16	2.593591E-17
5.770000E+03	2.201426E-16	2.583753E-17
5.780000E+03	2.213002E-16	2.573098E-17
5.790000E+03	2.224592E-16	2.561463E-17
5.800000E+03	2.236328E-16	2.549014E-17
5.810000E+03	2.248204E-16	2.535754E-17
5.820000E+03	2.260212E-16	2.521685E-17
5.830000E+03	2.272196E-16	2.506651E-17
5.840000E+03	2.284440E-16	2.490980E-17
5.850000E+03	2.296641E-16	2.474357E-17
5.860000E+03	2.308934E-16	2.456951E-17
5.870000E+03	2.321161E-16	2.438613E-17
5.880000E+03	2.333608E-16	2.419670E-17
5.890000E+03	2.345964E-16	2.399820E-17
5.900000E+03	2.358366E-16	2.379232E-17
5.910000E+03	2.370802E-16	2.357922E-17
5.920000E+03	2.383260E-16	2.335904E-17
5.930000E+03	2.395571E-16	2.313049E-17
5.940000E+03	2.408029E-16	2.289673E-17
5.950000E+03	2.420311E-16	2.265501E-17
5.960000E+03	2.432556E-16	2.240704E-17
5.970000E+03	2.444749E-16	2.215305E-17
5.980000E+03	2.456875E-16	2.189329E-17
5.990000E+03	2.468759E-16	2.162662E-17
6.000000E+03	2.480542E-16	2.135475E-17
6.010000E+03	2.492370E-16	2.107933E-17
6.020000E+03	2.503904E-16	2.079791E-17
6.030000E+03	2.515290E-16	2.051218E-17
6.040000E+03	2.526346E-16	2.022114E-17
6.050000E+03	2.537383E-16	1.992775E-17
6.060000E+03	2.548057E-16	1.962975E-17
6.070000E+03	2.558681E-16	1.933002E-17
6.080000E+03	2.568908E-16	1.902639E-17
6.090000E+03	2.578889E-16	1.872045E-17
6.100000E+03	2.588607E-16	1.841256E-17
6.110000E+03	2.597881E-16	1.810188E-17
6.120000E+03	2.607032E-16	1.779112E-17
6.130000E+03	2.615709E-16	1.747830E-17
6.140000E+03	2.624240E-16	1.716605E-17
6.150000E+03	2.632273E-16	1.685248E-17
6.160000E+03	2.639967E-16	1.653909E-17
6.170000E+03	2.647312E-16	1.622624E-17
6.180000E+03	2.654299E-16	1.591433E-17
6.190000E+03	2.660923E-16	1.560376E-17
6.200000E+03	2.667002E-16	1.529399E-17
6.210000E+03	2.672879E-16	1.498749E-17
6.220000E+03	2.678202E-16	1.468284E-17
6.230000E+03	2.683319E-16	1.438254E-17
6.240000E+03	2.687880E-16	1.408534E-17
6.250000E+03	2.692059E-16	1.379293E-17
6.260000E+03	2.695861E-16	1.350617E-17
6.270000E+03	2.699288E-16	1.322601E-17
6.280000E+03	2.702347E-16	1.295360E-17
6.290000E+03	2.704866E-16	1.268939E-17
6.300000E+03	2.707207E-16	1.243651E-17
6.310000E+03	2.709026E-16	1.219500E-17
6.320000E+03	2.710686E-16	1.196830E-17
6.330000E+03	2.711844E-16	1.175688E-17
6.340000E+03	2.712867E-16	1.156452E-17
6.350000E+03	2.713414E-16	1.139206E-17
6.360000E+03	2.713676E-16	1.124276E-17
6.370000E+03	2.713666E-16	1.111913E-17
6.380000E+03	2.713400E-16	1.102368E-17
6.390000E+03	2.712892E-16	1.095878E-17
6.400000E+03	2.712158E-16	1.092659E-17
6.410000E+03	2.711035E-16	1.092825E-17
6.420000E+03	2.709893E-16	1.096659E-17
6.430000E+03	2.708569E-16	1.104183E-17
6.440000E+03	2.706899E-16	1.115362E-17
6.450000E+03	2.705250E-16	1.130296E-17
6.460000E+03	2.703278E-16	1.148699E-17
6.470000E+03	2.701169E-16	1.170450E-17
6.480000E+03	2.699112E-16	1.195400E-17
6.490000E+03	2.696757E-16	1.223137E-17
6.500000E+03	2.694291E-16	1.253467E-17
6.510000E+03	2.691721E-16	1.286108E-17
6.520000E+03	2.689232E-16	1.320867E-17
6.530000E+03	2.686474E-16	1.357296E-17
6.540000E+03	2.683633E-16	1.395216E-17
6.550000E+03	2.680713E-16	1.434375E-17
6.560000E+03	2.677545E-16	1.474441E-17
6.570000E+03	2.674488E-16	1.515387E-17
6.580000E+03	2.671372E-16	1.556915E-17
6.590000E+03	2.668202E-16	1.598839E-17
6.600000E+03	2.664985E-16	1.640989E-17
6.610000E+03	2.661549E-16	1.683098E-17
6.620000E+03	2.658254E-16	1.725245E-17
6.630000E+03	2.654930E-16	1.767192E-17
6.640000E+03	2.651407E-16	1.808703E-17
6.650000E+03	2.648042E-16	1.849908E-17
6.660000E+03	2.644491E-16	1.890468E-17
6.670000E+03	2.641110E-16	1.930544E-17
6.680000E+03	2.637555E-16	1.969804E-17
6.690000E+03	2.634184E-16	2.008434E-17
6.700000E+03	2.630650E-16	2.046104E-17
6.710000E+03	2.627137E-16	2.082887E-17
6.720000E+03	2.623825E-16	2.118869E-17
6.730000E+03	2.620370E-16	2.153722E-17
6.740000E+03	2.616953E-16	2.187540E-17
6.750000E+03	2.613580E-16	2.220283E-17
6.760000E+03	2.610433E-16	2.252065E-17
6.770000E+03	2.607168E-16	2.282553E-17
6.780000E+03	2.603965E-16	2.311866E-17
6.790000E+03	2.600830E-16	2.339977E-17
6.800000E+03	2.597770E-16	2.366860E-17
6.810000E+03	2.594790E-16	2.392494E-17
6.820000E+03	2.591896E-16	2.416859E-17
6.830000E+03	2.589094E-16	2.439935E-17
6.840000E+03	2.586389E-16	2.461707E-17
6.850000E+03	2.583787E-16	2.482160E-17
6.860000E+03	2.581294E-16	2.501280E-17
6.870000E+03	2.578914E-16	2.519055E-17
6.880000E+03	2.576655E-16	2.535475E-17
6.890000E+03	2.574520E-16	2.550529E-17
6.900000E+03	2.572341E-16	2.564036E-17
6.910000E+03	2.570471E-16	2.576334E-17
6.920000E+03	2.568742E-16	2.587243E-17
6.930000E+03	2.567159E-16	2.596758E-17
6.940000E+03	2.565552E-16	2.604696E-17
6.950000E+03	2.564275E-16	2.611406E-17
6.960000E+03	2.563157E-16	2.616706E-17
6.970000E+03	2.562031E-16	2.620416E-17
6.980000E+03	2.561248E-16	2.622887E-17
6.990000E+03	2.560465E-16	2.623760E-17
7.000000E+03	2.560035E-16	2.623390E-17
7.010000E+03	2.559613E-16	2.621418E-17
7.020000E+03	2.559553E-16	2.618198E-17
7.030000E+03	2.559509E-16	2.613372E-17
7.040000E+03	2.559660E-16	2.607116E-17
7.050000E+03	2.560185E-16	2.599609E-17
7.060000E+03	2.560737E-16	2.590493E-17
7.070000E+03	2.561494E-16	2.579944E-17
7.080000E+03	2.562461E-16	2.567964E-17
7.090000E+03	2.563641E-16	2.554551E-17
7.100000E+03	2.565211E-16	2.539879E-17
7.110000E+03	2.566824E-16	2.523600E-17
7.120000E+03	2.568658E-16	2.505889E-17
7.130000E+03	2.570716E-16	2.486746E-17
7.140000E+03	2.572999E-16	2.466174E-17
7.150000E+03	2.575332E-16	2.444006E-17
7.160000E+03	2.578072E-16	2.420582E-17
7.170000E+03	2.581043E-16	2.395737E-17
7.180000E+03	2.584246E-16	2.369473E-17
7.190000E+03	2.587504E-16	2.341635E-17
7.200000E+03	2.591174E-16	2.312556E-17
7.210000E+03	2.595080E-16	2.282078E-17
7.220000E+03	2.599040E-16	2.250057E-17
7.230000E+03	2.603414E-16	2.216818E-17
7.240000E+03	2.607842E-16	2.182067E-17
7.250000E+03	2.612502E-16	2.145977E-17
7.260000E+03	2.617393E-16	2.108568E-17
7.270000E+03	2.622697E-16	2.070011E-17
7.280000E+03	2.628047E-16	2.030044E-17
7.290000E+03	2.633622E-16	1.988848E-17
7.300000E+03	2.639420E-16	1.946465E-17
7.310000E+03	2.645438E-16	1.902944E-17
7.320000E+03	2.651486E-16	1.858212E-17
7.330000E+03	2.657932E-16	1.812599E-17
7.340000E+03	2.664586E-16	1.766051E-17
7.350000E+03	2.671443E-16	1.718660E-17
7.360000E+03	2.678311E-16	1.670418E-17
7.370000E+03	2.685371E-16	1.621576E-17
7.380000E+03	2.692805E-16	1.572393E-17
7.390000E+03	2.700230E-16	1.522819E-17
7.400000E+03	2.707828E-16	1.473172E-17
7.410000E+03	2.715592E-16	1.423690E-17
7.420000E+03	2.723515E-16	1.374651E-17
7.430000E+03	2.731588E-16	1.326379E-17
7.440000E+03	2.739806E-16	1.279249E-17
7.450000E+03	2.748158E-16	1.233693E-17
7.460000E+03	2.756442E-16	1.190123E-17
7.470000E+03	2.765039E-16	1.149269E-17
7.480000E+03	2.773548E-16	1.111588E-17
7.490000E+03	2.782352E-16	1.077919E-17
7.500000E+03	2.791049E-16	1.048824E-17
7.510000E+03	2.799823E-16	1.025113E-17
7.520000E+03	2.808664E-16	1.007493E-17
7.530000E+03	2.817560E-16	9.965976E-18
7.540000E+03	2.826299E-16	9.928711E-18
7.550000E+03	2.835270E-16	9.967978E-18
7.560000E+03	2.844273E-16	1.008393E-17
7.570000E+03	2.853120E-16	1.027414E-17
7.580000E+03	2.862027E-16	1.053582E-17
7.590000E+03	2.871213E-16	1.086483E-17
7.600000E+03	2.880280E-16	1.125383E-17
7.610000E+03	2.889449E-16	1.169733E-17
7.620000E+03	2.898522E-16	1.218808E-17
7.630000E+03	2.907929E-16	1.272168E-17
7.640000E+03	2.917476E-16	1.329154E-17
7.650000E+03	2.926963E-16	1.389141E-17
7.660000E+03	2.936825E-16	1.451851E-17
7.670000E+03	2.946651E-16	1.516661E-17
7.680000E+03	2.956665E-16	1.583299E-17
7.690000E+03	2.966879E-16	1.651440E-17
7.700000E+03	2.977305E-16	1.720799E-17
7.710000E+03	2.987739E-16	1.790997E-17
7.720000E+03	2.998626E-16	1.862071E-17
7.730000E+03	3.009542E-16	1.933563E-17
7.740000E+03	3.020716E-16	2.005436E-17
7.750000E+03	3.032381E-16	2.077693E-17
7.760000E+03	3.043884E-16	2.149747E-17
