#wls	flux	fluxerr
1.600000E+03	1.459669E-17	9.902987E-18
1.640000E+03	1.472413E-17	9.948521E-18
1.680000E+03	1.485888E-17	9.997110E-18
1.720000E+03	1.500119E-17	1.004880E-17
1.760000E+03	1.515391E-17	1.010535E-17
1.800000E+03	1.531474E-17	1.016509E-17
1.840000E+03	1.548399E-17	1.022805E-17
1.880000E+03	1.566459E-17	1.029603E-17
1.920000E+03	1.585425E-17	1.036733E-17
1.960000E+03	1.605599E-17	1.044373E-17
2.000000E+03	1.627022E-17	1.052529E-17
2.040000E+03	1.649466E-17	1.061030E-17
2.080000E+03	1.673520E-17	1.070232E-17
2.120000E+03	1.698684E-17	1.079788E-17
2.160000E+03	1.725283E-17	1.089878E-17
2.200000E+03	1.753370E-17	1.100507E-17
2.240000E+03	1.783287E-17	1.111856E-17
2.280000E+03	1.814815E-17	1.123752E-17
2.320000E+03	1.848018E-17	1.136198E-17
2.360000E+03	1.883257E-17	1.149376E-17
2.400000E+03	1.920611E-17	1.163289E-17
2.440000E+03	1.959866E-17	1.177761E-17
2.480000E+03	2.001405E-17	1.192971E-17
2.520000E+03	2.045322E-17	1.208922E-17
2.560000E+03	2.091716E-17	1.225613E-17
2.600000E+03	2.140694E-17	1.243042E-17
2.640000E+03	2.192686E-17	1.261390E-17
2.680000E+03	2.247499E-17	1.280469E-17
2.720000E+03	2.305585E-17	1.300458E-17
2.760000E+03	2.366756E-17	1.321164E-17
2.800000E+03	2.431829E-17	1.342948E-17
2.840000E+03	2.500291E-17	1.365423E-17
2.880000E+03	2.572648E-17	1.388761E-17
2.920000E+03	2.649435E-17	1.413130E-17
2.960000E+03	2.730499E-17	1.438319E-17
3.000000E+03	2.816041E-17	1.464298E-17
3.010000E+03	2.838382E-17	1.471032E-17
3.020000E+03	2.860928E-17	1.477765E-17
3.030000E+03	2.883683E-17	1.484496E-17
3.040000E+03	2.906648E-17	1.491225E-17
3.050000E+03	2.930202E-17	1.498143E-17
3.060000E+03	2.953974E-17	1.505057E-17
3.070000E+03	2.977967E-17	1.511966E-17
3.080000E+03	3.002564E-17	1.519063E-17
3.090000E+03	3.027391E-17	1.526153E-17
3.100000E+03	3.052450E-17	1.533237E-17
3.110000E+03	3.078129E-17	1.540506E-17
3.120000E+03	3.104048E-17	1.547766E-17
3.130000E+03	3.130211E-17	1.555017E-17
3.140000E+03	3.157012E-17	1.562451E-17
3.150000E+03	3.183672E-17	1.569680E-17
3.160000E+03	3.211373E-17	1.577284E-17
3.170000E+03	3.238940E-17	1.584681E-17
3.180000E+03	3.267166E-17	1.592257E-17
3.190000E+03	3.295660E-17	1.599818E-17
3.200000E+03	3.324425E-17	1.607363E-17
3.210000E+03	3.353869E-17	1.615083E-17
3.220000E+03	3.383593E-17	1.622785E-17
3.230000E+03	3.413601E-17	1.630467E-17
3.240000E+03	3.444307E-17	1.638322E-17
3.250000E+03	3.475308E-17	1.646154E-17
3.260000E+03	3.507021E-17	1.654158E-17
3.270000E+03	3.538623E-17	1.661940E-17
3.280000E+03	3.570948E-17	1.669891E-17
3.290000E+03	3.604006E-17	1.678009E-17
3.300000E+03	3.636962E-17	1.685901E-17
3.310000E+03	3.670662E-17	1.693958E-17
3.320000E+03	3.705117E-17	1.702177E-17
3.330000E+03	3.739907E-17	1.710361E-17
3.340000E+03	3.775036E-17	1.718510E-17
3.350000E+03	3.810510E-17	1.726620E-17
3.360000E+03	3.846766E-17	1.734886E-17
3.370000E+03	3.883378E-17	1.743110E-17
3.380000E+03	3.920350E-17	1.751291E-17
3.390000E+03	3.958129E-17	1.759622E-17
3.400000E+03	3.996281E-17	1.767905E-17
3.410000E+03	4.034810E-17	1.776139E-17
3.420000E+03	4.074170E-17	1.784518E-17
3.430000E+03	4.113922E-17	1.792843E-17
3.440000E+03	4.154069E-17	1.801111E-17
3.450000E+03	4.195073E-17	1.809518E-17
3.460000E+03	4.236487E-17	1.817863E-17
3.470000E+03	4.278777E-17	1.826343E-17
3.480000E+03	4.321491E-17	1.834756E-17
3.490000E+03	4.364635E-17	1.843102E-17
3.500000E+03	4.408215E-17	1.851376E-17
3.510000E+03	4.452705E-17	1.859774E-17
3.520000E+03	4.497646E-17	1.868096E-17
3.530000E+03	4.543044E-17	1.876338E-17
3.540000E+03	4.589381E-17	1.884696E-17
3.550000E+03	4.636190E-17	1.892968E-17
3.560000E+03	4.683961E-17	1.901349E-17
3.570000E+03	4.731736E-17	1.909444E-17
3.580000E+03	4.780978E-17	1.917836E-17
3.590000E+03	4.830235E-17	1.925935E-17
3.600000E+03	4.880495E-17	1.934130E-17
3.610000E+03	4.931273E-17	1.942221E-17
3.620000E+03	4.982578E-17	1.950204E-17
3.630000E+03	5.034917E-17	1.958273E-17
3.640000E+03	5.087801E-17	1.966227E-17
3.650000E+03	5.141236E-17	1.974062E-17
3.660000E+03	5.195741E-17	1.981971E-17
3.670000E+03	5.250817E-17	1.989754E-17
3.680000E+03	5.306471E-17	1.997407E-17
3.690000E+03	5.363231E-17	2.005120E-17
3.700000E+03	5.420066E-17	2.012501E-17
3.710000E+03	5.478555E-17	2.020129E-17
3.720000E+03	5.537135E-17	2.027415E-17
3.730000E+03	5.596869E-17	2.034744E-17
3.740000E+03	5.657239E-17	2.041918E-17
3.750000E+03	5.718254E-17	2.048931E-17
3.760000E+03	5.780464E-17	2.055972E-17
3.770000E+03	5.843341E-17	2.062843E-17
3.780000E+03	5.906894E-17	2.069540E-17
3.790000E+03	5.971132E-17	2.076056E-17
3.800000E+03	6.036619E-17	2.082579E-17
3.810000E+03	6.102815E-17	2.088912E-17
3.820000E+03	6.169731E-17	2.095049E-17
3.830000E+03	6.237374E-17	2.100986E-17
3.840000E+03	6.306324E-17	2.106905E-17
3.850000E+03	6.376029E-17	2.112613E-17
3.860000E+03	6.446497E-17	2.118101E-17
3.870000E+03	6.517741E-17	2.123366E-17
3.880000E+03	6.590352E-17	2.128589E-17
3.890000E+03	6.663765E-17	2.133575E-17
3.900000E+03	6.737991E-17	2.138318E-17
3.910000E+03	6.813041E-17	2.142812E-17
3.920000E+03	6.889523E-17	2.147237E-17
3.930000E+03	6.966257E-17	2.151212E-17
3.940000E+03	7.044454E-17	2.155104E-17
3.950000E+03	7.123527E-17	2.158720E-17
3.960000E+03	7.203488E-17	2.162052E-17
3.970000E+03	7.284966E-17	2.165277E-17
3.980000E+03	7.366742E-17	2.168019E-17
3.990000E+03	7.450068E-17	2.170639E-17
4.000000E+03	7.534338E-17	2.172945E-17
4.010000E+03	7.618931E-17	2.174749E-17
4.020000E+03	7.705761E-17	2.176585E-17
4.030000E+03	7.792940E-17	2.177903E-17
4.040000E+03	7.881114E-17	2.178875E-17
4.050000E+03	7.970297E-17	2.179494E-17
4.060000E+03	8.061156E-17	2.179927E-17
4.070000E+03	8.153058E-17	2.179988E-17
4.080000E+03	8.245355E-17	2.179493E-17
4.090000E+03	8.339381E-17	2.178784E-17
4.100000E+03	8.434491E-17	2.177675E-17
4.110000E+03	8.530700E-17	2.176158E-17
4.120000E+03	8.628021E-17	2.174223E-17
4.130000E+03	8.726468E-17	2.171859E-17
4.140000E+03	8.826054E-17	2.169059E-17
4.150000E+03	8.926793E-17	2.165810E-17
4.160000E+03	9.028700E-17	2.162103E-17
4.170000E+03	9.131788E-17	2.157928E-17
4.180000E+03	9.236070E-17	2.153273E-17
4.190000E+03	9.342275E-17	2.148292E-17
4.200000E+03	9.448992E-17	2.142645E-17
4.210000E+03	9.556943E-17	2.136485E-17
4.220000E+03	9.666142E-17	2.129802E-17
4.230000E+03	9.776600E-17	2.122582E-17
4.240000E+03	9.888331E-17	2.114815E-17
4.250000E+03	1.000135E-16	2.106488E-17
4.260000E+03	1.011566E-16	2.097589E-17
4.270000E+03	1.023052E-16	2.087951E-17
4.280000E+03	1.034744E-16	2.077871E-17
4.290000E+03	1.046493E-16	2.067028E-17
4.300000E+03	1.058452E-16	2.055716E-17
4.310000E+03	1.070467E-16	2.043617E-17
4.320000E+03	1.082694E-16	2.031018E-17
4.330000E+03	1.094978E-16	2.017610E-17
4.340000E+03	1.107397E-16	2.003526E-17
4.350000E+03	1.119871E-16	1.988611E-17
4.360000E+03	1.132560E-16	1.973136E-17
4.370000E+03	1.145385E-16	1.956944E-17
4.380000E+03	1.158263E-16	1.939883E-17
4.390000E+03	1.171276E-16	1.922080E-17
4.400000E+03	1.184422E-16	1.903519E-17
4.410000E+03	1.197700E-16	1.884186E-17
4.420000E+03	1.211027E-16	1.863938E-17
4.430000E+03	1.224482E-16	1.842894E-17
4.440000E+03	1.238065E-16	1.821039E-17
4.450000E+03	1.251774E-16	1.798359E-17
4.460000E+03	1.265606E-16	1.774841E-17
4.470000E+03	1.279471E-16	1.750353E-17
4.480000E+03	1.293454E-16	1.725005E-17
4.490000E+03	1.307549E-16	1.698784E-17
4.500000E+03	1.321753E-16	1.671680E-17
4.510000E+03	1.335972E-16	1.643571E-17
4.520000E+03	1.350289E-16	1.614562E-17
4.530000E+03	1.364608E-16	1.584540E-17
4.540000E+03	1.379103E-16	1.553712E-17
4.550000E+03	1.393584E-16	1.521863E-17
4.560000E+03	1.408042E-16	1.488998E-17
4.570000E+03	1.422654E-16	1.455315E-17
4.580000E+03	1.437223E-16	1.420623E-17
4.590000E+03	1.451737E-16	1.384935E-17
4.600000E+03	1.466373E-16	1.348444E-17
4.610000E+03	1.480928E-16	1.310987E-17
4.620000E+03	1.495387E-16	1.272592E-17
4.630000E+03	1.509829E-16	1.233373E-17
4.640000E+03	1.524239E-16	1.193366E-17
4.650000E+03	1.538599E-16	1.152616E-17
4.660000E+03	1.552789E-16	1.111106E-17
4.670000E+03	1.566788E-16	1.068916E-17
4.680000E+03	1.580772E-16	1.026270E-17
4.690000E+03	1.594515E-16	9.831431E-18
4.700000E+03	1.607991E-16	9.396744E-18
4.710000E+03	1.621273E-16	8.960912E-18
4.720000E+03	1.634329E-16	8.525921E-18
4.730000E+03	1.647026E-16	8.093707E-18
4.740000E+03	1.659432E-16	7.667832E-18
4.750000E+03	1.671409E-16	7.251514E-18
4.760000E+03	1.683022E-16	6.849733E-18
4.770000E+03	1.694130E-16	6.467493E-18
4.780000E+03	1.704800E-16	6.111671E-18
4.790000E+03	1.714994E-16	5.789724E-18
4.800000E+03	1.724575E-16	5.509640E-18
4.810000E+03	1.733617E-16	5.280562E-18
4.820000E+03	1.741994E-16	5.110654E-18
4.830000E+03	1.749799E-16	5.007431E-18
4.840000E+03	1.756916E-16	4.975399E-18
4.850000E+03	1.763454E-16	5.016452E-18
4.860000E+03	1.769311E-16	5.128359E-18
4.870000E+03	1.774604E-16	5.306387E-18
4.880000E+03	1.779244E-16	5.542988E-18
4.890000E+03	1.783361E-16	5.830168E-18
4.900000E+03	1.786874E-16	6.159126E-18
4.910000E+03	1.789920E-16	6.522285E-18
4.920000E+03	1.792534E-16	6.912607E-18
4.930000E+03	1.794643E-16	7.323602E-18
4.940000E+03	1.796282E-16	7.750101E-18
4.950000E+03	1.797595E-16	8.188286E-18
4.960000E+03	1.798617E-16	8.634669E-18
4.970000E+03	1.799275E-16	9.085851E-18
4.980000E+03	1.799604E-16	9.539409E-18
4.990000E+03	1.799742E-16	9.993937E-18
5.000000E+03	1.799720E-16	1.044786E-17
5.010000E+03	1.799461E-16	1.089926E-17
5.020000E+03	1.798994E-16	1.134700E-17
5.030000E+03	1.798452E-16	1.179083E-17
5.040000E+03	1.797857E-16	1.223007E-17
5.050000E+03	1.797130E-16	1.266340E-17
5.060000E+03	1.796291E-16	1.309029E-17
5.070000E+03	1.795467E-16	1.351109E-17
5.080000E+03	1.794677E-16	1.392550E-17
5.090000E+03	1.793833E-16	1.433248E-17
5.100000E+03	1.792955E-16	1.473179E-17
5.110000E+03	1.792160E-16	1.512410E-17
5.120000E+03	1.791463E-16	1.550933E-17
5.130000E+03	1.790775E-16	1.588650E-17
5.140000E+03	1.790211E-16	1.625645E-17
5.150000E+03	1.789680E-16	1.661823E-17
5.160000E+03	1.789193E-16	1.697179E-17
5.170000E+03	1.788862E-16	1.731807E-17
5.180000E+03	1.788697E-16	1.765713E-17
5.190000E+03	1.788605E-16	1.798797E-17
5.200000E+03	1.788695E-16	1.831165E-17
5.210000E+03	1.788872E-16	1.862716E-17
5.220000E+03	1.789246E-16	1.893560E-17
5.230000E+03	1.789721E-16	1.923593E-17
5.240000E+03	1.790404E-16	1.952929E-17
5.250000E+03	1.791200E-16	1.981462E-17
5.260000E+03	1.792214E-16	2.009309E-17
5.270000E+03	1.793351E-16	2.036361E-17
5.280000E+03	1.794714E-16	2.062738E-17
5.290000E+03	1.796310E-16	2.088446E-17
5.300000E+03	1.797938E-16	2.113253E-17
5.310000E+03	1.799905E-16	2.137518E-17
5.320000E+03	1.802013E-16	2.161008E-17
5.330000E+03	1.804366E-16	2.183847E-17
5.340000E+03	1.806864E-16	2.205917E-17
5.350000E+03	1.809510E-16	2.227218E-17
5.360000E+03	1.812509E-16	2.248004E-17
5.370000E+03	1.815559E-16	2.267900E-17
5.380000E+03	1.818966E-16	2.287287E-17
5.390000E+03	1.822529E-16	2.305915E-17
5.400000E+03	1.826250E-16	2.323782E-17
5.410000E+03	1.830231E-16	2.341017E-17
5.420000E+03	1.834474E-16	2.357624E-17
5.430000E+03	1.838879E-16	2.373471E-17
5.440000E+03	1.843548E-16	2.388688E-17
5.450000E+03	1.848380E-16	2.403143E-17
5.460000E+03	1.853479E-16	2.416967E-17
5.470000E+03	1.858846E-16	2.430161E-17
5.480000E+03	1.864378E-16	2.442586E-17
5.490000E+03	1.870180E-16	2.454377E-17
5.500000E+03	1.876147E-16	2.465394E-17
5.510000E+03	1.882385E-16	2.475771E-17
5.520000E+03	1.888893E-16	2.485505E-17
5.530000E+03	1.895569E-16	2.494454E-17
5.540000E+03	1.902410E-16	2.502615E-17
5.550000E+03	1.909629E-16	2.510260E-17
5.560000E+03	1.917014E-16	2.517107E-17
5.570000E+03	1.924564E-16	2.523151E-17
5.580000E+03	1.932492E-16	2.528666E-17
5.590000E+03	1.940585E-16	2.533368E-17
5.600000E+03	1.948842E-16	2.537251E-17
5.610000E+03	1.957368E-16	2.540448E-17
5.620000E+03	1.966164E-16	2.542955E-17
5.630000E+03	1.975119E-16	2.544625E-17
5.640000E+03	1.984452E-16	2.545732E-17
5.650000E+03	1.993831E-16	2.545849E-17
5.660000E+03	2.003585E-16	2.545391E-17
5.670000E+03	2.013492E-16	2.544071E-17
5.680000E+03	2.023661E-16	2.542022E-17
5.690000E+03	2.033976E-16	2.539097E-17
5.700000E+03	2.044548E-16	2.535432E-17
5.710000E+03	2.055373E-16	2.531019E-17
5.720000E+03	2.066335E-16	2.525713E-17
5.730000E+03	2.077545E-16	2.519647E-17
5.740000E+03	2.088997E-16	2.512817E-17
5.750000E+03	2.100690E-16	2.505215E-17
5.760000E+03	2.112501E-16	2.496700E-17
5.770000E+03	2.124542E-16	2.487405E-17
5.780000E+03	2.136690E-16	2.477189E-17
5.790000E+03	2.149174E-16	2.466322E-17
5.800000E+03	2.161752E-16	2.454529E-17
5.810000E+03	2.174415E-16	2.441809E-17
5.820000E+03	2.187396E-16	2.428431E-17
5.830000E+03	2.200445E-16	2.414125E-17
5.840000E+03	2.213676E-16	2.399027E-17
5.850000E+03	2.227077E-16	2.383137E-17
5.860000E+03	2.240518E-16	2.366329E-17
5.870000E+03	2.254109E-16	2.348738E-17
5.880000E+03	2.267839E-16	2.330370E-17
5.890000E+03	2.281696E-16	2.311232E-17
5.900000E+03	2.295542E-16	2.291206E-17
5.910000E+03	2.309489E-16	2.270431E-17
5.920000E+03	2.323522E-16	2.248920E-17
5.930000E+03	2.337627E-16	2.226686E-17
5.940000E+03	2.351658E-16	2.203625E-17
5.950000E+03	2.365727E-16	2.179880E-17
5.960000E+03	2.379817E-16	2.155471E-17
5.970000E+03	2.393910E-16	2.130422E-17
5.980000E+03	2.407855E-16	2.104642E-17
5.990000E+03	2.421898E-16	2.078395E-17
6.000000E+03	2.435751E-16	2.051481E-17
6.010000E+03	2.449528E-16	2.024049E-17
6.020000E+03	2.463070E-16	1.996026E-17
6.030000E+03	2.476629E-16	1.967674E-17
6.040000E+03	2.489907E-16	1.938816E-17
6.050000E+03	2.503021E-16	1.909608E-17
6.060000E+03	2.515946E-16	1.880096E-17
6.070000E+03	2.528660E-16	1.850333E-17
6.080000E+03	2.540999E-16	1.820269E-17
6.090000E+03	2.553222E-16	1.790164E-17
6.100000E+03	2.565024E-16	1.759874E-17
6.110000E+03	2.576524E-16	1.729562E-17
6.120000E+03	2.587701E-16	1.699289E-17
6.130000E+03	2.598388E-16	1.669026E-17
6.140000E+03	2.608856E-16	1.639027E-17
6.150000E+03	2.618795E-16	1.609174E-17
6.160000E+03	2.628479E-16	1.579719E-17
6.170000E+03	2.637599E-16	1.550554E-17
6.180000E+03	2.646287E-16	1.521842E-17
6.190000E+03	2.654382E-16	1.493574E-17
6.200000E+03	2.662168E-16	1.465994E-17
6.210000E+03	2.669339E-16	1.439016E-17
6.220000E+03	2.676187E-16	1.412882E-17
6.230000E+03	2.682407E-16	1.387515E-17
6.240000E+03	2.688147E-16	1.363082E-17
6.250000E+03	2.693406E-16	1.339674E-17
6.260000E+03	2.698187E-16	1.317384E-17
6.270000E+03	2.702493E-16	1.296314E-17
6.280000E+03	2.706179E-16	1.276497E-17
6.290000E+03	2.709555E-16	1.258191E-17
6.300000E+03	2.712327E-16	1.241373E-17
6.310000E+03	2.714811E-16	1.226309E-17
6.320000E+03	2.716713E-16	1.212990E-17
6.330000E+03	2.718201E-16	1.201621E-17
6.340000E+03	2.719288E-16	1.192336E-17
6.350000E+03	2.719991E-16	1.185270E-17
6.360000E+03	2.720326E-16	1.180552E-17
6.370000E+03	2.720310E-16	1.178304E-17
6.380000E+03	2.719806E-16	1.178566E-17
6.390000E+03	2.719141E-16	1.181564E-17
6.400000E+03	2.718025E-16	1.187231E-17
6.410000E+03	2.716782E-16	1.195746E-17
6.420000E+03	2.715125E-16	1.206989E-17
6.430000E+03	2.713223E-16	1.221008E-17
6.440000E+03	2.711249E-16	1.237823E-17
6.450000E+03	2.708910E-16	1.257212E-17
6.460000E+03	2.706378E-16	1.279131E-17
6.470000E+03	2.703667E-16	1.303437E-17
6.480000E+03	2.700792E-16	1.329971E-17
6.490000E+03	2.697767E-16	1.358554E-17
6.500000E+03	2.694453E-16	1.388922E-17
6.510000E+03	2.691169E-16	1.421037E-17
6.520000E+03	2.687775E-16	1.454628E-17
6.530000E+03	2.684282E-16	1.489504E-17
6.540000E+03	2.680549E-16	1.525391E-17
6.550000E+03	2.676893E-16	1.562278E-17
6.560000E+03	2.673018E-16	1.599818E-17
6.570000E+03	2.669241E-16	1.638027E-17
6.580000E+03	2.665265E-16	1.676564E-17
6.590000E+03	2.661404E-16	1.715474E-17
6.600000E+03	2.657364E-16	1.754427E-17
6.610000E+03	2.653456E-16	1.793496E-17
6.620000E+03	2.649386E-16	1.832360E-17
6.630000E+03	2.645313E-16	1.871011E-17
6.640000E+03	2.641398E-16	1.909458E-17
6.650000E+03	2.637343E-16	1.947392E-17
6.660000E+03	2.633308E-16	1.984835E-17
6.670000E+03	2.629301E-16	2.021708E-17
6.680000E+03	2.625328E-16	2.057941E-17
6.690000E+03	2.621548E-16	2.093587E-17
6.700000E+03	2.617664E-16	2.128347E-17
6.710000E+03	2.613835E-16	2.162283E-17
6.720000E+03	2.610067E-16	2.195345E-17
6.730000E+03	2.606367E-16	2.227487E-17
6.740000E+03	2.602741E-16	2.258665E-17
6.750000E+03	2.599195E-16	2.288842E-17
6.760000E+03	2.595736E-16	2.317981E-17
6.770000E+03	2.592369E-16	2.346051E-17
6.780000E+03	2.589101E-16	2.373021E-17
6.790000E+03	2.585938E-16	2.398866E-17
6.800000E+03	2.582885E-16	2.423560E-17
6.810000E+03	2.579950E-16	2.447082E-17
6.820000E+03	2.577137E-16	2.469412E-17
6.830000E+03	2.574454E-16	2.490531E-17
6.840000E+03	2.571905E-16	2.510423E-17
6.850000E+03	2.569347E-16	2.528925E-17
6.860000E+03	2.567086E-16	2.546319E-17
6.870000E+03	2.564978E-16	2.562445E-17
6.880000E+03	2.563029E-16	2.577294E-17
6.890000E+03	2.561244E-16	2.590854E-17
6.900000E+03	2.559630E-16	2.603117E-17
6.910000E+03	2.558043E-16	2.613923E-17
6.920000E+03	2.556789E-16	2.623568E-17
6.930000E+03	2.555723E-16	2.631896E-17
6.940000E+03	2.554853E-16	2.638899E-17
6.950000E+03	2.554032E-16	2.644417E-17
6.960000E+03	2.553569E-16	2.648756E-17
6.970000E+03	2.553319E-16	2.651756E-17
6.980000E+03	2.553137E-16	2.653255E-17
6.990000E+03	2.553331E-16	2.653564E-17
7.000000E+03	2.553755E-16	2.652522E-17
7.010000E+03	2.554265E-16	2.649969E-17
7.020000E+03	2.555168E-16	2.646214E-17
7.030000E+03	2.556169E-16	2.640940E-17
7.040000E+03	2.557575E-16	2.634458E-17
7.050000E+03	2.559090E-16	2.626451E-17
7.060000E+03	2.561022E-16	2.617227E-17
7.070000E+03	2.563073E-16	2.606470E-17
7.080000E+03	2.565553E-16	2.594489E-17
7.090000E+03	2.568163E-16	2.580967E-17
7.100000E+03	2.571060E-16	2.566058E-17
7.110000E+03	2.574402E-16	2.549907E-17
7.120000E+03	2.577888E-16	2.532205E-17
7.130000E+03	2.581675E-16	2.513099E-17
7.140000E+03	2.585768E-16	2.492586E-17
7.150000E+03	2.590171E-16	2.470659E-17
7.160000E+03	2.594888E-16	2.447312E-17
7.170000E+03	2.599922E-16	2.422541E-17
7.180000E+03	2.605277E-16	2.396340E-17
7.190000E+03	2.610954E-16	2.368704E-17
7.200000E+03	2.616955E-16	2.339628E-17
7.210000E+03	2.623284E-16	2.309108E-17
7.220000E+03	2.629781E-16	2.277003E-17
7.230000E+03	2.636763E-16	2.243586E-17
7.240000E+03	2.643913E-16	2.208585E-17
7.250000E+03	2.651548E-16	2.172268E-17
7.260000E+03	2.659345E-16	2.134374E-17
7.270000E+03	2.667622E-16	2.095168E-17
7.280000E+03	2.676052E-16	2.054405E-17
7.290000E+03	2.684792E-16	2.012225E-17
7.300000E+03	2.693832E-16	1.968649E-17
7.310000E+03	2.703166E-16	1.923700E-17
7.320000E+03	2.712784E-16	1.877411E-17
7.330000E+03	2.722673E-16	1.829824E-17
7.340000E+03	2.732821E-16	1.780993E-17
7.350000E+03	2.743045E-16	1.730877E-17
7.360000E+03	2.753662E-16	1.679774E-17
7.370000E+03	2.764318E-16	1.627578E-17
7.380000E+03	2.775328E-16	1.574618E-17
7.390000E+03	2.786332E-16	1.520854E-17
7.400000E+03	2.797473E-16	1.466572E-17
7.410000E+03	2.808724E-16	1.412003E-17
7.420000E+03	2.820055E-16	1.357427E-17
7.430000E+03	2.831436E-16	1.303179E-17
7.440000E+03	2.842660E-16	1.249590E-17
7.450000E+03	2.854042E-16	1.197299E-17
7.460000E+03	2.865197E-16	1.146734E-17
7.470000E+03	2.876442E-16	1.098713E-17
7.480000E+03	2.887390E-16	1.053881E-17
7.490000E+03	2.898181E-16	1.013190E-17
7.500000E+03	2.908786E-16	9.776079E-18
7.510000E+03	2.918993E-16	9.480930E-18
7.520000E+03	2.929137E-16	9.257666E-18
7.530000E+03	2.939017E-16	9.114752E-18
7.540000E+03	2.948434E-16	9.058779E-18
7.550000E+03	2.957561E-16	9.094661E-18
7.560000E+03	2.966397E-16	9.223389E-18
7.570000E+03	2.974946E-16	9.442555E-18
7.580000E+03	2.983223E-16	9.746807E-18
7.590000E+03	2.991060E-16	1.012802E-17
7.600000E+03	2.998854E-16	1.057872E-17
7.610000E+03	3.006260E-16	1.108851E-17
7.620000E+03	3.013496E-16	1.164913E-17
7.630000E+03	3.020596E-16	1.225233E-17
7.640000E+03	3.027597E-16	1.289069E-17
7.650000E+03	3.034345E-16	1.355684E-17
7.660000E+03	3.041259E-16	1.424680E-17
7.670000E+03	3.047994E-16	1.495400E-17
7.680000E+03	3.054777E-16	1.567519E-17
7.690000E+03	3.061645E-16	1.640690E-17
7.700000E+03	3.068634E-16	1.714618E-17
7.710000E+03	3.075581E-16	1.788943E-17
7.720000E+03	3.082908E-16	1.863677E-17
7.730000E+03	3.090256E-16	1.938412E-17
7.740000E+03	3.097848E-16	2.013111E-17
7.750000E+03	3.105711E-16	2.087647E-17
7.760000E+03	3.113673E-16	2.161774E-17
