#wls	flux	fluxerr
1.600000E+03	2.051691E-17	1.420580E-17
1.640000E+03	2.076814E-17	1.432676E-17
1.680000E+03	2.102945E-17	1.445161E-17
1.720000E+03	2.130504E-17	1.458303E-17
1.760000E+03	2.159170E-17	1.471860E-17
1.800000E+03	2.188607E-17	1.485579E-17
1.840000E+03	2.220025E-17	1.500258E-17
1.880000E+03	2.252320E-17	1.515123E-17
1.920000E+03	2.286337E-17	1.530715E-17
1.960000E+03	2.321746E-17	1.546780E-17
2.000000E+03	2.358611E-17	1.563330E-17
2.040000E+03	2.397417E-17	1.580652E-17
2.080000E+03	2.437403E-17	1.598207E-17
2.120000E+03	2.479921E-17	1.616841E-17
2.160000E+03	2.523773E-17	1.635728E-17
2.200000E+03	2.569913E-17	1.655444E-17
2.240000E+03	2.617996E-17	1.675716E-17
2.280000E+03	2.668115E-17	1.696553E-17
2.320000E+03	2.720837E-17	1.718258E-17
2.360000E+03	2.775810E-17	1.740549E-17
2.400000E+03	2.833630E-17	1.763733E-17
2.440000E+03	2.893445E-17	1.787212E-17
2.480000E+03	2.956358E-17	1.811599E-17
2.520000E+03	3.022526E-17	1.836905E-17
2.560000E+03	3.091586E-17	1.862822E-17
2.600000E+03	3.163677E-17	1.889347E-17
2.640000E+03	3.238948E-17	1.916475E-17
2.680000E+03	3.318114E-17	1.944524E-17
2.720000E+03	3.400801E-17	1.973162E-17
2.760000E+03	3.487179E-17	2.002371E-17
2.800000E+03	3.578029E-17	2.032474E-17
2.840000E+03	3.672965E-17	2.063110E-17
2.880000E+03	3.772813E-17	2.094599E-17
2.920000E+03	3.877181E-17	2.126561E-17
2.960000E+03	3.986282E-17	2.158953E-17
3.000000E+03	4.100341E-17	2.191723E-17
3.010000E+03	4.129657E-17	2.199968E-17
3.020000E+03	4.159302E-17	2.208231E-17
3.030000E+03	4.189973E-17	2.216880E-17
3.040000E+03	4.220289E-17	2.225179E-17
3.050000E+03	4.250945E-17	2.233493E-17
3.060000E+03	4.281944E-17	2.241822E-17
3.070000E+03	4.313290E-17	2.250164E-17
3.080000E+03	4.345705E-17	2.258891E-17
3.090000E+03	4.377762E-17	2.267256E-17
3.100000E+03	4.410178E-17	2.275630E-17
3.110000E+03	4.443690E-17	2.284389E-17
3.120000E+03	4.476841E-17	2.292779E-17
3.130000E+03	4.510363E-17	2.301173E-17
3.140000E+03	4.545007E-17	2.309951E-17
3.150000E+03	4.579289E-17	2.318351E-17
3.160000E+03	4.614711E-17	2.327134E-17
3.170000E+03	4.649769E-17	2.335533E-17
3.180000E+03	4.685987E-17	2.344314E-17
3.190000E+03	4.721838E-17	2.352706E-17
3.200000E+03	4.758868E-17	2.361478E-17
3.210000E+03	4.795529E-17	2.369855E-17
3.220000E+03	4.833390E-17	2.378610E-17
3.230000E+03	4.870878E-17	2.386964E-17
3.240000E+03	4.909586E-17	2.395694E-17
3.250000E+03	4.947920E-17	2.404017E-17
3.260000E+03	4.987493E-17	2.412714E-17
3.270000E+03	5.026690E-17	2.420996E-17
3.280000E+03	5.067146E-17	2.429650E-17
3.290000E+03	5.108054E-17	2.438279E-17
3.300000E+03	5.148581E-17	2.446484E-17
3.310000E+03	5.190399E-17	2.455056E-17
3.320000E+03	5.232682E-17	2.463595E-17
3.330000E+03	5.274580E-17	2.471699E-17
3.340000E+03	5.317801E-17	2.480165E-17
3.350000E+03	5.361501E-17	2.488591E-17
3.360000E+03	5.404810E-17	2.496569E-17
3.370000E+03	5.449476E-17	2.504904E-17
3.380000E+03	5.494634E-17	2.513189E-17
3.390000E+03	5.540290E-17	2.521422E-17
3.400000E+03	5.586447E-17	2.529599E-17
3.410000E+03	5.632204E-17	2.537307E-17
3.420000E+03	5.679373E-17	2.545361E-17
3.430000E+03	5.727058E-17	2.553348E-17
3.440000E+03	5.775264E-17	2.561266E-17
3.450000E+03	5.823994E-17	2.569111E-17
3.460000E+03	5.872312E-17	2.576464E-17
3.470000E+03	5.922099E-17	2.584150E-17
3.480000E+03	5.972425E-17	2.591750E-17
3.490000E+03	6.023294E-17	2.599261E-17
3.500000E+03	6.074711E-17	2.606680E-17
3.510000E+03	6.126681E-17	2.614000E-17
3.520000E+03	6.179206E-17	2.621220E-17
3.530000E+03	6.232293E-17	2.628333E-17
3.540000E+03	6.285945E-17	2.635335E-17
3.550000E+03	6.340167E-17	2.642223E-17
3.560000E+03	6.394962E-17	2.648991E-17
3.570000E+03	6.450336E-17	2.655634E-17
3.580000E+03	6.505257E-17	2.661724E-17
3.590000E+03	6.561791E-17	2.668102E-17
3.600000E+03	6.618916E-17	2.674341E-17
3.610000E+03	6.676634E-17	2.680434E-17
3.620000E+03	6.734951E-17	2.686378E-17
3.630000E+03	6.793870E-17	2.692167E-17
3.640000E+03	6.853394E-17	2.697794E-17
3.650000E+03	6.913528E-17	2.703255E-17
3.660000E+03	6.974276E-17	2.708543E-17
3.670000E+03	7.035639E-17	2.713654E-17
3.680000E+03	7.097623E-17	2.718580E-17
3.690000E+03	7.161359E-17	2.723746E-17
3.700000E+03	7.224601E-17	2.728287E-17
3.710000E+03	7.288473E-17	2.732626E-17
3.720000E+03	7.352979E-17	2.736756E-17
3.730000E+03	7.418119E-17	2.740671E-17
3.740000E+03	7.483899E-17	2.744365E-17
3.750000E+03	7.550319E-17	2.747831E-17
3.760000E+03	7.617383E-17	2.751062E-17
3.770000E+03	7.685094E-17	2.754051E-17
3.780000E+03	7.753453E-17	2.756792E-17
3.790000E+03	7.822462E-17	2.759278E-17
3.800000E+03	7.892124E-17	2.761501E-17
3.810000E+03	7.962441E-17	2.763455E-17
3.820000E+03	8.033413E-17	2.765132E-17
3.830000E+03	8.105044E-17	2.766525E-17
3.840000E+03	8.177334E-17	2.767626E-17
3.850000E+03	8.250284E-17	2.768429E-17
3.860000E+03	8.323895E-17	2.768925E-17
3.870000E+03	8.399475E-17	2.769538E-17
3.880000E+03	8.474423E-17	2.769398E-17
3.890000E+03	8.550034E-17	2.768929E-17
3.900000E+03	8.626310E-17	2.768123E-17
3.910000E+03	8.703251E-17	2.766971E-17
3.920000E+03	8.780856E-17	2.765466E-17
3.930000E+03	8.859125E-17	2.763601E-17
3.940000E+03	8.938058E-17	2.761366E-17
3.950000E+03	9.017654E-17	2.758755E-17
3.960000E+03	9.097913E-17	2.755758E-17
3.970000E+03	9.178834E-17	2.752368E-17
3.980000E+03	9.260415E-17	2.748577E-17
3.990000E+03	9.342655E-17	2.744376E-17
4.000000E+03	9.425553E-17	2.739758E-17
4.010000E+03	9.509107E-17	2.734714E-17
4.020000E+03	9.593314E-17	2.729235E-17
4.030000E+03	9.678173E-17	2.723315E-17
4.040000E+03	9.763681E-17	2.716945E-17
4.050000E+03	9.849836E-17	2.710116E-17
4.060000E+03	9.936634E-17	2.702821E-17
4.070000E+03	1.002407E-16	2.695051E-17
4.080000E+03	1.011215E-16	2.686799E-17
4.090000E+03	1.020086E-16	2.678057E-17
4.100000E+03	1.029020E-16	2.668816E-17
4.110000E+03	1.038017E-16	2.659068E-17
4.120000E+03	1.047076E-16	2.648807E-17
4.130000E+03	1.056196E-16	2.638024E-17
4.140000E+03	1.065216E-16	2.626313E-17
4.150000E+03	1.074457E-16	2.614466E-17
4.160000E+03	1.083759E-16	2.602075E-17
4.170000E+03	1.093121E-16	2.589134E-17
4.180000E+03	1.102542E-16	2.575634E-17
4.190000E+03	1.112021E-16	2.561568E-17
4.200000E+03	1.121559E-16	2.546931E-17
4.210000E+03	1.130982E-16	2.531332E-17
4.220000E+03	1.140633E-16	2.515533E-17
4.230000E+03	1.150340E-16	2.499143E-17
4.240000E+03	1.160102E-16	2.482156E-17
4.250000E+03	1.169918E-16	2.464566E-17
4.260000E+03	1.179611E-16	2.445997E-17
4.270000E+03	1.189534E-16	2.427187E-17
4.280000E+03	1.199509E-16	2.407757E-17
4.290000E+03	1.209536E-16	2.387704E-17
4.300000E+03	1.219430E-16	2.366666E-17
4.310000E+03	1.229556E-16	2.345354E-17
4.320000E+03	1.239731E-16	2.323406E-17
4.330000E+03	1.249767E-16	2.300472E-17
4.340000E+03	1.260036E-16	2.277244E-17
4.350000E+03	1.270160E-16	2.253033E-17
4.360000E+03	1.280519E-16	2.228514E-17
4.370000E+03	1.290921E-16	2.203345E-17
4.380000E+03	1.301172E-16	2.177199E-17
4.390000E+03	1.311658E-16	2.150730E-17
4.400000E+03	1.321986E-16	2.123291E-17
4.410000E+03	1.332550E-16	2.095522E-17
4.420000E+03	1.342951E-16	2.066792E-17
4.430000E+03	1.353587E-16	2.037724E-17
4.440000E+03	1.364055E-16	2.007710E-17
4.450000E+03	1.374554E-16	1.977061E-17
4.460000E+03	1.385288E-16	1.946071E-17
4.470000E+03	1.395845E-16	1.914161E-17
4.480000E+03	1.406637E-16	1.881911E-17
4.490000E+03	1.417245E-16	1.848764E-17
4.500000E+03	1.427875E-16	1.815015E-17
4.510000E+03	1.438526E-16	1.780673E-17
4.520000E+03	1.449409E-16	1.746008E-17
4.530000E+03	1.460096E-16	1.710512E-17
4.540000E+03	1.470796E-16	1.674465E-17
4.550000E+03	1.481509E-16	1.637883E-17
4.560000E+03	1.492451E-16	1.601025E-17
4.570000E+03	1.503183E-16	1.563435E-17
4.580000E+03	1.513919E-16	1.525381E-17
4.590000E+03	1.524658E-16	1.486894E-17
4.600000E+03	1.535397E-16	1.448009E-17
4.610000E+03	1.546135E-16	1.408764E-17
4.620000E+03	1.556868E-16	1.369206E-17
4.630000E+03	1.567594E-16	1.329385E-17
4.640000E+03	1.578312E-16	1.289361E-17
4.650000E+03	1.589019E-16	1.249201E-17
4.660000E+03	1.599713E-16	1.208983E-17
4.670000E+03	1.610392E-16	1.168798E-17
4.680000E+03	1.621055E-16	1.128748E-17
4.690000E+03	1.631700E-16	1.088952E-17
4.700000E+03	1.642326E-16	1.049550E-17
4.710000E+03	1.652690E-16	1.010551E-17
4.720000E+03	1.663275E-16	9.724434E-18
4.730000E+03	1.673838E-16	9.352855E-18
4.740000E+03	1.684381E-16	8.993228E-18
4.750000E+03	1.694655E-16	8.647095E-18
4.760000E+03	1.705155E-16	8.320228E-18
4.770000E+03	1.715636E-16	8.014896E-18
4.780000E+03	1.725845E-16	7.733936E-18
4.790000E+03	1.736287E-16	7.483936E-18
4.800000E+03	1.746457E-16	7.267170E-18
4.810000E+03	1.756862E-16	7.090330E-18
4.820000E+03	1.766992E-16	6.955640E-18
4.830000E+03	1.777359E-16	6.868962E-18
4.840000E+03	1.787443E-16	6.831276E-18
4.850000E+03	1.797763E-16	6.846492E-18
4.860000E+03	1.807792E-16	6.913253E-18
4.870000E+03	1.818053E-16	7.032883E-18
4.880000E+03	1.828016E-16	7.201396E-18
4.890000E+03	1.837947E-16	7.416756E-18
4.900000E+03	1.848114E-16	7.676325E-18
4.910000E+03	1.857984E-16	7.973762E-18
4.920000E+03	1.867826E-16	8.305854E-18
4.930000E+03	1.877639E-16	8.668384E-18
4.940000E+03	1.887427E-16	9.057353E-18
4.950000E+03	1.897464E-16	9.470431E-18
4.960000E+03	1.907203E-16	9.901577E-18
4.970000E+03	1.916919E-16	1.034909E-17
4.980000E+03	1.926615E-16	1.081028E-17
4.990000E+03	1.936290E-16	1.128278E-17
5.000000E+03	1.945947E-16	1.176448E-17
5.010000E+03	1.955587E-16	1.225355E-17
5.020000E+03	1.965213E-16	1.274833E-17
5.030000E+03	1.974825E-16	1.324737E-17
5.040000E+03	1.984139E-16	1.374741E-17
5.050000E+03	1.993729E-16	1.425118E-17
5.060000E+03	2.003311E-16	1.475574E-17
5.070000E+03	2.012886E-16	1.526017E-17
5.080000E+03	2.022456E-16	1.576361E-17
5.090000E+03	2.031731E-16	1.626297E-17
5.100000E+03	2.041296E-16	1.676216E-17
5.110000E+03	2.050860E-16	1.725825E-17
5.120000E+03	2.060129E-16	1.774811E-17
5.130000E+03	2.069696E-16	1.823622E-17
5.140000E+03	2.078967E-16	1.871689E-17
5.150000E+03	2.088540E-16	1.919495E-17
5.160000E+03	2.097817E-16	1.966450E-17
5.170000E+03	2.107400E-16	2.013069E-17
5.180000E+03	2.116686E-16	2.058740E-17
5.190000E+03	2.126281E-16	2.104009E-17
5.200000E+03	2.135578E-16	2.148241E-17
5.210000E+03	2.145187E-16	2.192012E-17
5.220000E+03	2.154495E-16	2.234663E-17
5.230000E+03	2.163807E-16	2.276471E-17
5.240000E+03	2.173125E-16	2.317404E-17
5.250000E+03	2.182760E-16	2.357768E-17
5.260000E+03	2.192088E-16	2.396865E-17
5.270000E+03	2.201420E-16	2.434997E-17
5.280000E+03	2.210754E-16	2.472135E-17
5.290000E+03	2.220091E-16	2.508253E-17
5.300000E+03	2.229430E-16	2.543324E-17
5.310000E+03	2.238768E-16	2.577321E-17
5.320000E+03	2.248106E-16	2.610219E-17
5.330000E+03	2.257443E-16	2.641992E-17
5.340000E+03	2.266776E-16	2.672617E-17
5.350000E+03	2.276105E-16	2.702069E-17
5.360000E+03	2.285428E-16	2.730325E-17
5.370000E+03	2.294743E-16	2.757362E-17
5.380000E+03	2.304050E-16	2.783158E-17
5.390000E+03	2.313346E-16	2.807692E-17
5.400000E+03	2.322299E-16	2.830537E-17
5.410000E+03	2.331568E-16	2.852479E-17
5.420000E+03	2.340820E-16	2.873096E-17
5.430000E+03	2.350055E-16	2.892368E-17
5.440000E+03	2.358933E-16	2.909863E-17
5.450000E+03	2.368125E-16	2.926389E-17
5.460000E+03	2.377292E-16	2.941515E-17
5.470000E+03	2.386093E-16	2.954805E-17
5.480000E+03	2.395204E-16	2.967081E-17
5.490000E+03	2.403941E-16	2.977485E-17
5.500000E+03	2.412987E-16	2.986848E-17
5.510000E+03	2.421652E-16	2.994308E-17
5.520000E+03	2.430622E-16	3.000702E-17
5.530000E+03	2.439204E-16	3.005164E-17
5.540000E+03	2.447741E-16	3.008110E-17
5.550000E+03	2.456578E-16	3.009957E-17
5.560000E+03	2.465017E-16	3.009839E-17
5.570000E+03	2.473402E-16	3.008175E-17
5.580000E+03	2.482083E-16	3.005384E-17
5.590000E+03	2.490353E-16	3.000605E-17
5.600000E+03	2.498561E-16	2.994258E-17
5.610000E+03	2.506705E-16	2.986340E-17
5.620000E+03	2.514780E-16	2.976846E-17
5.630000E+03	2.523143E-16	2.966195E-17
5.640000E+03	2.531075E-16	2.953540E-17
5.650000E+03	2.538930E-16	2.939304E-17
5.660000E+03	2.546705E-16	2.923488E-17
5.670000E+03	2.554398E-16	2.906093E-17
5.680000E+03	2.562004E-16	2.887123E-17
5.690000E+03	2.569521E-16	2.866582E-17
5.700000E+03	2.576946E-16	2.844476E-17
5.710000E+03	2.584275E-16	2.820812E-17
5.720000E+03	2.591506E-16	2.795598E-17
5.730000E+03	2.598266E-16	2.768454E-17
5.740000E+03	2.605288E-16	2.740178E-17
5.750000E+03	2.612202E-16	2.710387E-17
5.760000E+03	2.619005E-16	2.679098E-17
5.770000E+03	2.625692E-16	2.646325E-17
5.780000E+03	2.631889E-16	2.611718E-17
5.790000E+03	2.638335E-16	2.576041E-17
5.800000E+03	2.644657E-16	2.538941E-17
5.810000E+03	2.650476E-16	2.500087E-17
5.820000E+03	2.656538E-16	2.460219E-17
5.830000E+03	2.662466E-16	2.419005E-17
5.840000E+03	2.667879E-16	2.376137E-17
5.850000E+03	2.673528E-16	2.332327E-17
5.860000E+03	2.678654E-16	2.286942E-17
5.870000E+03	2.684012E-16	2.240672E-17
5.880000E+03	2.688839E-16	2.192916E-17
5.890000E+03	2.693895E-16	2.144341E-17
5.900000E+03	2.698413E-16	2.094378E-17
5.910000E+03	2.703155E-16	2.043674E-17
5.920000E+03	2.707354E-16	1.991691E-17
5.930000E+03	2.711389E-16	1.938780E-17
5.940000E+03	2.715643E-16	1.885263E-17
5.950000E+03	2.719347E-16	1.830657E-17
5.960000E+03	2.722881E-16	1.775301E-17
5.970000E+03	2.726631E-16	1.719505E-17
5.980000E+03	2.729825E-16	1.662845E-17
5.990000E+03	2.732847E-16	1.605651E-17
6.000000E+03	2.735699E-16	1.548002E-17
6.010000E+03	2.738766E-16	1.490200E-17
6.020000E+03	2.741277E-16	1.431908E-17
6.030000E+03	2.743619E-16	1.373449E-17
6.040000E+03	2.745795E-16	1.314936E-17
6.050000E+03	2.747810E-16	1.256491E-17
6.060000E+03	2.749665E-16	1.198250E-17
6.070000E+03	2.751369E-16	1.140363E-17
6.080000E+03	2.752926E-16	1.083000E-17
6.090000E+03	2.754344E-16	1.026348E-17
6.100000E+03	2.755635E-16	9.706238E-18
6.110000E+03	2.756808E-16	9.160712E-18
6.120000E+03	2.757878E-16	8.629719E-18
6.130000E+03	2.758860E-16	8.116505E-18
6.140000E+03	2.759773E-16	7.624814E-18
6.150000E+03	2.760637E-16	7.158961E-18
6.160000E+03	2.761479E-16	6.723875E-18
6.170000E+03	2.762325E-16	6.325096E-18
6.180000E+03	2.763209E-16	5.968678E-18
6.190000E+03	2.763775E-16	5.660141E-18
6.200000E+03	2.764848E-16	5.407257E-18
6.210000E+03	2.766082E-16	5.214467E-18
6.220000E+03	2.767527E-16	5.085183E-18
6.230000E+03	2.769181E-16	5.016461E-18
6.240000E+03	2.770606E-16	4.998770E-18
6.250000E+03	2.772541E-16	5.023225E-18
6.260000E+03	2.774557E-16	5.078541E-18
6.270000E+03	2.776226E-16	5.154003E-18
6.280000E+03	2.778304E-16	5.242245E-18
6.290000E+03	2.780373E-16	5.335215E-18
6.300000E+03	2.782017E-16	5.426378E-18
6.310000E+03	2.784002E-16	5.513019E-18
6.320000E+03	2.785526E-16	5.590795E-18
6.330000E+03	2.787363E-16	5.659812E-18
6.340000E+03	2.789106E-16	5.719063E-18
6.350000E+03	2.790353E-16	5.768660E-18
6.360000E+03	2.791883E-16	5.812250E-18
6.370000E+03	2.792902E-16	5.851243E-18
6.380000E+03	2.794196E-16	5.891297E-18
6.390000E+03	2.794972E-16	5.935614E-18
6.400000E+03	2.795622E-16	5.990600E-18
6.410000E+03	2.796544E-16	6.063191E-18
6.420000E+03	2.796948E-16	6.157984E-18
6.430000E+03	2.797627E-16	6.282896E-18
6.440000E+03	2.797794E-16	6.441827E-18
6.450000E+03	2.797847E-16	6.638833E-18
6.460000E+03	2.798182E-16	6.874400E-18
6.470000E+03	2.798006E-16	7.145010E-18
6.480000E+03	2.797715E-16	7.449350E-18
6.490000E+03	2.797707E-16	7.785833E-18
6.500000E+03	2.797192E-16	8.149374E-18
6.510000E+03	2.796569E-16	8.538010E-18
6.520000E+03	2.796237E-16	8.950018E-18
6.530000E+03	2.795408E-16	9.380034E-18
6.540000E+03	2.794482E-16	9.826537E-18
6.550000E+03	2.793464E-16	1.028697E-17
6.560000E+03	2.792357E-16	1.075896E-17
6.570000E+03	2.791563E-16	1.124193E-17
6.580000E+03	2.790294E-16	1.173074E-17
6.590000E+03	2.788951E-16	1.222507E-17
6.600000E+03	2.787538E-16	1.272325E-17
6.610000E+03	2.786060E-16	1.322370E-17
6.620000E+03	2.784522E-16	1.372501E-17
6.630000E+03	2.782928E-16	1.422585E-17
6.640000E+03	2.781283E-16	1.472501E-17
6.650000E+03	2.779590E-16	1.522136E-17
6.660000E+03	2.777854E-16	1.571385E-17
6.670000E+03	2.776080E-16	1.620152E-17
6.680000E+03	2.774270E-16	1.668345E-17
6.690000E+03	2.772430E-16	1.715882E-17
6.700000E+03	2.770563E-16	1.762682E-17
6.710000E+03	2.768673E-16	1.808673E-17
6.720000E+03	2.766763E-16	1.853785E-17
6.730000E+03	2.764837E-16	1.897955E-17
6.740000E+03	2.762898E-16	1.941120E-17
6.750000E+03	2.760951E-16	1.983224E-17
6.760000E+03	2.758998E-16	2.024215E-17
6.770000E+03	2.757042E-16	2.064041E-17
6.780000E+03	2.755088E-16	2.102655E-17
6.790000E+03	2.753137E-16	2.140013E-17
6.800000E+03	2.750802E-16	2.175763E-17
6.810000E+03	2.748868E-16	2.210481E-17
6.820000E+03	2.746948E-16	2.243825E-17
6.830000E+03	2.745043E-16	2.275760E-17
6.840000E+03	2.743158E-16	2.306253E-17
6.850000E+03	2.740904E-16	2.334943E-17
6.860000E+03	2.739064E-16	2.362460E-17
6.870000E+03	2.737252E-16	2.388450E-17
6.880000E+03	2.735470E-16	2.412887E-17
6.890000E+03	2.733331E-16	2.435402E-17
6.900000E+03	2.731617E-16	2.456661E-17
6.910000E+03	2.729940E-16	2.476302E-17
6.920000E+03	2.727915E-16	2.493950E-17
6.930000E+03	2.726322E-16	2.510295E-17
6.940000E+03	2.724775E-16	2.524968E-17
6.950000E+03	2.722887E-16	2.537592E-17
6.960000E+03	2.721438E-16	2.548874E-17
6.970000E+03	2.719653E-16	2.558076E-17
6.980000E+03	2.718312E-16	2.565916E-17
6.990000E+03	2.717029E-16	2.572019E-17
7.000000E+03	2.715418E-16	2.576007E-17
7.010000E+03	2.714258E-16	2.578605E-17
7.020000E+03	2.712774E-16	2.579071E-17
7.030000E+03	2.711746E-16	2.578134E-17
7.040000E+03	2.710399E-16	2.575051E-17
7.050000E+03	2.709512E-16	2.570553E-17
7.060000E+03	2.708312E-16	2.563901E-17
7.070000E+03	2.707575E-16	2.555824E-17
7.080000E+03	2.706529E-16	2.545587E-17
7.090000E+03	2.705952E-16	2.533918E-17
7.100000E+03	2.705070E-16	2.520089E-17
7.110000E+03	2.704273E-16	2.504464E-17
7.120000E+03	2.703952E-16	2.487398E-17
7.130000E+03	2.703332E-16	2.468178E-17
7.140000E+03	2.703192E-16	2.447515E-17
7.150000E+03	2.702758E-16	2.424706E-17
7.160000E+03	2.702421E-16	2.400108E-17
7.170000E+03	2.702569E-16	2.374066E-17
7.180000E+03	2.702431E-16	2.345900E-17
7.190000E+03	2.702395E-16	2.315958E-17
7.200000E+03	2.702852E-16	2.284575E-17
7.210000E+03	2.703029E-16	2.251099E-17
7.220000E+03	2.703315E-16	2.215870E-17
7.230000E+03	2.703714E-16	2.178896E-17
7.240000E+03	2.704616E-16	2.140498E-17
7.250000E+03	2.705246E-16	2.100066E-17
7.260000E+03	2.705997E-16	2.057928E-17
7.270000E+03	2.706870E-16	2.014098E-17
7.280000E+03	2.707869E-16	1.968596E-17
7.290000E+03	2.709386E-16	1.921717E-17
7.300000E+03	2.710646E-16	1.872926E-17
7.310000E+03	2.712043E-16	1.822532E-17
7.320000E+03	2.713580E-16	1.770567E-17
7.330000E+03	2.715261E-16	1.717065E-17
7.340000E+03	2.717091E-16	1.662069E-17
7.350000E+03	2.719075E-16	1.605627E-17
7.360000E+03	2.721218E-16	1.547795E-17
7.370000E+03	2.723527E-16	1.488644E-17
7.380000E+03	2.726007E-16	1.428253E-17
7.390000E+03	2.728666E-16	1.366720E-17
7.400000E+03	2.731510E-16	1.304167E-17
7.410000E+03	2.734548E-16	1.240740E-17
7.420000E+03	2.737786E-16	1.176623E-17
7.430000E+03	2.741234E-16	1.112045E-17
7.440000E+03	2.744899E-16	1.047298E-17
7.450000E+03	2.748789E-16	9.827582E-18
7.460000E+03	2.752912E-16	9.189109E-18
7.470000E+03	2.757273E-16	8.563914E-18
7.480000E+03	2.761878E-16	7.960341E-18
7.490000E+03	2.766730E-16	7.389347E-18
7.500000E+03	2.771827E-16	6.865178E-18
7.510000E+03	2.777168E-16	6.405883E-18
7.520000E+03	2.782341E-16	6.032334E-18
7.530000E+03	2.788139E-16	5.770253E-18
7.540000E+03	2.794141E-16	5.641268E-18
7.550000E+03	2.800324E-16	5.661140E-18
7.560000E+03	2.806690E-16	5.831023E-18
7.570000E+03	2.812852E-16	6.136801E-18
7.580000E+03	2.819643E-16	6.559860E-18
7.590000E+03	2.826668E-16	7.077129E-18
7.600000E+03	2.833934E-16	7.668068E-18
7.610000E+03	2.841031E-16	8.314212E-18
7.620000E+03	2.848782E-16	9.004111E-18
7.630000E+03	2.856772E-16	9.725958E-18
7.640000E+03	2.864581E-16	1.047000E-17
7.650000E+03	2.873030E-16	1.123282E-17
7.660000E+03	2.881698E-16	1.200809E-17
7.670000E+03	2.890155E-16	1.279008E-17
7.680000E+03	2.899231E-16	1.357930E-17
7.690000E+03	2.908073E-16	1.436944E-17
7.700000E+03	2.917518E-16	1.516252E-17
7.710000E+03	2.927134E-16	1.595485E-17
7.720000E+03	2.936484E-16	1.674255E-17
7.730000E+03	2.946413E-16	1.752912E-17
7.740000E+03	2.956055E-16	1.830849E-17
7.750000E+03	2.966263E-16	1.908491E-17
7.760000E+03	2.976164E-16	1.985204E-17
