#wls	flux	fluxerr
1.600000E+03	2.030548E-17	1.410532E-17
1.640000E+03	2.055705E-17	1.422855E-17
1.680000E+03	2.082230E-17	1.435822E-17
1.720000E+03	2.109431E-17	1.448934E-17
1.760000E+03	2.138097E-17	1.462714E-17
1.800000E+03	2.167907E-17	1.476918E-17
1.840000E+03	2.199300E-17	1.491820E-17
1.880000E+03	2.231555E-17	1.506904E-17
1.920000E+03	2.265513E-17	1.522710E-17
1.960000E+03	2.300435E-17	1.538714E-17
2.000000E+03	2.337189E-17	1.555465E-17
2.040000E+03	2.375441E-17	1.572705E-17
2.080000E+03	2.415681E-17	1.590722E-17
2.120000E+03	2.457138E-17	1.608968E-17
2.160000E+03	2.500744E-17	1.628015E-17
2.200000E+03	2.546151E-17	1.647590E-17
2.240000E+03	2.593443E-17	1.667700E-17
2.280000E+03	2.643169E-17	1.688648E-17
2.320000E+03	2.694502E-17	1.709851E-17
2.360000E+03	2.748473E-17	1.731907E-17
2.400000E+03	2.804719E-17	1.754524E-17
2.440000E+03	2.863346E-17	1.777704E-17
2.480000E+03	2.924974E-17	1.801758E-17
2.520000E+03	2.988711E-17	1.826063E-17
2.560000E+03	3.055707E-17	1.851243E-17
2.600000E+03	3.125582E-17	1.876979E-17
2.640000E+03	3.199023E-17	1.903590E-17
2.680000E+03	3.275077E-17	1.930409E-17
2.720000E+03	3.355008E-17	1.958082E-17
2.760000E+03	3.438420E-17	1.986258E-17
2.800000E+03	3.525472E-17	2.014914E-17
2.840000E+03	3.616333E-17	2.044018E-17
2.880000E+03	3.711812E-17	2.073890E-17
2.920000E+03	3.811486E-17	2.104143E-17
2.960000E+03	3.915548E-17	2.134727E-17
3.000000E+03	4.024194E-17	2.165589E-17
3.010000E+03	4.052267E-17	2.173432E-17
3.020000E+03	4.079953E-17	2.180918E-17
3.030000E+03	4.108635E-17	2.188785E-17
3.040000E+03	4.137628E-17	2.196663E-17
3.050000E+03	4.166936E-17	2.204549E-17
3.060000E+03	4.196562E-17	2.212444E-17
3.070000E+03	4.226510E-17	2.220346E-17
3.080000E+03	4.256783E-17	2.228253E-17
3.090000E+03	4.286659E-17	2.235786E-17
3.100000E+03	4.317587E-17	2.243700E-17
3.110000E+03	4.348851E-17	2.251614E-17
3.120000E+03	4.380454E-17	2.259529E-17
3.130000E+03	4.412400E-17	2.267441E-17
3.140000E+03	4.444692E-17	2.275351E-17
3.150000E+03	4.477334E-17	2.283256E-17
3.160000E+03	4.510330E-17	2.291154E-17
3.170000E+03	4.543682E-17	2.299044E-17
3.180000E+03	4.577396E-17	2.306925E-17
3.190000E+03	4.611474E-17	2.314793E-17
3.200000E+03	4.645921E-17	2.322648E-17
3.210000E+03	4.680740E-17	2.330488E-17
3.220000E+03	4.715935E-17	2.338310E-17
3.230000E+03	4.751510E-17	2.346113E-17
3.240000E+03	4.787468E-17	2.353894E-17
3.250000E+03	4.823813E-17	2.361651E-17
3.260000E+03	4.860550E-17	2.369383E-17
3.270000E+03	4.897683E-17	2.377087E-17
3.280000E+03	4.935214E-17	2.384760E-17
3.290000E+03	4.973149E-17	2.392401E-17
3.300000E+03	5.012329E-17	2.400409E-17
3.310000E+03	5.051088E-17	2.407978E-17
3.320000E+03	5.090261E-17	2.415508E-17
3.330000E+03	5.129853E-17	2.422994E-17
3.340000E+03	5.169869E-17	2.430436E-17
3.350000E+03	5.210311E-17	2.437829E-17
3.360000E+03	5.251184E-17	2.445172E-17
3.370000E+03	5.292492E-17	2.452460E-17
3.380000E+03	5.335129E-17	2.460103E-17
3.390000E+03	5.377326E-17	2.467277E-17
3.400000E+03	5.419971E-17	2.474388E-17
3.410000E+03	5.463066E-17	2.481434E-17
3.420000E+03	5.506617E-17	2.488410E-17
3.430000E+03	5.551551E-17	2.495730E-17
3.440000E+03	5.596032E-17	2.502560E-17
3.450000E+03	5.640981E-17	2.509311E-17
3.460000E+03	5.686402E-17	2.515980E-17
3.470000E+03	5.732299E-17	2.522563E-17
3.480000E+03	5.779634E-17	2.529476E-17
3.490000E+03	5.826502E-17	2.535876E-17
3.500000E+03	5.873859E-17	2.542180E-17
3.510000E+03	5.921708E-17	2.548383E-17
3.520000E+03	5.970053E-17	2.554481E-17
3.530000E+03	6.019895E-17	2.560894E-17
3.540000E+03	6.069254E-17	2.566772E-17
3.550000E+03	6.119121E-17	2.572532E-17
3.560000E+03	6.169502E-17	2.578171E-17
3.570000E+03	6.221426E-17	2.584110E-17
3.580000E+03	6.272853E-17	2.589494E-17
3.590000E+03	6.324805E-17	2.594743E-17
3.600000E+03	6.378337E-17	2.600282E-17
3.610000E+03	6.431360E-17	2.605249E-17
3.620000E+03	6.484920E-17	2.610068E-17
3.630000E+03	6.539021E-17	2.614733E-17
3.640000E+03	6.594753E-17	2.619671E-17
3.650000E+03	6.649958E-17	2.624016E-17
3.660000E+03	6.705716E-17	2.628192E-17
3.670000E+03	6.763142E-17	2.632627E-17
3.680000E+03	6.820028E-17	2.636452E-17
3.690000E+03	6.877480E-17	2.640094E-17
3.700000E+03	6.935500E-17	2.643545E-17
3.710000E+03	6.995240E-17	2.647237E-17
3.720000E+03	7.054420E-17	2.650294E-17
3.730000E+03	7.114180E-17	2.653146E-17
3.740000E+03	7.175699E-17	2.656220E-17
3.750000E+03	7.236643E-17	2.658644E-17
3.760000E+03	7.298179E-17	2.660844E-17
3.770000E+03	7.361513E-17	2.663250E-17
3.780000E+03	7.424254E-17	2.664986E-17
3.790000E+03	7.487600E-17	2.666482E-17
3.800000E+03	7.551552E-17	2.667730E-17
3.810000E+03	7.617358E-17	2.669160E-17
3.820000E+03	7.682546E-17	2.669895E-17
3.830000E+03	7.748353E-17	2.670364E-17
3.840000E+03	7.816055E-17	2.670995E-17
3.850000E+03	7.883120E-17	2.670913E-17
3.860000E+03	7.950815E-17	2.670545E-17
3.870000E+03	8.020446E-17	2.670319E-17
3.880000E+03	8.089421E-17	2.669361E-17
3.890000E+03	8.159036E-17	2.668097E-17
3.900000E+03	8.229296E-17	2.666521E-17
3.910000E+03	8.301548E-17	2.665057E-17
3.920000E+03	8.373117E-17	2.662836E-17
3.930000E+03	8.445340E-17	2.660282E-17
3.940000E+03	8.519600E-17	2.657818E-17
3.950000E+03	8.593154E-17	2.654576E-17
3.960000E+03	8.667373E-17	2.650981E-17
3.970000E+03	8.742261E-17	2.647024E-17
3.980000E+03	8.819245E-17	2.643127E-17
3.990000E+03	8.895492E-17	2.638426E-17
4.000000E+03	8.972419E-17	2.633343E-17
4.010000E+03	9.050029E-17	2.627870E-17
4.020000E+03	9.129797E-17	2.622423E-17
4.030000E+03	9.208796E-17	2.616147E-17
4.040000E+03	9.288489E-17	2.609460E-17
4.050000E+03	9.368879E-17	2.602354E-17
4.060000E+03	9.451491E-17	2.595240E-17
4.070000E+03	9.533300E-17	2.587273E-17
4.080000E+03	9.615818E-17	2.578865E-17
4.090000E+03	9.699048E-17	2.570008E-17
4.100000E+03	9.782996E-17	2.560696E-17
4.110000E+03	9.869246E-17	2.551331E-17
4.120000E+03	9.954652E-17	2.541084E-17
4.130000E+03	1.004079E-16	2.530359E-17
4.140000E+03	1.012765E-16	2.519150E-17
4.150000E+03	1.021525E-16	2.507448E-17
4.160000E+03	1.030360E-16	2.495247E-17
4.170000E+03	1.039435E-16	2.482937E-17
4.180000E+03	1.048420E-16	2.469713E-17
4.190000E+03	1.057481E-16	2.455968E-17
4.200000E+03	1.066618E-16	2.441695E-17
4.210000E+03	1.075830E-16	2.426887E-17
4.220000E+03	1.085120E-16	2.411536E-17
4.230000E+03	1.094487E-16	2.395637E-17
4.240000E+03	1.103932E-16	2.379182E-17
4.250000E+03	1.113455E-16	2.362164E-17
4.260000E+03	1.123235E-16	2.344950E-17
4.270000E+03	1.132918E-16	2.326783E-17
4.280000E+03	1.142680E-16	2.308034E-17
4.290000E+03	1.152523E-16	2.288696E-17
4.300000E+03	1.162446E-16	2.268762E-17
4.310000E+03	1.172451E-16	2.248227E-17
4.320000E+03	1.182537E-16	2.227084E-17
4.330000E+03	1.192706E-16	2.205328E-17
4.340000E+03	1.202958E-16	2.182952E-17
4.350000E+03	1.213294E-16	2.159952E-17
4.360000E+03	1.223714E-16	2.136322E-17
4.370000E+03	1.234218E-16	2.112056E-17
4.380000E+03	1.244807E-16	2.087150E-17
4.390000E+03	1.255482E-16	2.061598E-17
4.400000E+03	1.266042E-16	2.035076E-17
4.410000E+03	1.276888E-16	2.008226E-17
4.420000E+03	1.287821E-16	1.980720E-17
4.430000E+03	1.298841E-16	1.952552E-17
4.440000E+03	1.309949E-16	1.923721E-17
4.450000E+03	1.321145E-16	1.894225E-17
4.460000E+03	1.332429E-16	1.864060E-17
4.470000E+03	1.343802E-16	1.833226E-17
4.480000E+03	1.355050E-16	1.801438E-17
4.490000E+03	1.366598E-16	1.769269E-17
4.500000E+03	1.378236E-16	1.736432E-17
4.510000E+03	1.389961E-16	1.702927E-17
4.520000E+03	1.401775E-16	1.668759E-17
4.530000E+03	1.413454E-16	1.633674E-17
4.540000E+03	1.425440E-16	1.598198E-17
4.550000E+03	1.437512E-16	1.562077E-17
4.560000E+03	1.449442E-16	1.525079E-17
4.570000E+03	1.461681E-16	1.487703E-17
4.580000E+03	1.474002E-16	1.449716E-17
4.590000E+03	1.486169E-16	1.410917E-17
4.600000E+03	1.498645E-16	1.371774E-17
4.610000E+03	1.511196E-16	1.332087E-17
4.620000E+03	1.523579E-16	1.291685E-17
4.630000E+03	1.536265E-16	1.251015E-17
4.640000E+03	1.549014E-16	1.209914E-17
4.650000E+03	1.561575E-16	1.168254E-17
4.660000E+03	1.574430E-16	1.126471E-17
4.670000E+03	1.587080E-16	1.084283E-17
4.680000E+03	1.600012E-16	1.042131E-17
4.690000E+03	1.612719E-16	9.997942E-18
4.700000E+03	1.625693E-16	9.577278E-18
4.710000E+03	1.638416E-16	9.157907E-18
4.720000E+03	1.651387E-16	8.744744E-18
4.730000E+03	1.664076E-16	8.337402E-18
4.740000E+03	1.676988E-16	7.941454E-18
4.750000E+03	1.689585E-16	7.557860E-18
4.760000E+03	1.702110E-16	7.192094E-18
4.770000E+03	1.714812E-16	6.850153E-18
4.780000E+03	1.727142E-16	6.535575E-18
4.790000E+03	1.739347E-16	6.255939E-18
4.800000E+03	1.751682E-16	6.019204E-18
4.810000E+03	1.763588E-16	5.830694E-18
4.820000E+03	1.775320E-16	5.698251E-18
4.830000E+03	1.787141E-16	5.628551E-18
4.840000E+03	1.798485E-16	5.623843E-18
4.850000E+03	1.809617E-16	5.686638E-18
4.860000E+03	1.820530E-16	5.815970E-18
4.870000E+03	1.831505E-16	6.009410E-18
4.880000E+03	1.841975E-16	6.259926E-18
4.890000E+03	1.852228E-16	6.562087E-18
4.900000E+03	1.862273E-16	6.909127E-18
4.910000E+03	1.872121E-16	7.294399E-18
4.920000E+03	1.881785E-16	7.711721E-18
4.930000E+03	1.891277E-16	8.155561E-18
4.940000E+03	1.900612E-16	8.621083E-18
4.950000E+03	1.910098E-16	9.105537E-18
4.960000E+03	1.919158E-16	9.602634E-18
4.970000E+03	1.928098E-16	1.011069E-17
4.980000E+03	1.936930E-16	1.062716E-17
4.990000E+03	1.945665E-16	1.114986E-17
5.000000E+03	1.954313E-16	1.167694E-17
5.010000E+03	1.962884E-16	1.220682E-17
5.020000E+03	1.971082E-16	1.273614E-17
5.030000E+03	1.979524E-16	1.326760E-17
5.040000E+03	1.987914E-16	1.379825E-17
5.050000E+03	1.996258E-16	1.432720E-17
5.060000E+03	2.004565E-16	1.485364E-17
5.070000E+03	2.012840E-16	1.537686E-17
5.080000E+03	2.021089E-16	1.589622E-17
5.090000E+03	2.029005E-16	1.640861E-17
5.100000E+03	2.037216E-16	1.691849E-17
5.110000E+03	2.045415E-16	1.742294E-17
5.120000E+03	2.053607E-16	1.792151E-17
5.130000E+03	2.061477E-16	1.841095E-17
5.140000E+03	2.069664E-16	1.889650E-17
5.150000E+03	2.077853E-16	1.937504E-17
5.160000E+03	2.086047E-16	1.984623E-17
5.170000E+03	2.093927E-16	2.030663E-17
5.180000E+03	2.102138E-16	2.076214E-17
5.190000E+03	2.110037E-16	2.120614E-17
5.200000E+03	2.118273E-16	2.164483E-17
5.210000E+03	2.126525E-16	2.207476E-17
5.220000E+03	2.134465E-16	2.249220E-17
5.230000E+03	2.142750E-16	2.290378E-17
5.240000E+03	2.150724E-16	2.330229E-17
5.250000E+03	2.159046E-16	2.369459E-17
5.260000E+03	2.167057E-16	2.407325E-17
5.270000E+03	2.175419E-16	2.444540E-17
5.280000E+03	2.183468E-16	2.480336E-17
5.290000E+03	2.191535E-16	2.515065E-17
5.300000E+03	2.199959E-16	2.549096E-17
5.310000E+03	2.208066E-16	2.581633E-17
5.320000E+03	2.216532E-16	2.613445E-17
5.330000E+03	2.224677E-16	2.643716E-17
5.340000E+03	2.232841E-16	2.672822E-17
5.350000E+03	2.241366E-16	2.701161E-17
5.360000E+03	2.249565E-16	2.727892E-17
5.370000E+03	2.257781E-16	2.753405E-17
5.380000E+03	2.266013E-16	2.777685E-17
5.390000E+03	2.274607E-16	2.801144E-17
5.400000E+03	2.282869E-16	2.822912E-17
5.410000E+03	2.291143E-16	2.843396E-17
5.420000E+03	2.299429E-16	2.862584E-17
5.430000E+03	2.307725E-16	2.880458E-17
5.440000E+03	2.316386E-16	2.897448E-17
5.450000E+03	2.324701E-16	2.912655E-17
5.460000E+03	2.333023E-16	2.926507E-17
5.470000E+03	2.341350E-16	2.938989E-17
5.480000E+03	2.349681E-16	2.950088E-17
5.490000E+03	2.358014E-16	2.959793E-17
5.500000E+03	2.366348E-16	2.968091E-17
5.510000E+03	2.374681E-16	2.974970E-17
5.520000E+03	2.383012E-16	2.980420E-17
5.530000E+03	2.391339E-16	2.984430E-17
5.540000E+03	2.399659E-16	2.986991E-17
5.550000E+03	2.407972E-16	2.988093E-17
5.560000E+03	2.416275E-16	2.987728E-17
5.570000E+03	2.424567E-16	2.985887E-17
5.580000E+03	2.432845E-16	2.982565E-17
5.590000E+03	2.440736E-16	2.977299E-17
5.600000E+03	2.448980E-16	2.970994E-17
5.610000E+03	2.457206E-16	2.963190E-17
5.620000E+03	2.465409E-16	2.953882E-17
5.630000E+03	2.473590E-16	2.943068E-17
5.640000E+03	2.481744E-16	2.930745E-17
5.650000E+03	2.489492E-16	2.916466E-17
5.660000E+03	2.497588E-16	2.901124E-17
5.670000E+03	2.505651E-16	2.884271E-17
5.680000E+03	2.513297E-16	2.865472E-17
5.690000E+03	2.521289E-16	2.845606E-17
5.700000E+03	2.529241E-16	2.824238E-17
5.710000E+03	2.536766E-16	2.800944E-17
5.720000E+03	2.544632E-16	2.776588E-17
5.730000E+03	2.552452E-16	2.750747E-17
5.740000E+03	2.559834E-16	2.723014E-17
5.750000E+03	2.567554E-16	2.694233E-17
5.760000E+03	2.575220E-16	2.663995E-17
5.770000E+03	2.582437E-16	2.631912E-17
5.780000E+03	2.589988E-16	2.598804E-17
5.790000E+03	2.597081E-16	2.563890E-17
5.800000E+03	2.604506E-16	2.527974E-17
5.810000E+03	2.611466E-16	2.490297E-17
5.820000E+03	2.618754E-16	2.451646E-17
5.830000E+03	2.625569E-16	2.411289E-17
5.840000E+03	2.632709E-16	2.369990E-17
5.850000E+03	2.639369E-16	2.327047E-17
5.860000E+03	2.645946E-16	2.282856E-17
5.870000E+03	2.652841E-16	2.237787E-17
5.880000E+03	2.659245E-16	2.191185E-17
5.890000E+03	2.665962E-16	2.143756E-17
5.900000E+03	2.672179E-16	2.094880E-17
5.910000E+03	2.678297E-16	2.044930E-17
5.920000E+03	2.684722E-16	1.994251E-17
5.930000E+03	2.690633E-16	1.942274E-17
5.940000E+03	2.696435E-16	1.889361E-17
5.950000E+03	2.702123E-16	1.835565E-17
5.960000E+03	2.708106E-16	1.781212E-17
5.970000E+03	2.713555E-16	1.725815E-17
5.980000E+03	2.718878E-16	1.669720E-17
5.990000E+03	2.724070E-16	1.612997E-17
6.000000E+03	2.729540E-16	1.555963E-17
6.010000E+03	2.734454E-16	1.498220E-17
6.020000E+03	2.739220E-16	1.440107E-17
6.030000E+03	2.743831E-16	1.381727E-17
6.040000E+03	2.748281E-16	1.323193E-17
6.050000E+03	2.752563E-16	1.264632E-17
6.060000E+03	2.757087E-16	1.206369E-17
6.070000E+03	2.761006E-16	1.148184E-17
6.080000E+03	2.764729E-16	1.090452E-17
6.090000E+03	2.768246E-16	1.033375E-17
6.100000E+03	2.771544E-16	9.771878E-18
6.110000E+03	2.774610E-16	9.221597E-18
6.120000E+03	2.777430E-16	8.686019E-18
6.130000E+03	2.779989E-16	8.168751E-18
6.140000E+03	2.782269E-16	7.673956E-18
6.150000E+03	2.784252E-16	7.206415E-18
6.160000E+03	2.785919E-16	6.771529E-18
6.170000E+03	2.787250E-16	6.375246E-18
6.180000E+03	2.788227E-16	6.023828E-18
6.190000E+03	2.788831E-16	5.723396E-18
6.200000E+03	2.789047E-16	5.479193E-18
6.210000E+03	2.788866E-16	5.294601E-18
6.220000E+03	2.787861E-16	5.169363E-18
6.230000E+03	2.786888E-16	5.102134E-18
6.240000E+03	2.785539E-16	5.085895E-18
6.250000E+03	2.783836E-16	5.112077E-18
6.260000E+03	2.781809E-16	5.171015E-18
6.270000E+03	2.779488E-16	5.253122E-18
6.280000E+03	2.776906E-16	5.349713E-18
6.290000E+03	2.773674E-16	5.452644E-18
6.300000E+03	2.770668E-16	5.557792E-18
6.310000E+03	2.767497E-16	5.660131E-18
6.320000E+03	2.764191E-16	5.756914E-18
6.330000E+03	2.760357E-16	5.845845E-18
6.340000E+03	2.756864E-16	5.928494E-18
6.350000E+03	2.753317E-16	6.004876E-18
6.360000E+03	2.749740E-16	6.076850E-18
6.370000E+03	2.745738E-16	6.146193E-18
6.380000E+03	2.742169E-16	6.218193E-18
6.390000E+03	2.738633E-16	6.295921E-18
6.400000E+03	2.734734E-16	6.382764E-18
6.410000E+03	2.731320E-16	6.485144E-18
6.420000E+03	2.727989E-16	6.606453E-18
6.430000E+03	2.724338E-16	6.749576E-18
6.440000E+03	2.721207E-16	6.919733E-18
6.450000E+03	2.718190E-16	7.118174E-18
6.460000E+03	2.714877E-16	7.345003E-18
6.470000E+03	2.712101E-16	7.602647E-18
6.480000E+03	2.709036E-16	7.888183E-18
6.490000E+03	2.706508E-16	8.202646E-18
6.500000E+03	2.703692E-16	8.541763E-18
6.510000E+03	2.701408E-16	8.905941E-18
6.520000E+03	2.699243E-16	9.291618E-18
6.530000E+03	2.696782E-16	9.694934E-18
6.540000E+03	2.694843E-16	1.011641E-17
6.550000E+03	2.692601E-16	1.055075E-17
6.560000E+03	2.690872E-16	1.099889E-17
6.570000E+03	2.688834E-16	1.145551E-17
6.580000E+03	2.687301E-16	1.192209E-17
6.590000E+03	2.685451E-16	1.239330E-17
6.600000E+03	2.683691E-16	1.286922E-17
6.610000E+03	2.682424E-16	1.335035E-17
6.620000E+03	2.680831E-16	1.383129E-17
6.630000E+03	2.679727E-16	1.431488E-17
6.640000E+03	2.678291E-16	1.479562E-17
6.650000E+03	2.677337E-16	1.527683E-17
6.660000E+03	2.676048E-16	1.575290E-17
6.670000E+03	2.674828E-16	1.622511E-17
6.680000E+03	2.674085E-16	1.669511E-17
6.690000E+03	2.673000E-16	1.715707E-17
6.700000E+03	2.671980E-16	1.761266E-17
6.710000E+03	2.671431E-16	1.806392E-17
6.720000E+03	2.670537E-16	1.850473E-17
6.730000E+03	2.669704E-16	1.893712E-17
6.740000E+03	2.669339E-16	1.936346E-17
6.750000E+03	2.668626E-16	1.977732E-17
6.760000E+03	2.667971E-16	2.018107E-17
6.770000E+03	2.667375E-16	2.057420E-17
6.780000E+03	2.667243E-16	2.095943E-17
6.790000E+03	2.666761E-16	2.132997E-17
6.800000E+03	2.666336E-16	2.168853E-17
6.810000E+03	2.665968E-16	2.203471E-17
6.820000E+03	2.666064E-16	2.237153E-17
6.830000E+03	2.665808E-16	2.269185E-17
6.840000E+03	2.665609E-16	2.299869E-17
6.850000E+03	2.665466E-16	2.329171E-17
6.860000E+03	2.665380E-16	2.357060E-17
6.870000E+03	2.665757E-16	2.383870E-17
6.880000E+03	2.665784E-16	2.408849E-17
6.890000E+03	2.665867E-16	2.432329E-17
6.900000E+03	2.666007E-16	2.454284E-17
6.910000E+03	2.666204E-16	2.474690E-17
6.920000E+03	2.666458E-16	2.493523E-17
6.930000E+03	2.666770E-16	2.510761E-17
6.940000E+03	2.667548E-16	2.526770E-17
6.950000E+03	2.667976E-16	2.540757E-17
6.960000E+03	2.668461E-16	2.553089E-17
6.970000E+03	2.669005E-16	2.563746E-17
6.980000E+03	2.669608E-16	2.572711E-17
6.990000E+03	2.670270E-16	2.579968E-17
7.000000E+03	2.670990E-16	2.585500E-17
7.010000E+03	2.671770E-16	2.589294E-17
7.020000E+03	2.672609E-16	2.591334E-17
7.030000E+03	2.673507E-16	2.591607E-17
7.040000E+03	2.674465E-16	2.590101E-17
7.050000E+03	2.675483E-16	2.586804E-17
7.060000E+03	2.676560E-16	2.581705E-17
7.070000E+03	2.677697E-16	2.574794E-17
7.080000E+03	2.678893E-16	2.566060E-17
7.090000E+03	2.680149E-16	2.555495E-17
7.100000E+03	2.681464E-16	2.543091E-17
7.110000E+03	2.682839E-16	2.528840E-17
7.120000E+03	2.684273E-16	2.512736E-17
7.130000E+03	2.685766E-16	2.494773E-17
7.140000E+03	2.686905E-16	2.474567E-17
7.150000E+03	2.688515E-16	2.452875E-17
7.160000E+03	2.690183E-16	2.429313E-17
7.170000E+03	2.691909E-16	2.403877E-17
7.180000E+03	2.693692E-16	2.376567E-17
7.190000E+03	2.695533E-16	2.347382E-17
7.200000E+03	2.697430E-16	2.316323E-17
7.210000E+03	2.699384E-16	2.283393E-17
7.220000E+03	2.700979E-16	2.248249E-17
7.230000E+03	2.703044E-16	2.211594E-17
7.240000E+03	2.705165E-16	2.173083E-17
7.250000E+03	2.707340E-16	2.132725E-17
7.260000E+03	2.709571E-16	2.090531E-17
7.270000E+03	2.711439E-16	2.046198E-17
7.280000E+03	2.713778E-16	2.000379E-17
7.290000E+03	2.716172E-16	1.952770E-17
7.300000E+03	2.718621E-16	1.903395E-17
7.310000E+03	2.720707E-16	1.851992E-17
7.320000E+03	2.723266E-16	1.799172E-17
7.330000E+03	2.725883E-16	1.744676E-17
7.340000E+03	2.728558E-16	1.688547E-17
7.350000E+03	2.730872E-16	1.630585E-17
7.360000E+03	2.733668E-16	1.571358E-17
7.370000E+03	2.736528E-16	1.510679E-17
7.380000E+03	2.739034E-16	1.448408E-17
7.390000E+03	2.742033E-16	1.385104E-17
7.400000E+03	2.745108E-16	1.320659E-17
7.410000E+03	2.747841E-16	1.255034E-17
7.420000E+03	2.751087E-16	1.188815E-17
7.430000E+03	2.754431E-16	1.122039E-17
7.440000E+03	2.757457E-16	1.054849E-17
7.450000E+03	2.761027E-16	9.879708E-18
7.460000E+03	2.764305E-16	9.215995E-18
7.470000E+03	2.768161E-16	8.566984E-18
7.480000E+03	2.772188E-16	7.939982E-18
7.490000E+03	2.775981E-16	7.345530E-18
7.500000E+03	2.780426E-16	6.801253E-18
7.510000E+03	2.784694E-16	6.324384E-18
7.520000E+03	2.789678E-16	5.940314E-18
7.530000E+03	2.794552E-16	5.672484E-18
7.540000E+03	2.800205E-16	5.545551E-18
7.550000E+03	2.805789E-16	5.571914E-18
7.560000E+03	2.812172E-16	5.753978E-18
7.570000E+03	2.818466E-16	6.077281E-18
7.580000E+03	2.825517E-16	6.522426E-18
7.590000E+03	2.832415E-16	7.063729E-18
7.600000E+03	2.840004E-16	7.681351E-18
7.610000E+03	2.847372E-16	8.354671E-18
7.620000E+03	2.855373E-16	9.071681E-18
7.630000E+03	2.863097E-16	9.818502E-18
7.640000E+03	2.871408E-16	1.058951E-17
7.650000E+03	2.879399E-16	1.137499E-17
7.660000E+03	2.887496E-16	1.217138E-17
7.670000E+03	2.896134E-16	1.297670E-17
7.680000E+03	2.904402E-16	1.378387E-17
7.690000E+03	2.913190E-16	1.459449E-17
7.700000E+03	2.921584E-16	1.540201E-17
7.710000E+03	2.930027E-16	1.620682E-17
7.720000E+03	2.938966E-16	1.701005E-17
7.730000E+03	2.947483E-16	1.780524E-17
7.740000E+03	2.956027E-16	1.859375E-17
7.750000E+03	2.965052E-16	1.937759E-17
7.760000E+03	2.973633E-16	2.014995E-17
