#wls	flux	fluxerr
1.600000E+03	2.099488E-17	1.464363E-17
1.640000E+03	2.125441E-17	1.477278E-17
1.680000E+03	2.153167E-17	1.491117E-17
1.720000E+03	2.181570E-17	1.505097E-17
1.760000E+03	2.211073E-17	1.519492E-17
1.800000E+03	2.241722E-17	1.534310E-17
1.840000E+03	2.273971E-17	1.549838E-17
1.880000E+03	2.307066E-17	1.565533E-17
1.920000E+03	2.341875E-17	1.581959E-17
1.960000E+03	2.378049E-17	1.598849E-17
2.000000E+03	2.415647E-17	1.616210E-17
2.040000E+03	2.454730E-17	1.634050E-17
2.080000E+03	2.495360E-17	1.652377E-17
2.120000E+03	2.537606E-17	1.671196E-17
2.160000E+03	2.581994E-17	1.690814E-17
2.200000E+03	2.627689E-17	1.710638E-17
2.240000E+03	2.675692E-17	1.731276E-17
2.280000E+03	2.725143E-17	1.752122E-17
2.320000E+03	2.777081E-17	1.773792E-17
2.360000E+03	2.831121E-17	1.795983E-17
2.400000E+03	2.887354E-17	1.818691E-17
2.440000E+03	2.946395E-17	1.842239E-17
2.480000E+03	3.007316E-17	1.865977E-17
2.520000E+03	3.071271E-17	1.890551E-17
2.560000E+03	3.137297E-17	1.915290E-17
2.600000E+03	3.206601E-17	1.940851E-17
2.640000E+03	3.278761E-17	1.966886E-17
2.680000E+03	3.353901E-17	1.993375E-17
2.720000E+03	3.432149E-17	2.020298E-17
2.760000E+03	3.513640E-17	2.047626E-17
2.800000E+03	3.598510E-17	2.075328E-17
2.840000E+03	3.687549E-17	2.103735E-17
2.880000E+03	3.779632E-17	2.132074E-17
2.920000E+03	3.876217E-17	2.161038E-17
2.960000E+03	3.976131E-17	2.189822E-17
3.000000E+03	4.080905E-17	2.219123E-17
3.010000E+03	4.107950E-17	2.226558E-17
3.020000E+03	4.135273E-17	2.233998E-17
3.030000E+03	4.162154E-17	2.241051E-17
3.040000E+03	4.190035E-17	2.248494E-17
3.050000E+03	4.218202E-17	2.255936E-17
3.060000E+03	4.246657E-17	2.263378E-17
3.070000E+03	4.274663E-17	2.270423E-17
3.080000E+03	4.303699E-17	2.277857E-17
3.090000E+03	4.333032E-17	2.285286E-17
3.100000E+03	4.362665E-17	2.292707E-17
3.110000E+03	4.392601E-17	2.300121E-17
3.120000E+03	4.422078E-17	2.307126E-17
3.130000E+03	4.452623E-17	2.314517E-17
3.140000E+03	4.483480E-17	2.321895E-17
3.150000E+03	4.514653E-17	2.329259E-17
3.160000E+03	4.545357E-17	2.336203E-17
3.170000E+03	4.577163E-17	2.343531E-17
3.180000E+03	4.609292E-17	2.350839E-17
3.190000E+03	4.641748E-17	2.358126E-17
3.200000E+03	4.674535E-17	2.365389E-17
3.210000E+03	4.707655E-17	2.372626E-17
3.220000E+03	4.740293E-17	2.379426E-17
3.230000E+03	4.774083E-17	2.386606E-17
3.240000E+03	4.808215E-17	2.393754E-17
3.250000E+03	4.842694E-17	2.400868E-17
3.260000E+03	4.877521E-17	2.407947E-17
3.270000E+03	4.912700E-17	2.414987E-17
3.280000E+03	4.948235E-17	2.421988E-17
3.290000E+03	4.983271E-17	2.428528E-17
3.300000E+03	5.019520E-17	2.435439E-17
3.310000E+03	5.056135E-17	2.442304E-17
3.320000E+03	5.093118E-17	2.449118E-17
3.330000E+03	5.130473E-17	2.455880E-17
3.340000E+03	5.168203E-17	2.462588E-17
3.350000E+03	5.206311E-17	2.469237E-17
3.360000E+03	5.244801E-17	2.475826E-17
3.370000E+03	5.282769E-17	2.481927E-17
3.380000E+03	5.322025E-17	2.488386E-17
3.390000E+03	5.361674E-17	2.494777E-17
3.400000E+03	5.401718E-17	2.501096E-17
3.410000E+03	5.442160E-17	2.507340E-17
3.420000E+03	5.483005E-17	2.513507E-17
3.430000E+03	5.524254E-17	2.519593E-17
3.440000E+03	5.565913E-17	2.525596E-17
3.450000E+03	5.607983E-17	2.531511E-17
3.460000E+03	5.650470E-17	2.537335E-17
3.470000E+03	5.693375E-17	2.543066E-17
3.480000E+03	5.735723E-17	2.548263E-17
3.490000E+03	5.779470E-17	2.553795E-17
3.500000E+03	5.823647E-17	2.559223E-17
3.510000E+03	5.868256E-17	2.564543E-17
3.520000E+03	5.913303E-17	2.569751E-17
3.530000E+03	5.958789E-17	2.574844E-17
3.540000E+03	6.004719E-17	2.579818E-17
3.550000E+03	6.051096E-17	2.584669E-17
3.560000E+03	6.097924E-17	2.589393E-17
3.570000E+03	6.145206E-17	2.593986E-17
3.580000E+03	6.192946E-17	2.598445E-17
3.590000E+03	6.241147E-17	2.602764E-17
3.600000E+03	6.289813E-17	2.606939E-17
3.610000E+03	6.338947E-17	2.610967E-17
3.620000E+03	6.388554E-17	2.614843E-17
3.630000E+03	6.438636E-17	2.618563E-17
3.640000E+03	6.489197E-17	2.622122E-17
3.650000E+03	6.540241E-17	2.625515E-17
3.660000E+03	6.590651E-17	2.628291E-17
3.670000E+03	6.642663E-17	2.631339E-17
3.680000E+03	6.695168E-17	2.634207E-17
3.690000E+03	6.748171E-17	2.636892E-17
3.700000E+03	6.801674E-17	2.639386E-17
3.710000E+03	6.855682E-17	2.641687E-17
3.720000E+03	6.910197E-17	2.643788E-17
3.730000E+03	6.965225E-17	2.645685E-17
3.740000E+03	7.020768E-17	2.647372E-17
3.750000E+03	7.076829E-17	2.648844E-17
3.760000E+03	7.133414E-17	2.650096E-17
3.770000E+03	7.190524E-17	2.651123E-17
3.780000E+03	7.248165E-17	2.651918E-17
3.790000E+03	7.306339E-17	2.652477E-17
3.800000E+03	7.365050E-17	2.652794E-17
3.810000E+03	7.424303E-17	2.652863E-17
3.820000E+03	7.484100E-17	2.652678E-17
3.830000E+03	7.544445E-17	2.652234E-17
3.840000E+03	7.605343E-17	2.651525E-17
3.850000E+03	7.666796E-17	2.650544E-17
3.860000E+03	7.728809E-17	2.649287E-17
3.870000E+03	7.791386E-17	2.647746E-17
3.880000E+03	7.853203E-17	2.645469E-17
3.890000E+03	7.916907E-17	2.643344E-17
3.900000E+03	7.981185E-17	2.640917E-17
3.910000E+03	8.046042E-17	2.638181E-17
3.920000E+03	8.111480E-17	2.635132E-17
3.930000E+03	8.177504E-17	2.631762E-17
3.940000E+03	8.244118E-17	2.628064E-17
3.950000E+03	8.311325E-17	2.624032E-17
3.960000E+03	8.379129E-17	2.619660E-17
3.970000E+03	8.447534E-17	2.614941E-17
3.980000E+03	8.516544E-17	2.609867E-17
3.990000E+03	8.586163E-17	2.604433E-17
4.000000E+03	8.656394E-17	2.598632E-17
4.010000E+03	8.727241E-17	2.592456E-17
4.020000E+03	8.797230E-17	2.585464E-17
4.030000E+03	8.869309E-17	2.578519E-17
4.040000E+03	8.942017E-17	2.571180E-17
4.050000E+03	9.015355E-17	2.563437E-17
4.060000E+03	9.089329E-17	2.555286E-17
4.070000E+03	9.163942E-17	2.546717E-17
4.080000E+03	9.239198E-17	2.537725E-17
4.090000E+03	9.315101E-17	2.528301E-17
4.100000E+03	9.391654E-17	2.518440E-17
4.110000E+03	9.468861E-17	2.508132E-17
4.120000E+03	9.545128E-17	2.496953E-17
4.130000E+03	9.623642E-17	2.485733E-17
4.140000E+03	9.702822E-17	2.474046E-17
4.150000E+03	9.782671E-17	2.461883E-17
4.160000E+03	9.863192E-17	2.449238E-17
4.170000E+03	9.944389E-17	2.436102E-17
4.180000E+03	1.002627E-16	2.422468E-17
4.190000E+03	1.010714E-16	2.407927E-17
4.200000E+03	1.019037E-16	2.393277E-17
4.210000E+03	1.027429E-16	2.378108E-17
4.220000E+03	1.035890E-16	2.362410E-17
4.230000E+03	1.044421E-16	2.346177E-17
4.240000E+03	1.053022E-16	2.329402E-17
4.250000E+03	1.061516E-16	2.311690E-17
4.260000E+03	1.070256E-16	2.293809E-17
4.270000E+03	1.079067E-16	2.275363E-17
4.280000E+03	1.087948E-16	2.256345E-17
4.290000E+03	1.096900E-16	2.236747E-17
4.300000E+03	1.105740E-16	2.216193E-17
4.310000E+03	1.114833E-16	2.195417E-17
4.320000E+03	1.123998E-16	2.174040E-17
4.330000E+03	1.133234E-16	2.152055E-17
4.340000E+03	1.142352E-16	2.129101E-17
4.350000E+03	1.151731E-16	2.105884E-17
4.360000E+03	1.161181E-16	2.082038E-17
4.370000E+03	1.170702E-16	2.057559E-17
4.380000E+03	1.180099E-16	2.032102E-17
4.390000E+03	1.189761E-16	2.006341E-17
4.400000E+03	1.199495E-16	1.979929E-17
4.410000E+03	1.209299E-16	1.952860E-17
4.420000E+03	1.218972E-16	1.924811E-17
4.430000E+03	1.228915E-16	1.896421E-17
4.440000E+03	1.238928E-16	1.867363E-17
4.450000E+03	1.248803E-16	1.837328E-17
4.460000E+03	1.258951E-16	1.806928E-17
4.470000E+03	1.269167E-16	1.775853E-17
4.480000E+03	1.279238E-16	1.743812E-17
4.490000E+03	1.289585E-16	1.711389E-17
4.500000E+03	1.299997E-16	1.678292E-17
4.510000E+03	1.310256E-16	1.644251E-17
4.520000E+03	1.320792E-16	1.609820E-17
4.530000E+03	1.331169E-16	1.574467E-17
4.540000E+03	1.341824E-16	1.538727E-17
4.550000E+03	1.352537E-16	1.502344E-17
4.560000E+03	1.363081E-16	1.465089E-17
4.570000E+03	1.373902E-16	1.427469E-17
4.580000E+03	1.384546E-16	1.389026E-17
4.590000E+03	1.395468E-16	1.350249E-17
4.600000E+03	1.406437E-16	1.310932E-17
4.610000E+03	1.417217E-16	1.270900E-17
4.620000E+03	1.428272E-16	1.230621E-17
4.630000E+03	1.439130E-16	1.189732E-17
4.640000E+03	1.450261E-16	1.148694E-17
4.650000E+03	1.461185E-16	1.107190E-17
4.660000E+03	1.472380E-16	1.065681E-17
4.670000E+03	1.483359E-16	1.023908E-17
4.680000E+03	1.494608E-16	9.823395E-18
4.690000E+03	1.505632E-16	9.407913E-18
4.700000E+03	1.516925E-16	8.997568E-18
4.710000E+03	1.527986E-16	8.591444E-18
4.720000E+03	1.539316E-16	8.194987E-18
4.730000E+03	1.550409E-16	7.808483E-18
4.740000E+03	1.561775E-16	7.438218E-18
4.750000E+03	1.572903E-16	7.086008E-18
4.760000E+03	1.584051E-16	6.758207E-18
4.770000E+03	1.595486E-16	6.461711E-18
4.780000E+03	1.606693E-16	6.200876E-18
4.790000E+03	1.618208E-16	5.984816E-18
4.800000E+03	1.629511E-16	5.818653E-18
4.810000E+03	1.640881E-16	5.710007E-18
4.820000E+03	1.652584E-16	5.664343E-18
4.830000E+03	1.664054E-16	5.681704E-18
4.840000E+03	1.675536E-16	5.762789E-18
4.850000E+03	1.687286E-16	5.906267E-18
4.860000E+03	1.698732E-16	6.106218E-18
4.870000E+03	1.710132E-16	6.358407E-18
4.880000E+03	1.721755E-16	6.658083E-18
4.890000E+03	1.733027E-16	6.997085E-18
4.900000E+03	1.744222E-16	7.370684E-18
4.910000E+03	1.755621E-16	7.774870E-18
4.920000E+03	1.766645E-16	8.202452E-18
4.930000E+03	1.777577E-16	8.650515E-18
4.940000E+03	1.788415E-16	9.115489E-18
4.950000E+03	1.799452E-16	9.595869E-18
4.960000E+03	1.810100E-16	1.008595E-17
4.970000E+03	1.820652E-16	1.058494E-17
4.980000E+03	1.831110E-16	1.109087E-17
4.990000E+03	1.841476E-16	1.160205E-17
5.000000E+03	1.852053E-16	1.211898E-17
5.010000E+03	1.862242E-16	1.263645E-17
5.020000E+03	1.872344E-16	1.315524E-17
5.030000E+03	1.882364E-16	1.367432E-17
5.040000E+03	1.892305E-16	1.419279E-17
5.050000E+03	1.902170E-16	1.470983E-17
5.060000E+03	1.911962E-16	1.522471E-17
5.070000E+03	1.921999E-16	1.573934E-17
5.080000E+03	1.931658E-16	1.624806E-17
5.090000E+03	1.941255E-16	1.675278E-17
5.100000E+03	1.950793E-16	1.725301E-17
5.110000E+03	1.960276E-16	1.774827E-17
5.120000E+03	1.969707E-16	1.823812E-17
5.130000E+03	1.979090E-16	1.872215E-17
5.140000E+03	1.988428E-16	1.919997E-17
5.150000E+03	1.997724E-16	1.967123E-17
5.160000E+03	2.006981E-16	2.013557E-17
5.170000E+03	2.016201E-16	2.059269E-17
5.180000E+03	2.025389E-16	2.104226E-17
5.190000E+03	2.034547E-16	2.148401E-17
5.200000E+03	2.043676E-16	2.191764E-17
5.210000E+03	2.052781E-16	2.234289E-17
5.220000E+03	2.061863E-16	2.275950E-17
5.230000E+03	2.070924E-16	2.316722E-17
5.240000E+03	2.079966E-16	2.356582E-17
5.250000E+03	2.088992E-16	2.395507E-17
5.260000E+03	2.098004E-16	2.433473E-17
5.270000E+03	2.106659E-16	2.470057E-17
5.280000E+03	2.115645E-16	2.506037E-17
5.290000E+03	2.124621E-16	2.540995E-17
5.300000E+03	2.133589E-16	2.574913E-17
5.310000E+03	2.142550E-16	2.607770E-17
5.320000E+03	2.151506E-16	2.639548E-17
5.330000E+03	2.160456E-16	2.670228E-17
5.340000E+03	2.169049E-16	2.699353E-17
5.350000E+03	2.177992E-16	2.727779E-17
5.360000E+03	2.186931E-16	2.755055E-17
5.370000E+03	2.195870E-16	2.781164E-17
5.380000E+03	2.204807E-16	2.806089E-17
5.390000E+03	2.213383E-16	2.829355E-17
5.400000E+03	2.222317E-16	2.851864E-17
5.410000E+03	2.231252E-16	2.873142E-17
5.420000E+03	2.240186E-16	2.893177E-17
5.430000E+03	2.248755E-16	2.911480E-17
5.440000E+03	2.257689E-16	2.928981E-17
5.450000E+03	2.266622E-16	2.945197E-17
5.460000E+03	2.275185E-16	2.959634E-17
5.470000E+03	2.284116E-16	2.973239E-17
5.480000E+03	2.293046E-16	2.985521E-17
5.490000E+03	2.301601E-16	2.995983E-17
5.500000E+03	2.310527E-16	3.005585E-17
5.510000E+03	2.319450E-16	3.013833E-17
5.520000E+03	2.327992E-16	3.020224E-17
5.530000E+03	2.336906E-16	3.025731E-17
5.540000E+03	2.345816E-16	3.029856E-17
5.550000E+03	2.354338E-16	3.032097E-17
5.560000E+03	2.363235E-16	3.033432E-17
5.570000E+03	2.371738E-16	3.032869E-17
5.580000E+03	2.380617E-16	3.031389E-17
5.590000E+03	2.389098E-16	3.028000E-17
5.600000E+03	2.397954E-16	3.023683E-17
5.610000E+03	2.406407E-16	3.017452E-17
5.620000E+03	2.415235E-16	3.010285E-17
5.630000E+03	2.424048E-16	3.001689E-17
5.640000E+03	2.432449E-16	2.991176E-17
5.650000E+03	2.441224E-16	2.979721E-17
5.660000E+03	2.449582E-16	2.966354E-17
5.670000E+03	2.457914E-16	2.951564E-17
5.680000E+03	2.466620E-16	2.935830E-17
5.690000E+03	2.474898E-16	2.918203E-17
5.700000E+03	2.483548E-16	2.899636E-17
5.710000E+03	2.491763E-16	2.879193E-17
5.720000E+03	2.500348E-16	2.857819E-17
5.730000E+03	2.508491E-16	2.834593E-17
5.740000E+03	2.516593E-16	2.809993E-17
5.750000E+03	2.525062E-16	2.784484E-17
5.760000E+03	2.533077E-16	2.757171E-17
5.770000E+03	2.541456E-16	2.728969E-17
5.780000E+03	2.549372E-16	2.699005E-17
5.790000E+03	2.557233E-16	2.667746E-17
5.800000E+03	2.565451E-16	2.635640E-17
5.810000E+03	2.573194E-16	2.601850E-17
5.820000E+03	2.580871E-16	2.566833E-17
5.830000E+03	2.588898E-16	2.531028E-17
5.840000E+03	2.596435E-16	2.493637E-17
5.850000E+03	2.603893E-16	2.455109E-17
5.860000E+03	2.611693E-16	2.415870E-17
5.870000E+03	2.618985E-16	2.375168E-17
5.880000E+03	2.626186E-16	2.333441E-17
5.890000E+03	2.633290E-16	2.290732E-17
5.900000E+03	2.640719E-16	2.247454E-17
5.910000E+03	2.647615E-16	2.202920E-17
5.920000E+03	2.654397E-16	2.157556E-17
5.930000E+03	2.661059E-16	2.111421E-17
5.940000E+03	2.668027E-16	2.064911E-17
5.950000E+03	2.674430E-16	2.017417E-17
5.960000E+03	2.680693E-16	1.969354E-17
5.970000E+03	2.686807E-16	1.920798E-17
5.980000E+03	2.692764E-16	1.871835E-17
5.990000E+03	2.698557E-16	1.822552E-17
6.000000E+03	2.704615E-16	1.773333E-17
6.010000E+03	2.710053E-16	1.723699E-17
6.020000E+03	2.715298E-16	1.674056E-17
6.030000E+03	2.720342E-16	1.624523E-17
6.040000E+03	2.725173E-16	1.575226E-17
6.050000E+03	2.729782E-16	1.526304E-17
6.060000E+03	2.734157E-16	1.477900E-17
6.070000E+03	2.738288E-16	1.430170E-17
6.080000E+03	2.742608E-16	1.383502E-17
6.090000E+03	2.746218E-16	1.337616E-17
6.100000E+03	2.749551E-16	1.292926E-17
6.110000E+03	2.752595E-16	1.249622E-17
6.120000E+03	2.755340E-16	1.207900E-17
6.130000E+03	2.757777E-16	1.167961E-17
6.140000E+03	2.759897E-16	1.130005E-17
6.150000E+03	2.761692E-16	1.094226E-17
6.160000E+03	2.763154E-16	1.060812E-17
6.170000E+03	2.764281E-16	1.029932E-17
6.180000E+03	2.765068E-16	1.001732E-17
6.190000E+03	2.765516E-16	9.763292E-18
6.200000E+03	2.765628E-16	9.538032E-18
6.210000E+03	2.765409E-16	9.341917E-18
6.220000E+03	2.764867E-16	9.174873E-18
6.230000E+03	2.764011E-16	9.036280E-18
6.240000E+03	2.762849E-16	8.925019E-18
6.250000E+03	2.761393E-16	8.839618E-18
6.260000E+03	2.759656E-16	8.778348E-18
6.270000E+03	2.757655E-16	8.739334E-18
6.280000E+03	2.755410E-16	8.720673E-18
6.290000E+03	2.752495E-16	8.719130E-18
6.300000E+03	2.749825E-16	8.735886E-18
6.310000E+03	2.746978E-16	8.768156E-18
6.320000E+03	2.743977E-16	8.814888E-18
6.330000E+03	2.740847E-16	8.875391E-18
6.340000E+03	2.737615E-16	8.949344E-18
6.350000E+03	2.734303E-16	9.036792E-18
6.360000E+03	2.730938E-16	9.138112E-18
6.370000E+03	2.727101E-16	9.252468E-18
6.380000E+03	2.723700E-16	9.383725E-18
6.390000E+03	2.720315E-16	9.531440E-18
6.400000E+03	2.716966E-16	9.696719E-18
6.410000E+03	2.713673E-16	9.880657E-18
6.420000E+03	2.710455E-16	1.008425E-17
6.430000E+03	2.706889E-16	1.030667E-17
6.440000E+03	2.703868E-16	1.055181E-17
6.450000E+03	2.700966E-16	1.081825E-17
6.460000E+03	2.698192E-16	1.110567E-17
6.470000E+03	2.695555E-16	1.141345E-17
6.480000E+03	2.692627E-16	1.173887E-17
6.490000E+03	2.690284E-16	1.208461E-17
6.500000E+03	2.688095E-16	1.244761E-17
6.510000E+03	2.686063E-16	1.282656E-17
6.520000E+03	2.683754E-16	1.321789E-17
6.530000E+03	2.682039E-16	1.362438E-17
6.540000E+03	2.680484E-16	1.404249E-17
6.550000E+03	2.679089E-16	1.447078E-17
6.560000E+03	2.677419E-16	1.490543E-17
6.570000E+03	2.676340E-16	1.534981E-17
6.580000E+03	2.675417E-16	1.580028E-17
6.590000E+03	2.674215E-16	1.625297E-17
6.600000E+03	2.673600E-16	1.671187E-17
6.610000E+03	2.673134E-16	1.717331E-17
6.620000E+03	2.672384E-16	1.763338E-17
6.630000E+03	2.672213E-16	1.809673E-17
6.640000E+03	2.672186E-16	1.855963E-17
6.650000E+03	2.671868E-16	1.901813E-17
6.660000E+03	2.672122E-16	1.947750E-17
6.670000E+03	2.672514E-16	1.993394E-17
6.680000E+03	2.672607E-16	2.038342E-17
6.690000E+03	2.673266E-16	2.083179E-17
6.700000E+03	2.673623E-16	2.127171E-17
6.710000E+03	2.674542E-16	2.170940E-17
6.720000E+03	2.675588E-16	2.214089E-17
6.730000E+03	2.676324E-16	2.256198E-17
6.740000E+03	2.677618E-16	2.297939E-17
6.750000E+03	2.678598E-16	2.338524E-17
6.760000E+03	2.680133E-16	2.378657E-17
6.770000E+03	2.681785E-16	2.417922E-17
6.780000E+03	2.683119E-16	2.455876E-17
6.790000E+03	2.685003E-16	2.493270E-17
6.800000E+03	2.686564E-16	2.529262E-17
6.810000E+03	2.688673E-16	2.564628E-17
6.820000E+03	2.690457E-16	2.598508E-17
6.830000E+03	2.692787E-16	2.631705E-17
6.840000E+03	2.694788E-16	2.663338E-17
6.850000E+03	2.697334E-16	2.694235E-17
6.860000E+03	2.699549E-16	2.723496E-17
6.870000E+03	2.702307E-16	2.751973E-17
6.880000E+03	2.704731E-16	2.778748E-17
6.890000E+03	2.707698E-16	2.804696E-17
6.900000E+03	2.710328E-16	2.828882E-17
6.910000E+03	2.713501E-16	2.852200E-17
6.920000E+03	2.716335E-16	2.873702E-17
6.930000E+03	2.719711E-16	2.894298E-17
6.940000E+03	2.722746E-16	2.913030E-17
6.950000E+03	2.726323E-16	2.930822E-17
6.960000E+03	2.729557E-16	2.946705E-17
6.970000E+03	2.733333E-16	2.961619E-17
6.980000E+03	2.736764E-16	2.974586E-17
6.990000E+03	2.740293E-16	2.986070E-17
7.000000E+03	2.744366E-16	2.996544E-17
7.010000E+03	2.748090E-16	3.005024E-17
7.020000E+03	2.752359E-16	3.012473E-17
7.030000E+03	2.756278E-16	3.017902E-17
7.040000E+03	2.760293E-16	3.021790E-17
7.050000E+03	2.764855E-16	3.024623E-17
7.060000E+03	2.769064E-16	3.025409E-17
7.070000E+03	2.773821E-16	3.025127E-17
7.080000E+03	2.778223E-16	3.022790E-17
7.090000E+03	2.782722E-16	3.018887E-17
7.100000E+03	2.787770E-16	3.013909E-17
7.110000E+03	2.792461E-16	3.006876E-17
7.120000E+03	2.797248E-16	2.998282E-17
7.130000E+03	2.802587E-16	2.988619E-17
7.140000E+03	2.807566E-16	2.976919E-17
7.150000E+03	2.812641E-16	2.963682E-17
7.160000E+03	2.818271E-16	2.949400E-17
7.170000E+03	2.823538E-16	2.933124E-17
7.180000E+03	2.828900E-16	2.915356E-17
7.190000E+03	2.834819E-16	2.896589E-17
7.200000E+03	2.840372E-16	2.875901E-17
7.210000E+03	2.846019E-16	2.853795E-17
7.220000E+03	2.852225E-16	2.830765E-17
7.230000E+03	2.858060E-16	2.805923E-17
7.240000E+03	2.863988E-16	2.779776E-17
7.250000E+03	2.870008E-16	2.752371E-17
7.260000E+03	2.876587E-16	2.724206E-17
7.270000E+03	2.882788E-16	2.694448E-17
7.280000E+03	2.889077E-16	2.663612E-17
7.290000E+03	2.895453E-16	2.631775E-17
7.300000E+03	2.902385E-16	2.599442E-17
7.310000E+03	2.908927E-16	2.565853E-17
7.320000E+03	2.915548E-16	2.531540E-17
7.330000E+03	2.922244E-16	2.496615E-17
7.340000E+03	2.929011E-16	2.461206E-17
7.350000E+03	2.936325E-16	2.425844E-17
7.360000E+03	2.943222E-16	2.389885E-17
7.370000E+03	2.950174E-16	2.353896E-17
7.380000E+03	2.957175E-16	2.318058E-17
7.390000E+03	2.964217E-16	2.282570E-17
7.400000E+03	2.971777E-16	2.248012E-17
7.410000E+03	2.978876E-16	2.213875E-17
7.420000E+03	2.985987E-16	2.180780E-17
7.430000E+03	2.993099E-16	2.148988E-17
7.440000E+03	3.000200E-16	2.118776E-17
7.450000E+03	3.007275E-16	2.090433E-17
7.460000E+03	3.014805E-16	2.064594E-17
7.470000E+03	3.021789E-16	2.040880E-17
7.480000E+03	3.028705E-16	2.019934E-17
7.490000E+03	3.035537E-16	2.002047E-17
7.500000E+03	3.042273E-16	1.987500E-17
7.510000E+03	3.048898E-16	1.976545E-17
7.520000E+03	3.055401E-16	1.969408E-17
7.530000E+03	3.061772E-16	1.966275E-17
7.540000E+03	3.068003E-16	1.967286E-17
7.550000E+03	3.074089E-16	1.972532E-17
7.560000E+03	3.080533E-16	1.982375E-17
7.570000E+03	3.086328E-16	1.996151E-17
7.580000E+03	3.091979E-16	2.014113E-17
7.590000E+03	3.097494E-16	2.036144E-17
7.600000E+03	3.102880E-16	2.062081E-17
7.610000E+03	3.108146E-16	2.091727E-17
7.620000E+03	3.113304E-16	2.124854E-17
7.630000E+03	3.118363E-16	2.161214E-17
7.640000E+03	3.123337E-16	2.200545E-17
7.650000E+03	3.128235E-16	2.242574E-17
7.660000E+03	3.133071E-16	2.287029E-17
7.670000E+03	3.137853E-16	2.333638E-17
7.680000E+03	3.142592E-16	2.382135E-17
7.690000E+03	3.147297E-16	2.432265E-17
7.700000E+03	3.151977E-16	2.483780E-17
7.710000E+03	3.156638E-16	2.536446E-17
7.720000E+03	3.161287E-16	2.590041E-17
7.730000E+03	3.165929E-16	2.644355E-17
7.740000E+03	3.170569E-16	2.699194E-17
7.750000E+03	3.175211E-16	2.754371E-17
7.760000E+03	3.179858E-16	2.809715E-17
