#wls	flux	fluxerr
1.600000E+03	2.547506E-18	0.000000E+00
1.640000E+03	2.638963E-18	0.000000E+00
1.680000E+03	2.737478E-18	0.000000E+00
1.720000E+03	2.843417E-18	0.000000E+00
1.760000E+03	2.957417E-18	0.000000E+00
1.800000E+03	3.080381E-18	0.000000E+00
1.840000E+03	3.212202E-18	0.000000E+00
1.880000E+03	3.354072E-18	0.000000E+00
1.920000E+03	3.506428E-18	0.000000E+00
1.960000E+03	3.669718E-18	0.000000E+00
2.000000E+03	3.844136E-18	0.000000E+00
2.040000E+03	4.030157E-18	0.000000E+00
2.080000E+03	4.227731E-18	0.000000E+00
2.120000E+03	4.436275E-18	0.000000E+00
2.160000E+03	4.656011E-18	0.000000E+00
2.200000E+03	4.886082E-18	0.000000E+00
2.240000E+03	5.125891E-18	0.000000E+00
2.280000E+03	5.375380E-18	0.000000E+00
2.320000E+03	5.635050E-18	0.000000E+00
2.360000E+03	5.906249E-18	0.000000E+00
2.400000E+03	6.190643E-18	0.000000E+00
2.440000E+03	6.489944E-18	0.000000E+00
2.480000E+03	6.806763E-18	0.000000E+00
2.520000E+03	7.142928E-18	0.000000E+00
2.560000E+03	7.500895E-18	0.000000E+00
2.600000E+03	7.882326E-18	0.000000E+00
2.640000E+03	8.289229E-18	0.000000E+00
2.680000E+03	8.723082E-18	0.000000E+00
2.720000E+03	9.185428E-18	0.000000E+00
2.760000E+03	9.677856E-18	0.000000E+00
2.800000E+03	1.020170E-17	0.000000E+00
2.840000E+03	1.075836E-17	0.000000E+00
2.880000E+03	1.134988E-17	0.000000E+00
2.920000E+03	1.197776E-17	0.000000E+00
2.960000E+03	1.264510E-17	0.000000E+00
3.000000E+03	1.335416E-17	0.000000E+00
3.010000E+03	1.353867E-17	0.000000E+00
3.020000E+03	1.372583E-17	0.000000E+00
3.030000E+03	1.391568E-17	0.000000E+00
3.040000E+03	1.410884E-17	0.000000E+00
3.050000E+03	1.430502E-17	0.000000E+00
3.060000E+03	1.450425E-17	0.000000E+00
3.070000E+03	1.470685E-17	0.000000E+00
3.080000E+03	1.491255E-17	0.000000E+00
3.090000E+03	1.512134E-17	0.000000E+00
3.100000E+03	1.533390E-17	0.000000E+00
3.110000E+03	1.554960E-17	0.000000E+00
3.120000E+03	1.576879E-17	0.000000E+00
3.130000E+03	1.599117E-17	0.000000E+00
3.140000E+03	1.621772E-17	0.000000E+00
3.150000E+03	1.644750E-17	0.000000E+00
3.160000E+03	1.668086E-17	0.000000E+00
3.170000E+03	1.691815E-17	0.000000E+00
3.180000E+03	1.715938E-17	0.000000E+00
3.190000E+03	1.740393E-17	0.000000E+00
3.200000E+03	1.765280E-17	0.000000E+00
3.210000E+03	1.790538E-17	0.000000E+00
3.220000E+03	1.816200E-17	0.000000E+00
3.230000E+03	1.842236E-17	0.000000E+00
3.240000E+03	1.868683E-17	0.000000E+00
3.250000E+03	1.895542E-17	0.000000E+00
3.260000E+03	1.922816E-17	0.000000E+00
3.270000E+03	1.950474E-17	0.000000E+00
3.280000E+03	1.978553E-17	0.000000E+00
3.290000E+03	2.007054E-17	0.000000E+00
3.300000E+03	2.035947E-17	0.000000E+00
3.310000E+03	2.065269E-17	0.000000E+00
3.320000E+03	2.094988E-17	0.000000E+00
3.330000E+03	2.125140E-17	0.000000E+00
3.340000E+03	2.155695E-17	0.000000E+00
3.350000E+03	2.186654E-17	0.000000E+00
3.360000E+03	2.218021E-17	0.000000E+00
3.370000E+03	2.249797E-17	0.000000E+00
3.380000E+03	2.281987E-17	0.000000E+00
3.390000E+03	2.314556E-17	0.000000E+00
3.400000E+03	2.347543E-17	0.000000E+00
3.410000E+03	2.380881E-17	0.000000E+00
3.420000E+03	2.414641E-17	0.000000E+00
3.430000E+03	2.448756E-17	0.000000E+00
3.440000E+03	2.483230E-17	0.000000E+00
3.450000E+03	2.518063E-17	0.000000E+00
3.460000E+03	2.553223E-17	0.000000E+00
3.470000E+03	2.588747E-17	0.000000E+00
3.480000E+03	2.624601E-17	0.000000E+00
3.490000E+03	2.660754E-17	0.000000E+00
3.500000E+03	2.697205E-17	0.000000E+00
3.510000E+03	2.733923E-17	0.000000E+00
3.520000E+03	2.770942E-17	0.000000E+00
3.530000E+03	2.808159E-17	0.000000E+00
3.540000E+03	2.845610E-17	0.000000E+00
3.550000E+03	2.883261E-17	0.000000E+00
3.560000E+03	2.921111E-17	0.000000E+00
3.570000E+03	2.959091E-17	0.000000E+00
3.580000E+03	2.997166E-17	0.000000E+00
3.590000E+03	3.035370E-17	0.000000E+00
3.600000E+03	3.073597E-17	0.000000E+00
3.610000E+03	3.111881E-17	0.000000E+00
3.620000E+03	3.150186E-17	0.000000E+00
3.630000E+03	3.188438E-17	0.000000E+00
3.640000E+03	3.226602E-17	0.000000E+00
3.650000E+03	3.264675E-17	0.000000E+00
3.660000E+03	3.302582E-17	0.000000E+00
3.670000E+03	3.340357E-17	0.000000E+00
3.680000E+03	3.377890E-17	0.000000E+00
3.690000E+03	3.415176E-17	0.000000E+00
3.700000E+03	3.452177E-17	0.000000E+00
3.710000E+03	3.488888E-17	0.000000E+00
3.720000E+03	3.525233E-17	0.000000E+00
3.730000E+03	3.561207E-17	0.000000E+00
3.740000E+03	3.596769E-17	0.000000E+00
3.750000E+03	3.631914E-17	0.000000E+00
3.760000E+03	3.666602E-17	0.000000E+00
3.770000E+03	3.700825E-17	0.000000E+00
3.780000E+03	3.734543E-17	0.000000E+00
3.790000E+03	3.767711E-17	0.000000E+00
3.800000E+03	3.800400E-17	0.000000E+00
3.810000E+03	3.832490E-17	0.000000E+00
3.820000E+03	3.864013E-17	0.000000E+00
3.830000E+03	3.895001E-17	0.000000E+00
3.840000E+03	3.925371E-17	0.000000E+00
3.850000E+03	3.955119E-17	0.000000E+00
3.860000E+03	3.984273E-17	0.000000E+00
3.870000E+03	4.012827E-17	0.000000E+00
3.880000E+03	4.040775E-17	0.000000E+00
3.890000E+03	4.068073E-17	0.000000E+00
3.900000E+03	4.094750E-17	0.000000E+00
3.910000E+03	4.120801E-17	0.000000E+00
3.920000E+03	4.146218E-17	0.000000E+00
3.930000E+03	4.170993E-17	0.000000E+00
3.940000E+03	4.195122E-17	0.000000E+00
3.950000E+03	4.218632E-17	0.000000E+00
3.960000E+03	4.241520E-17	0.000000E+00
3.970000E+03	4.263738E-17	0.000000E+00
3.980000E+03	4.285356E-17	0.000000E+00
3.990000E+03	4.306329E-17	0.000000E+00
4.000000E+03	4.326689E-17	0.000000E+00
4.010000E+03	4.346429E-17	0.000000E+00
4.020000E+03	4.365503E-17	0.000000E+00
4.030000E+03	4.383980E-17	0.000000E+00
4.040000E+03	4.401817E-17	0.000000E+00
4.050000E+03	4.419044E-17	0.000000E+00
4.060000E+03	4.435654E-17	0.000000E+00
4.070000E+03	4.451643E-17	0.000000E+00
4.080000E+03	4.467000E-17	0.000000E+00
4.090000E+03	4.481760E-17	0.000000E+00
4.100000E+03	4.495876E-17	0.000000E+00
4.110000E+03	4.509342E-17	0.000000E+00
4.120000E+03	4.522229E-17	0.000000E+00
4.130000E+03	4.534452E-17	0.000000E+00
4.140000E+03	4.546044E-17	0.000000E+00
4.150000E+03	4.556998E-17	0.000000E+00
4.160000E+03	4.567308E-17	0.000000E+00
4.170000E+03	4.576966E-17	0.000000E+00
4.180000E+03	4.585967E-17	0.000000E+00
4.190000E+03	4.594303E-17	0.000000E+00
4.200000E+03	4.601968E-17	0.000000E+00
4.210000E+03	4.608957E-17	0.000000E+00
4.220000E+03	4.615262E-17	0.000000E+00
4.230000E+03	4.620837E-17	0.000000E+00
4.240000E+03	4.625674E-17	0.000000E+00
4.250000E+03	4.629809E-17	0.000000E+00
4.260000E+03	4.633236E-17	0.000000E+00
4.270000E+03	4.635866E-17	0.000000E+00
4.280000E+03	4.637735E-17	0.000000E+00
4.290000E+03	4.638838E-17	0.000000E+00
4.300000E+03	4.639167E-17	0.000000E+00
4.310000E+03	4.638716E-17	0.000000E+00
4.320000E+03	4.637442E-17	0.000000E+00
4.330000E+03	4.635418E-17	0.000000E+00
4.340000E+03	4.632558E-17	0.000000E+00
4.350000E+03	4.628939E-17	0.000000E+00
4.360000E+03	4.624556E-17	0.000000E+00
4.370000E+03	4.619446E-17	0.000000E+00
4.380000E+03	4.613605E-17	0.000000E+00
4.390000E+03	4.607070E-17	0.000000E+00
4.400000E+03	4.599836E-17	0.000000E+00
4.410000E+03	4.591983E-17	0.000000E+00
4.420000E+03	4.583508E-17	0.000000E+00
4.430000E+03	4.574408E-17	0.000000E+00
4.440000E+03	4.564762E-17	0.000000E+00
4.450000E+03	4.554570E-17	0.000000E+00
4.460000E+03	4.543868E-17	0.000000E+00
4.470000E+03	4.532739E-17	0.000000E+00
4.480000E+03	4.521140E-17	0.000000E+00
4.490000E+03	4.509152E-17	0.000000E+00
4.500000E+03	4.496815E-17	0.000000E+00
4.510000E+03	4.484128E-17	0.000000E+00
4.520000E+03	4.471132E-17	0.000000E+00
4.530000E+03	4.457868E-17	0.000000E+00
4.540000E+03	4.444378E-17	0.000000E+00
4.550000E+03	4.430702E-17	0.000000E+00
4.560000E+03	4.416840E-17	0.000000E+00
4.570000E+03	4.402792E-17	0.000000E+00
4.580000E+03	4.388683E-17	0.000000E+00
4.590000E+03	4.374472E-17	0.000000E+00
4.600000E+03	4.360160E-17	0.000000E+00
4.610000E+03	4.345830E-17	0.000000E+00
4.620000E+03	4.331523E-17	0.000000E+00
4.630000E+03	4.317157E-17	0.000000E+00
4.640000E+03	4.302900E-17	0.000000E+00
4.650000E+03	4.288627E-17	0.000000E+00
4.660000E+03	4.274464E-17	0.000000E+00
4.670000E+03	4.260412E-17	0.000000E+00
4.680000E+03	4.246470E-17	0.000000E+00
4.690000E+03	4.232640E-17	0.000000E+00
4.700000E+03	4.218923E-17	0.000000E+00
4.710000E+03	4.205402E-17	0.000000E+00
4.720000E+03	4.192037E-17	0.000000E+00
4.730000E+03	4.178829E-17	0.000000E+00
4.740000E+03	4.165818E-17	0.000000E+00
4.750000E+03	4.152925E-17	0.000000E+00
4.760000E+03	4.140273E-17	0.000000E+00
4.770000E+03	4.127738E-17	0.000000E+00
4.780000E+03	4.115405E-17	0.000000E+00
4.790000E+03	4.103274E-17	0.000000E+00
4.800000E+03	4.091264E-17	0.000000E+00
4.810000E+03	4.079416E-17	0.000000E+00
4.820000E+03	4.067772E-17	0.000000E+00
4.830000E+03	4.056251E-17	0.000000E+00
4.840000E+03	4.044895E-17	0.000000E+00
4.850000E+03	4.033704E-17	0.000000E+00
4.860000E+03	4.022640E-17	0.000000E+00
4.870000E+03	4.011701E-17	0.000000E+00
4.880000E+03	4.000931E-17	0.000000E+00
4.890000E+03	3.990289E-17	0.000000E+00
4.900000E+03	3.979817E-17	0.000000E+00
4.910000E+03	3.969434E-17	0.000000E+00
4.920000E+03	3.959184E-17	0.000000E+00
4.930000E+03	3.949065E-17	0.000000E+00
4.940000E+03	3.939039E-17	0.000000E+00
4.950000E+03	3.929147E-17	0.000000E+00
4.960000E+03	3.919352E-17	0.000000E+00
4.970000E+03	3.909693E-17	0.000000E+00
4.980000E+03	3.900132E-17	0.000000E+00
4.990000E+03	3.890669E-17	0.000000E+00
5.000000E+03	3.881268E-17	0.000000E+00
5.010000E+03	3.872008E-17	0.000000E+00
5.020000E+03	3.862810E-17	0.000000E+00
5.030000E+03	3.853679E-17	0.000000E+00
5.040000E+03	3.844652E-17	0.000000E+00
5.050000E+03	3.835693E-17	0.000000E+00
5.060000E+03	3.826805E-17	0.000000E+00
5.070000E+03	3.817986E-17	0.000000E+00
5.080000E+03	3.809241E-17	0.000000E+00
5.090000E+03	3.800531E-17	0.000000E+00
5.100000E+03	3.791857E-17	0.000000E+00
5.110000E+03	3.783262E-17	0.000000E+00
5.120000E+03	3.774669E-17	0.000000E+00
5.130000E+03	3.766156E-17	0.000000E+00
5.140000E+03	3.757613E-17	0.000000E+00
5.150000E+03	3.749115E-17	0.000000E+00
5.160000E+03	3.740628E-17	0.000000E+00
5.170000E+03	3.732154E-17	0.000000E+00
5.180000E+03	3.723696E-17	0.000000E+00
5.190000E+03	3.715217E-17	0.000000E+00
5.200000E+03	3.706721E-17	0.000000E+00
5.210000E+03	3.698171E-17	0.000000E+00
5.220000E+03	3.689646E-17	0.000000E+00
5.230000E+03	3.681037E-17	0.000000E+00
5.240000E+03	3.672383E-17	0.000000E+00
5.250000E+03	3.663689E-17	0.000000E+00
5.260000E+03	3.654956E-17	0.000000E+00
5.270000E+03	3.646113E-17	0.000000E+00
5.280000E+03	3.637202E-17	0.000000E+00
5.290000E+03	3.628189E-17	0.000000E+00
5.300000E+03	3.619077E-17	0.000000E+00
5.310000E+03	3.609834E-17	0.000000E+00
5.320000E+03	3.600500E-17	0.000000E+00
5.330000E+03	3.591008E-17	0.000000E+00
5.340000E+03	3.581358E-17	0.000000E+00
5.350000E+03	3.571523E-17	0.000000E+00
5.360000E+03	3.561541E-17	0.000000E+00
5.370000E+03	3.551310E-17	0.000000E+00
5.380000E+03	3.540872E-17	0.000000E+00
5.390000E+03	3.530195E-17	0.000000E+00
5.400000E+03	3.519249E-17	0.000000E+00
5.410000E+03	3.507936E-17	0.000000E+00
5.420000E+03	3.496227E-17	0.000000E+00
5.430000E+03	3.484093E-17	0.000000E+00
5.440000E+03	3.471369E-17	0.000000E+00
5.450000E+03	3.458030E-17	0.000000E+00
5.460000E+03	3.443947E-17	0.000000E+00
5.470000E+03	3.429062E-17	0.000000E+00
5.480000E+03	3.413493E-17	0.000000E+00
5.490000E+03	3.397214E-17	0.000000E+00
5.500000E+03	3.380340E-17	0.000000E+00
5.510000E+03	3.362915E-17	0.000000E+00
5.520000E+03	3.345085E-17	0.000000E+00
5.530000E+03	3.326823E-17	0.000000E+00
5.540000E+03	3.308204E-17	0.000000E+00
5.550000E+03	3.289236E-17	0.000000E+00
5.560000E+03	3.270028E-17	0.000000E+00
5.570000E+03	3.250549E-17	0.000000E+00
5.580000E+03	3.230842E-17	0.000000E+00
5.590000E+03	3.210913E-17	0.000000E+00
5.600000E+03	3.190830E-17	0.000000E+00
5.610000E+03	3.170568E-17	0.000000E+00
5.620000E+03	3.150164E-17	0.000000E+00
5.630000E+03	3.129654E-17	0.000000E+00
5.640000E+03	3.109043E-17	0.000000E+00
5.650000E+03	3.088368E-17	0.000000E+00
5.660000E+03	3.067600E-17	0.000000E+00
5.670000E+03	3.046774E-17	0.000000E+00
5.680000E+03	3.025925E-17	0.000000E+00
5.690000E+03	3.005057E-17	0.000000E+00
5.700000E+03	2.984172E-17	0.000000E+00
5.710000E+03	2.963273E-17	0.000000E+00
5.720000E+03	2.942426E-17	0.000000E+00
5.730000E+03	2.921569E-17	0.000000E+00
5.740000E+03	2.900766E-17	0.000000E+00
5.750000E+03	2.880019E-17	0.000000E+00
5.760000E+03	2.859300E-17	0.000000E+00
5.770000E+03	2.838640E-17	0.000000E+00
5.780000E+03	2.818071E-17	0.000000E+00
5.790000E+03	2.797564E-17	0.000000E+00
5.800000E+03	2.777118E-17	0.000000E+00
5.810000E+03	2.756798E-17	0.000000E+00
5.820000E+03	2.736540E-17	0.000000E+00
5.830000E+03	2.716377E-17	0.000000E+00
5.840000E+03	2.696309E-17	0.000000E+00
5.850000E+03	2.676337E-17	0.000000E+00
5.860000E+03	2.656489E-17	0.000000E+00
5.870000E+03	2.636708E-17	0.000000E+00
5.880000E+03	2.617051E-17	0.000000E+00
5.890000E+03	2.597490E-17	0.000000E+00
5.900000E+03	2.578024E-17	0.000000E+00
5.910000E+03	2.558654E-17	0.000000E+00
5.920000E+03	2.539378E-17	0.000000E+00
5.930000E+03	2.520227E-17	0.000000E+00
5.940000E+03	2.501141E-17	0.000000E+00
5.950000E+03	2.482121E-17	0.000000E+00
5.960000E+03	2.463194E-17	0.000000E+00
5.970000E+03	2.444361E-17	0.000000E+00
5.980000E+03	2.425565E-17	0.000000E+00
5.990000E+03	2.406862E-17	0.000000E+00
6.000000E+03	2.388167E-17	0.000000E+00
6.010000E+03	2.369564E-17	0.000000E+00
6.020000E+03	2.350971E-17	0.000000E+00
6.030000E+03	2.332386E-17	0.000000E+00
6.040000E+03	2.313837E-17	0.000000E+00
6.050000E+03	2.295298E-17	0.000000E+00
6.060000E+03	2.276768E-17	0.000000E+00
6.070000E+03	2.258193E-17	0.000000E+00
6.080000E+03	2.239629E-17	0.000000E+00
6.090000E+03	2.220994E-17	0.000000E+00
6.100000E+03	2.202342E-17	0.000000E+00
6.110000E+03	2.183650E-17	0.000000E+00
6.120000E+03	2.164889E-17	0.000000E+00
6.130000E+03	2.146063E-17	0.000000E+00
6.140000E+03	2.127196E-17	0.000000E+00
6.150000E+03	2.108266E-17	0.000000E+00
6.160000E+03	2.089272E-17	0.000000E+00
6.170000E+03	2.070269E-17	0.000000E+00
6.180000E+03	2.051204E-17	0.000000E+00
6.190000E+03	2.032106E-17	0.000000E+00
6.200000E+03	2.013001E-17	0.000000E+00
6.210000E+03	1.993916E-17	0.000000E+00
6.220000E+03	1.974827E-17	0.000000E+00
6.230000E+03	1.955734E-17	0.000000E+00
6.240000E+03	1.936665E-17	0.000000E+00
6.250000E+03	1.917596E-17	0.000000E+00
6.260000E+03	1.898554E-17	0.000000E+00
6.270000E+03	1.879540E-17	0.000000E+00
6.280000E+03	1.860583E-17	0.000000E+00
6.290000E+03	1.841684E-17	0.000000E+00
6.300000E+03	1.822846E-17	0.000000E+00
6.310000E+03	1.804096E-17	0.000000E+00
6.320000E+03	1.785462E-17	0.000000E+00
6.330000E+03	1.766922E-17	0.000000E+00
6.340000E+03	1.748505E-17	0.000000E+00
6.350000E+03	1.730240E-17	0.000000E+00
6.360000E+03	1.712106E-17	0.000000E+00
6.370000E+03	1.694159E-17	0.000000E+00
6.380000E+03	1.676402E-17	0.000000E+00
6.390000E+03	1.658842E-17	0.000000E+00
6.400000E+03	1.641488E-17	0.000000E+00
6.410000E+03	1.624395E-17	0.000000E+00
6.420000E+03	1.607547E-17	0.000000E+00
6.430000E+03	1.591002E-17	0.000000E+00
6.440000E+03	1.574767E-17	0.000000E+00
6.450000E+03	1.558838E-17	0.000000E+00
6.460000E+03	1.543225E-17	0.000000E+00
6.470000E+03	1.527909E-17	0.000000E+00
6.480000E+03	1.512898E-17	0.000000E+00
6.490000E+03	1.498130E-17	0.000000E+00
6.500000E+03	1.483638E-17	0.000000E+00
6.510000E+03	1.469409E-17	0.000000E+00
6.520000E+03	1.455411E-17	0.000000E+00
6.530000E+03	1.441656E-17	0.000000E+00
6.540000E+03	1.428139E-17	0.000000E+00
6.550000E+03	1.414849E-17	0.000000E+00
6.560000E+03	1.401782E-17	0.000000E+00
6.570000E+03	1.388954E-17	0.000000E+00
6.580000E+03	1.376338E-17	0.000000E+00
6.590000E+03	1.363930E-17	0.000000E+00
6.600000E+03	1.351747E-17	0.000000E+00
6.610000E+03	1.339786E-17	0.000000E+00
6.620000E+03	1.328022E-17	0.000000E+00
6.630000E+03	1.316473E-17	0.000000E+00
6.640000E+03	1.305117E-17	0.000000E+00
6.650000E+03	1.293993E-17	0.000000E+00
6.660000E+03	1.283055E-17	0.000000E+00
6.670000E+03	1.272304E-17	0.000000E+00
6.680000E+03	1.261756E-17	0.000000E+00
6.690000E+03	1.251412E-17	0.000000E+00
6.700000E+03	1.241247E-17	0.000000E+00
6.710000E+03	1.231262E-17	0.000000E+00
6.720000E+03	1.221474E-17	0.000000E+00
6.730000E+03	1.211863E-17	0.000000E+00
6.740000E+03	1.202447E-17	0.000000E+00
6.750000E+03	1.193184E-17	0.000000E+00
6.760000E+03	1.184114E-17	0.000000E+00
6.770000E+03	1.175195E-17	0.000000E+00
6.780000E+03	1.166466E-17	0.000000E+00
6.790000E+03	1.157886E-17	0.000000E+00
6.800000E+03	1.149474E-17	0.000000E+00
6.810000E+03	1.141229E-17	0.000000E+00
6.820000E+03	1.133129E-17	0.000000E+00
6.830000E+03	1.125193E-17	0.000000E+00
6.840000E+03	1.117401E-17	0.000000E+00
6.850000E+03	1.109773E-17	0.000000E+00
6.860000E+03	1.102265E-17	0.000000E+00
6.870000E+03	1.094918E-17	0.000000E+00
6.880000E+03	1.087710E-17	0.000000E+00
6.890000E+03	1.080642E-17	0.000000E+00
6.900000E+03	1.073690E-17	0.000000E+00
6.910000E+03	1.066895E-17	0.000000E+00
6.920000E+03	1.060196E-17	0.000000E+00
6.930000E+03	1.053652E-17	0.000000E+00
6.940000E+03	1.047222E-17	0.000000E+00
6.950000E+03	1.040904E-17	0.000000E+00
6.960000E+03	1.034719E-17	0.000000E+00
6.970000E+03	1.028645E-17	0.000000E+00
6.980000E+03	1.022681E-17	0.000000E+00
6.990000E+03	1.016827E-17	0.000000E+00
7.000000E+03	1.011081E-17	0.000000E+00
7.010000E+03	1.005443E-17	0.000000E+00
7.020000E+03	9.998920E-18	0.000000E+00
7.030000E+03	9.944665E-18	0.000000E+00
7.040000E+03	9.891072E-18	0.000000E+00
7.050000E+03	9.838714E-18	0.000000E+00
7.060000E+03	9.787001E-18	0.000000E+00
7.070000E+03	9.736312E-18	0.000000E+00
7.080000E+03	9.686448E-18	0.000000E+00
7.090000E+03	9.637403E-18	0.000000E+00
7.100000E+03	9.589357E-18	0.000000E+00
7.110000E+03	9.541925E-18	0.000000E+00
7.120000E+03	9.495279E-18	0.000000E+00
7.130000E+03	9.449232E-18	0.000000E+00
7.140000E+03	9.403964E-18	0.000000E+00
7.150000E+03	9.359467E-18	0.000000E+00
7.160000E+03	9.315544E-18	0.000000E+00
7.170000E+03	9.272384E-18	0.000000E+00
7.180000E+03	9.229595E-18	0.000000E+00
7.190000E+03	9.187553E-18	0.000000E+00
7.200000E+03	9.146053E-18	0.000000E+00
7.210000E+03	9.104916E-18	0.000000E+00
7.220000E+03	9.064322E-18	0.000000E+00
7.230000E+03	9.024262E-18	0.000000E+00
7.240000E+03	8.984542E-18	0.000000E+00
7.250000E+03	8.945167E-18	0.000000E+00
7.260000E+03	8.906123E-18	0.000000E+00
7.270000E+03	8.867409E-18	0.000000E+00
7.280000E+03	8.829018E-18	0.000000E+00
7.290000E+03	8.790587E-18	0.000000E+00
7.300000E+03	8.752487E-18	0.000000E+00
7.310000E+03	8.714513E-18	0.000000E+00
7.320000E+03	8.676492E-18	0.000000E+00
7.330000E+03	8.638605E-18	0.000000E+00
7.340000E+03	8.600489E-18	0.000000E+00
7.350000E+03	8.562145E-18	0.000000E+00
7.360000E+03	8.523573E-18	0.000000E+00
7.370000E+03	8.484592E-18	0.000000E+00
7.380000E+03	8.445390E-18	0.000000E+00
7.390000E+03	8.405425E-18	0.000000E+00
7.400000E+03	8.365067E-18	0.000000E+00
7.410000E+03	8.323969E-18	0.000000E+00
7.420000E+03	8.282297E-18	0.000000E+00
7.430000E+03	8.239893E-18	0.000000E+00
7.440000E+03	8.196765E-18	0.000000E+00
7.450000E+03	8.153078E-18	0.000000E+00
7.460000E+03	8.108675E-18	0.000000E+00
7.470000E+03	8.064084E-18	0.000000E+00
7.480000E+03	8.018949E-18	0.000000E+00
7.490000E+03	7.973634E-18	0.000000E+00
7.500000E+03	7.927964E-18	0.000000E+00
7.510000E+03	7.882452E-18	0.000000E+00
7.520000E+03	7.836934E-18	0.000000E+00
7.530000E+03	7.791406E-18	0.000000E+00
7.540000E+03	7.746039E-18	0.000000E+00
7.550000E+03	7.700836E-18	0.000000E+00
7.560000E+03	7.656131E-18	0.000000E+00
7.570000E+03	7.611585E-18	0.000000E+00
7.580000E+03	7.567367E-18	0.000000E+00
7.590000E+03	7.523642E-18	0.000000E+00
7.600000E+03	7.480239E-18	0.000000E+00
7.610000E+03	7.437324E-18	0.000000E+00
7.620000E+03	7.394729E-18	0.000000E+00
7.630000E+03	7.352783E-18	0.000000E+00
7.640000E+03	7.311151E-18	0.000000E+00
7.650000E+03	7.270163E-18	0.000000E+00
7.660000E+03	7.229484E-18	0.000000E+00
7.670000E+03	7.189443E-18	0.000000E+00
7.680000E+03	7.149708E-18	0.000000E+00
7.690000E+03	7.110604E-18	0.000000E+00
7.700000E+03	7.071966E-18	0.000000E+00
7.710000E+03	7.033790E-18	0.000000E+00
7.720000E+03	6.996076E-18	0.000000E+00
7.730000E+03	6.958820E-18	0.000000E+00
7.740000E+03	6.922021E-18	0.000000E+00
7.750000E+03	6.885517E-18	0.000000E+00
7.760000E+03	6.849626E-18	0.000000E+00
