#wls	flux	fluxerr
1.600000E+03	4.382747E-18	0.000000E+00
1.640000E+03	4.496425E-18	0.000000E+00
1.680000E+03	4.617511E-18	0.000000E+00
1.720000E+03	4.747172E-18	0.000000E+00
1.760000E+03	4.885531E-18	0.000000E+00
1.800000E+03	5.033251E-18	0.000000E+00
1.840000E+03	5.191543E-18	0.000000E+00
1.880000E+03	5.360565E-18	0.000000E+00
1.920000E+03	5.541568E-18	0.000000E+00
1.960000E+03	5.734735E-18	0.000000E+00
2.000000E+03	5.941898E-18	0.000000E+00
2.040000E+03	6.163282E-18	0.000000E+00
2.080000E+03	6.400222E-18	0.000000E+00
2.120000E+03	6.654083E-18	0.000000E+00
2.160000E+03	6.927931E-18	0.000000E+00
2.200000E+03	7.223781E-18	0.000000E+00
2.240000E+03	7.547625E-18	0.000000E+00
2.280000E+03	7.903891E-18	0.000000E+00
2.320000E+03	8.295979E-18	0.000000E+00
2.360000E+03	8.725658E-18	0.000000E+00
2.400000E+03	9.194182E-18	0.000000E+00
2.440000E+03	9.703420E-18	0.000000E+00
2.480000E+03	1.025588E-17	0.000000E+00
2.520000E+03	1.085532E-17	0.000000E+00
2.560000E+03	1.150558E-17	0.000000E+00
2.600000E+03	1.220948E-17	0.000000E+00
2.640000E+03	1.297164E-17	0.000000E+00
2.680000E+03	1.379510E-17	0.000000E+00
2.720000E+03	1.468357E-17	0.000000E+00
2.760000E+03	1.564028E-17	0.000000E+00
2.800000E+03	1.666800E-17	0.000000E+00
2.840000E+03	1.777019E-17	0.000000E+00
2.880000E+03	1.894923E-17	0.000000E+00
2.920000E+03	2.021254E-17	0.000000E+00
2.960000E+03	2.157220E-17	0.000000E+00
3.000000E+03	2.304566E-17	0.000000E+00
3.010000E+03	2.343363E-17	0.000000E+00
3.020000E+03	2.383004E-17	0.000000E+00
3.030000E+03	2.423558E-17	0.000000E+00
3.040000E+03	2.465030E-17	0.000000E+00
3.050000E+03	2.507426E-17	0.000000E+00
3.060000E+03	2.550879E-17	0.000000E+00
3.070000E+03	2.595268E-17	0.000000E+00
3.080000E+03	2.640727E-17	0.000000E+00
3.090000E+03	2.687262E-17	0.000000E+00
3.100000E+03	2.734943E-17	0.000000E+00
3.110000E+03	2.783779E-17	0.000000E+00
3.120000E+03	2.833840E-17	0.000000E+00
3.130000E+03	2.885135E-17	0.000000E+00
3.140000E+03	2.937671E-17	0.000000E+00
3.150000E+03	2.991521E-17	0.000000E+00
3.160000E+03	3.046758E-17	0.000000E+00
3.170000E+03	3.103389E-17	0.000000E+00
3.180000E+03	3.161427E-17	0.000000E+00
3.190000E+03	3.220944E-17	0.000000E+00
3.200000E+03	3.282014E-17	0.000000E+00
3.210000E+03	3.344648E-17	0.000000E+00
3.220000E+03	3.408857E-17	0.000000E+00
3.230000E+03	3.474650E-17	0.000000E+00
3.240000E+03	3.542169E-17	0.000000E+00
3.250000E+03	3.611427E-17	0.000000E+00
3.260000E+03	3.682435E-17	0.000000E+00
3.270000E+03	3.755203E-17	0.000000E+00
3.280000E+03	3.829810E-17	0.000000E+00
3.290000E+03	3.906203E-17	0.000000E+00
3.300000E+03	3.984594E-17	0.000000E+00
3.310000E+03	4.064861E-17	0.000000E+00
3.320000E+03	4.147018E-17	0.000000E+00
3.330000E+03	4.231212E-17	0.000000E+00
3.340000E+03	4.317390E-17	0.000000E+00
3.350000E+03	4.405565E-17	0.000000E+00
3.360000E+03	4.495751E-17	0.000000E+00
3.370000E+03	4.587962E-17	0.000000E+00
3.380000E+03	4.682214E-17	0.000000E+00
3.390000E+03	4.778450E-17	0.000000E+00
3.400000E+03	4.876822E-17	0.000000E+00
3.410000E+03	4.977142E-17	0.000000E+00
3.420000E+03	5.079422E-17	0.000000E+00
3.430000E+03	5.183744E-17	0.000000E+00
3.440000E+03	5.289988E-17	0.000000E+00
3.450000E+03	5.398027E-17	0.000000E+00
3.460000E+03	5.507946E-17	0.000000E+00
3.470000E+03	5.619619E-17	0.000000E+00
3.480000E+03	5.732921E-17	0.000000E+00
3.490000E+03	5.847795E-17	0.000000E+00
3.500000E+03	5.964115E-17	0.000000E+00
3.510000E+03	6.081609E-17	0.000000E+00
3.520000E+03	6.200221E-17	0.000000E+00
3.530000E+03	6.319677E-17	0.000000E+00
3.540000E+03	6.439775E-17	0.000000E+00
3.550000E+03	6.560098E-17	0.000000E+00
3.560000E+03	6.680437E-17	0.000000E+00
3.570000E+03	6.800441E-17	0.000000E+00
3.580000E+03	6.919682E-17	0.000000E+00
3.590000E+03	7.037944E-17	0.000000E+00
3.600000E+03	7.154864E-17	0.000000E+00
3.610000E+03	7.270078E-17	0.000000E+00
3.620000E+03	7.383430E-17	0.000000E+00
3.630000E+03	7.494763E-17	0.000000E+00
3.640000E+03	7.604064E-17	0.000000E+00
3.650000E+03	7.711101E-17	0.000000E+00
3.660000E+03	7.815857E-17	0.000000E+00
3.670000E+03	7.918243E-17	0.000000E+00
3.680000E+03	8.018385E-17	0.000000E+00
3.690000E+03	8.116049E-17	0.000000E+00
3.700000E+03	8.211433E-17	0.000000E+00
3.710000E+03	8.304373E-17	0.000000E+00
3.720000E+03	8.394922E-17	0.000000E+00
3.730000E+03	8.483136E-17	0.000000E+00
3.740000E+03	8.568994E-17	0.000000E+00
3.750000E+03	8.652476E-17	0.000000E+00
3.760000E+03	8.733710E-17	0.000000E+00
3.770000E+03	8.812605E-17	0.000000E+00
3.780000E+03	8.889361E-17	0.000000E+00
3.790000E+03	8.963812E-17	0.000000E+00
3.800000E+03	9.036160E-17	0.000000E+00
3.810000E+03	9.106312E-17	0.000000E+00
3.820000E+03	9.174399E-17	0.000000E+00
3.830000E+03	9.240476E-17	0.000000E+00
3.840000E+03	9.304449E-17	0.000000E+00
3.850000E+03	9.366526E-17	0.000000E+00
3.860000E+03	9.426686E-17	0.000000E+00
3.870000E+03	9.484913E-17	0.000000E+00
3.880000E+03	9.541340E-17	0.000000E+00
3.890000E+03	9.595871E-17	0.000000E+00
3.900000E+03	9.648718E-17	0.000000E+00
3.910000E+03	9.699786E-17	0.000000E+00
3.920000E+03	9.749210E-17	0.000000E+00
3.930000E+03	9.796973E-17	0.000000E+00
3.940000E+03	9.843056E-17	0.000000E+00
3.950000E+03	9.887597E-17	0.000000E+00
3.960000E+03	9.930501E-17	0.000000E+00
3.970000E+03	9.971905E-17	0.000000E+00
3.980000E+03	1.001179E-16	0.000000E+00
3.990000E+03	1.005014E-16	0.000000E+00
4.000000E+03	1.008702E-16	0.000000E+00
4.010000E+03	1.012248E-16	0.000000E+00
4.020000E+03	1.015644E-16	0.000000E+00
4.030000E+03	1.018895E-16	0.000000E+00
4.040000E+03	1.022007E-16	0.000000E+00
4.050000E+03	1.024979E-16	0.000000E+00
4.060000E+03	1.027800E-16	0.000000E+00
4.070000E+03	1.030486E-16	0.000000E+00
4.080000E+03	1.033034E-16	0.000000E+00
4.090000E+03	1.035443E-16	0.000000E+00
4.100000E+03	1.037710E-16	0.000000E+00
4.110000E+03	1.039834E-16	0.000000E+00
4.120000E+03	1.041814E-16	0.000000E+00
4.130000E+03	1.043663E-16	0.000000E+00
4.140000E+03	1.045371E-16	0.000000E+00
4.150000E+03	1.046938E-16	0.000000E+00
4.160000E+03	1.048360E-16	0.000000E+00
4.170000E+03	1.049653E-16	0.000000E+00
4.180000E+03	1.050807E-16	0.000000E+00
4.190000E+03	1.051826E-16	0.000000E+00
4.200000E+03	1.052712E-16	0.000000E+00
4.210000E+03	1.053469E-16	0.000000E+00
4.220000E+03	1.054096E-16	0.000000E+00
4.230000E+03	1.054608E-16	0.000000E+00
4.240000E+03	1.055003E-16	0.000000E+00
4.250000E+03	1.055297E-16	0.000000E+00
4.260000E+03	1.055486E-16	0.000000E+00
4.270000E+03	1.055588E-16	0.000000E+00
4.280000E+03	1.055616E-16	0.000000E+00
4.290000E+03	1.055579E-16	0.000000E+00
4.300000E+03	1.055491E-16	0.000000E+00
4.310000E+03	1.055377E-16	0.000000E+00
4.320000E+03	1.055244E-16	0.000000E+00
4.330000E+03	1.055108E-16	0.000000E+00
4.340000E+03	1.054985E-16	0.000000E+00
4.350000E+03	1.054865E-16	0.000000E+00
4.360000E+03	1.054765E-16	0.000000E+00
4.370000E+03	1.054677E-16	0.000000E+00
4.380000E+03	1.054596E-16	0.000000E+00
4.390000E+03	1.054525E-16	0.000000E+00
4.400000E+03	1.054453E-16	0.000000E+00
4.410000E+03	1.054362E-16	0.000000E+00
4.420000E+03	1.054252E-16	0.000000E+00
4.430000E+03	1.054095E-16	0.000000E+00
4.440000E+03	1.053881E-16	0.000000E+00
4.450000E+03	1.053609E-16	0.000000E+00
4.460000E+03	1.053270E-16	0.000000E+00
4.470000E+03	1.052854E-16	0.000000E+00
4.480000E+03	1.052360E-16	0.000000E+00
4.490000E+03	1.051776E-16	0.000000E+00
4.500000E+03	1.051095E-16	0.000000E+00
4.510000E+03	1.050330E-16	0.000000E+00
4.520000E+03	1.049475E-16	0.000000E+00
4.530000E+03	1.048526E-16	0.000000E+00
4.540000E+03	1.047483E-16	0.000000E+00
4.550000E+03	1.046345E-16	0.000000E+00
4.560000E+03	1.045119E-16	0.000000E+00
4.570000E+03	1.043805E-16	0.000000E+00
4.580000E+03	1.042402E-16	0.000000E+00
4.590000E+03	1.040908E-16	0.000000E+00
4.600000E+03	1.039333E-16	0.000000E+00
4.610000E+03	1.037674E-16	0.000000E+00
4.620000E+03	1.035924E-16	0.000000E+00
4.630000E+03	1.034089E-16	0.000000E+00
4.640000E+03	1.032170E-16	0.000000E+00
4.650000E+03	1.030165E-16	0.000000E+00
4.660000E+03	1.028057E-16	0.000000E+00
4.670000E+03	1.025855E-16	0.000000E+00
4.680000E+03	1.023540E-16	0.000000E+00
4.690000E+03	1.021121E-16	0.000000E+00
4.700000E+03	1.018606E-16	0.000000E+00
4.710000E+03	1.015987E-16	0.000000E+00
4.720000E+03	1.013281E-16	0.000000E+00
4.730000E+03	1.010497E-16	0.000000E+00
4.740000E+03	1.007645E-16	0.000000E+00
4.750000E+03	1.004732E-16	0.000000E+00
4.760000E+03	1.001768E-16	0.000000E+00
4.770000E+03	9.987455E-17	0.000000E+00
4.780000E+03	9.956723E-17	0.000000E+00
4.790000E+03	9.925581E-17	0.000000E+00
4.800000E+03	9.894034E-17	0.000000E+00
4.810000E+03	9.862087E-17	0.000000E+00
4.820000E+03	9.829834E-17	0.000000E+00
4.830000E+03	9.797193E-17	0.000000E+00
4.840000E+03	9.764259E-17	0.000000E+00
4.850000E+03	9.731039E-17	0.000000E+00
4.860000E+03	9.697454E-17	0.000000E+00
4.870000E+03	9.663599E-17	0.000000E+00
4.880000E+03	9.629484E-17	0.000000E+00
4.890000E+03	9.595117E-17	0.000000E+00
4.900000E+03	9.560507E-17	0.000000E+00
4.910000E+03	9.525578E-17	0.000000E+00
4.920000E+03	9.490514E-17	0.000000E+00
4.930000E+03	9.455152E-17	0.000000E+00
4.940000E+03	9.419589E-17	0.000000E+00
4.950000E+03	9.383838E-17	0.000000E+00
4.960000E+03	9.347822E-17	0.000000E+00
4.970000E+03	9.311642E-17	0.000000E+00
4.980000E+03	9.275310E-17	0.000000E+00
4.990000E+03	9.238834E-17	0.000000E+00
5.000000E+03	9.202060E-17	0.000000E+00
5.010000E+03	9.165257E-17	0.000000E+00
5.020000E+03	9.128180E-17	0.000000E+00
5.030000E+03	9.091015E-17	0.000000E+00
5.040000E+03	9.053772E-17	0.000000E+00
5.050000E+03	9.016298E-17	0.000000E+00
5.060000E+03	8.978689E-17	0.000000E+00
5.070000E+03	8.941045E-17	0.000000E+00
5.080000E+03	8.903211E-17	0.000000E+00
5.090000E+03	8.865284E-17	0.000000E+00
5.100000E+03	8.827278E-17	0.000000E+00
5.110000E+03	8.789208E-17	0.000000E+00
5.120000E+03	8.751004E-17	0.000000E+00
5.130000E+03	8.712680E-17	0.000000E+00
5.140000E+03	8.674334E-17	0.000000E+00
5.150000E+03	8.635895E-17	0.000000E+00
5.160000E+03	8.597379E-17	0.000000E+00
5.170000E+03	8.558798E-17	0.000000E+00
5.180000E+03	8.520168E-17	0.000000E+00
5.190000E+03	8.481421E-17	0.000000E+00
5.200000E+03	8.442652E-17	0.000000E+00
5.210000E+03	8.403873E-17	0.000000E+00
5.220000E+03	8.365020E-17	0.000000E+00
5.230000E+03	8.326103E-17	0.000000E+00
5.240000E+03	8.287218E-17	0.000000E+00
5.250000E+03	8.248297E-17	0.000000E+00
5.260000E+03	8.209274E-17	0.000000E+00
5.270000E+03	8.170242E-17	0.000000E+00
5.280000E+03	8.131214E-17	0.000000E+00
5.290000E+03	8.092202E-17	0.000000E+00
5.300000E+03	8.053142E-17	0.000000E+00
5.310000E+03	8.014044E-17	0.000000E+00
5.320000E+03	7.974922E-17	0.000000E+00
5.330000E+03	7.935788E-17	0.000000E+00
5.340000E+03	7.896655E-17	0.000000E+00
5.350000E+03	7.857457E-17	0.000000E+00
5.360000E+03	7.818284E-17	0.000000E+00
5.370000E+03	7.779071E-17	0.000000E+00
5.380000E+03	7.739828E-17	0.000000E+00
5.390000E+03	7.700494E-17	0.000000E+00
5.400000E+03	7.661154E-17	0.000000E+00
5.410000E+03	7.621744E-17	0.000000E+00
5.420000E+03	7.582277E-17	0.000000E+00
5.430000E+03	7.542765E-17	0.000000E+00
5.440000E+03	7.503292E-17	0.000000E+00
5.450000E+03	7.463870E-17	0.000000E+00
5.460000E+03	7.424582E-17	0.000000E+00
5.470000E+03	7.385214E-17	0.000000E+00
5.480000E+03	7.345779E-17	0.000000E+00
5.490000E+03	7.306139E-17	0.000000E+00
5.500000E+03	7.266306E-17	0.000000E+00
5.510000E+03	7.226292E-17	0.000000E+00
5.520000E+03	7.186035E-17	0.000000E+00
5.530000E+03	7.145692E-17	0.000000E+00
5.540000E+03	7.105202E-17	0.000000E+00
5.550000E+03	7.064502E-17	0.000000E+00
5.560000E+03	7.023603E-17	0.000000E+00
5.570000E+03	6.982587E-17	0.000000E+00
5.580000E+03	6.941394E-17	0.000000E+00
5.590000E+03	6.900032E-17	0.000000E+00
5.600000E+03	6.858513E-17	0.000000E+00
5.610000E+03	6.816844E-17	0.000000E+00
5.620000E+03	6.775035E-17	0.000000E+00
5.630000E+03	6.733096E-17	0.000000E+00
5.640000E+03	6.690964E-17	0.000000E+00
5.650000E+03	6.648718E-17	0.000000E+00
5.660000E+03	6.606298E-17	0.000000E+00
5.670000E+03	6.563779E-17	0.000000E+00
5.680000E+03	6.521102E-17	0.000000E+00
5.690000E+03	6.478273E-17	0.000000E+00
5.700000E+03	6.435368E-17	0.000000E+00
5.710000E+03	6.392326E-17	0.000000E+00
5.720000E+03	6.349222E-17	0.000000E+00
5.730000E+03	6.305993E-17	0.000000E+00
5.740000E+03	6.262645E-17	0.000000E+00
5.750000E+03	6.219185E-17	0.000000E+00
5.760000E+03	6.175751E-17	0.000000E+00
5.770000E+03	6.132149E-17	0.000000E+00
5.780000E+03	6.088582E-17	0.000000E+00
5.790000E+03	6.044855E-17	0.000000E+00
5.800000E+03	6.001174E-17	0.000000E+00
5.810000E+03	5.957471E-17	0.000000E+00
5.820000E+03	5.913687E-17	0.000000E+00
5.830000E+03	5.869956E-17	0.000000E+00
5.840000E+03	5.826214E-17	0.000000E+00
5.850000E+03	5.782528E-17	0.000000E+00
5.860000E+03	5.738770E-17	0.000000E+00
5.870000E+03	5.695137E-17	0.000000E+00
5.880000E+03	5.651500E-17	0.000000E+00
5.890000E+03	5.607988E-17	0.000000E+00
5.900000E+03	5.564473E-17	0.000000E+00
5.910000E+03	5.521082E-17	0.000000E+00
5.920000E+03	5.477817E-17	0.000000E+00
5.930000E+03	5.434674E-17	0.000000E+00
5.940000E+03	5.391590E-17	0.000000E+00
5.950000E+03	5.348690E-17	0.000000E+00
5.960000E+03	5.305969E-17	0.000000E+00
5.970000E+03	5.263365E-17	0.000000E+00
5.980000E+03	5.220999E-17	0.000000E+00
5.990000E+03	5.178805E-17	0.000000E+00
6.000000E+03	5.136839E-17	0.000000E+00
6.010000E+03	5.095164E-17	0.000000E+00
6.020000E+03	5.053707E-17	0.000000E+00
6.030000E+03	5.012528E-17	0.000000E+00
6.040000E+03	4.971684E-17	0.000000E+00
6.050000E+03	4.931227E-17	0.000000E+00
6.060000E+03	4.891089E-17	0.000000E+00
6.070000E+03	4.851325E-17	0.000000E+00
6.080000E+03	4.812048E-17	0.000000E+00
6.090000E+03	4.773189E-17	0.000000E+00
6.100000E+03	4.734860E-17	0.000000E+00
6.110000E+03	4.696990E-17	0.000000E+00
6.120000E+03	4.659750E-17	0.000000E+00
6.130000E+03	4.623068E-17	0.000000E+00
6.140000E+03	4.586933E-17	0.000000E+00
6.150000E+03	4.551451E-17	0.000000E+00
6.160000E+03	4.516551E-17	0.000000E+00
6.170000E+03	4.482159E-17	0.000000E+00
6.180000E+03	4.448378E-17	0.000000E+00
6.190000E+03	4.415196E-17	0.000000E+00
6.200000E+03	4.382538E-17	0.000000E+00
6.210000E+03	4.350446E-17	0.000000E+00
6.220000E+03	4.318787E-17	0.000000E+00
6.230000E+03	4.287601E-17	0.000000E+00
6.240000E+03	4.256873E-17	0.000000E+00
6.250000E+03	4.226524E-17	0.000000E+00
6.260000E+03	4.196538E-17	0.000000E+00
6.270000E+03	4.166836E-17	0.000000E+00
6.280000E+03	4.137457E-17	0.000000E+00
6.290000E+03	4.108380E-17	0.000000E+00
6.300000E+03	4.079588E-17	0.000000E+00
6.310000E+03	4.050939E-17	0.000000E+00
6.320000E+03	4.022590E-17	0.000000E+00
6.330000E+03	3.994399E-17	0.000000E+00
6.340000E+03	3.966463E-17	0.000000E+00
6.350000E+03	3.938699E-17	0.000000E+00
6.360000E+03	3.911087E-17	0.000000E+00
6.370000E+03	3.883660E-17	0.000000E+00
6.380000E+03	3.856454E-17	0.000000E+00
6.390000E+03	3.829391E-17	0.000000E+00
6.400000E+03	3.802504E-17	0.000000E+00
6.410000E+03	3.775776E-17	0.000000E+00
6.420000E+03	3.749130E-17	0.000000E+00
6.430000E+03	3.722491E-17	0.000000E+00
6.440000E+03	3.695903E-17	0.000000E+00
6.450000E+03	3.669251E-17	0.000000E+00
6.460000E+03	3.642561E-17	0.000000E+00
6.470000E+03	3.615857E-17	0.000000E+00
6.480000E+03	3.589111E-17	0.000000E+00
6.490000E+03	3.562350E-17	0.000000E+00
6.500000E+03	3.535601E-17	0.000000E+00
6.510000E+03	3.508781E-17	0.000000E+00
6.520000E+03	3.481972E-17	0.000000E+00
6.530000E+03	3.455199E-17	0.000000E+00
6.540000E+03	3.428487E-17	0.000000E+00
6.550000E+03	3.401751E-17	0.000000E+00
6.560000E+03	3.375070E-17	0.000000E+00
6.570000E+03	3.348464E-17	0.000000E+00
6.580000E+03	3.321901E-17	0.000000E+00
6.590000E+03	3.295400E-17	0.000000E+00
6.600000E+03	3.269030E-17	0.000000E+00
6.610000E+03	3.242757E-17	0.000000E+00
6.620000E+03	3.216595E-17	0.000000E+00
6.630000E+03	3.190558E-17	0.000000E+00
6.640000E+03	3.164658E-17	0.000000E+00
6.650000E+03	3.138908E-17	0.000000E+00
6.660000E+03	3.113263E-17	0.000000E+00
6.670000E+03	3.087789E-17	0.000000E+00
6.680000E+03	3.062490E-17	0.000000E+00
6.690000E+03	3.037373E-17	0.000000E+00
6.700000E+03	3.012395E-17	0.000000E+00
6.710000E+03	2.987663E-17	0.000000E+00
6.720000E+03	2.963079E-17	0.000000E+00
6.730000E+03	2.938648E-17	0.000000E+00
6.740000E+03	2.914472E-17	0.000000E+00
6.750000E+03	2.890455E-17	0.000000E+00
6.760000E+03	2.866648E-17	0.000000E+00
6.770000E+03	2.843002E-17	0.000000E+00
6.780000E+03	2.819617E-17	0.000000E+00
6.790000E+03	2.796395E-17	0.000000E+00
6.800000E+03	2.773386E-17	0.000000E+00
6.810000E+03	2.750587E-17	0.000000E+00
6.820000E+03	2.727998E-17	0.000000E+00
6.830000E+03	2.705619E-17	0.000000E+00
6.840000E+03	2.683447E-17	0.000000E+00
6.850000E+03	2.661433E-17	0.000000E+00
6.860000E+03	2.639670E-17	0.000000E+00
6.870000E+03	2.618062E-17	0.000000E+00
6.880000E+03	2.596700E-17	0.000000E+00
6.890000E+03	2.575534E-17	0.000000E+00
6.900000E+03	2.554515E-17	0.000000E+00
6.910000E+03	2.533733E-17	0.000000E+00
6.920000E+03	2.513140E-17	0.000000E+00
6.930000E+03	2.492731E-17	0.000000E+00
6.940000E+03	2.472504E-17	0.000000E+00
6.950000E+03	2.452503E-17	0.000000E+00
6.960000E+03	2.432629E-17	0.000000E+00
6.970000E+03	2.412974E-17	0.000000E+00
6.980000E+03	2.393487E-17	0.000000E+00
6.990000E+03	2.374166E-17	0.000000E+00
7.000000E+03	2.355006E-17	0.000000E+00
7.010000E+03	2.336050E-17	0.000000E+00
7.020000E+03	2.317250E-17	0.000000E+00
7.030000E+03	2.298601E-17	0.000000E+00
7.040000E+03	2.280146E-17	0.000000E+00
7.050000E+03	2.261835E-17	0.000000E+00
7.060000E+03	2.243711E-17	0.000000E+00
7.070000E+03	2.225724E-17	0.000000E+00
7.080000E+03	2.207873E-17	0.000000E+00
7.090000E+03	2.190199E-17	0.000000E+00
7.100000E+03	2.172696E-17	0.000000E+00
7.110000E+03	2.155321E-17	0.000000E+00
7.120000E+03	2.138153E-17	0.000000E+00
7.130000E+03	2.121061E-17	0.000000E+00
7.140000E+03	2.104173E-17	0.000000E+00
7.150000E+03	2.087399E-17	0.000000E+00
7.160000E+03	2.070777E-17	0.000000E+00
7.170000E+03	2.054348E-17	0.000000E+00
7.180000E+03	2.038025E-17	0.000000E+00
7.190000E+03	2.021846E-17	0.000000E+00
7.200000E+03	2.005851E-17	0.000000E+00
7.210000E+03	1.989952E-17	0.000000E+00
7.220000E+03	1.974232E-17	0.000000E+00
7.230000E+03	1.958687E-17	0.000000E+00
7.240000E+03	1.943272E-17	0.000000E+00
7.250000E+03	1.927986E-17	0.000000E+00
7.260000E+03	1.912826E-17	0.000000E+00
7.270000E+03	1.897871E-17	0.000000E+00
7.280000E+03	1.882995E-17	0.000000E+00
7.290000E+03	1.868320E-17	0.000000E+00
7.300000E+03	1.853721E-17	0.000000E+00
7.310000E+03	1.839318E-17	0.000000E+00
7.320000E+03	1.824985E-17	0.000000E+00
7.330000E+03	1.810803E-17	0.000000E+00
7.340000E+03	1.796729E-17	0.000000E+00
7.350000E+03	1.782763E-17	0.000000E+00
7.360000E+03	1.768900E-17	0.000000E+00
7.370000E+03	1.755063E-17	0.000000E+00
7.380000E+03	1.741326E-17	0.000000E+00
7.390000E+03	1.727573E-17	0.000000E+00
7.400000E+03	1.713880E-17	0.000000E+00
7.410000E+03	1.700169E-17	0.000000E+00
7.420000E+03	1.686400E-17	0.000000E+00
7.430000E+03	1.672575E-17	0.000000E+00
7.440000E+03	1.658770E-17	0.000000E+00
7.450000E+03	1.644947E-17	0.000000E+00
7.460000E+03	1.631221E-17	0.000000E+00
7.470000E+03	1.617515E-17	0.000000E+00
7.480000E+03	1.603906E-17	0.000000E+00
7.490000E+03	1.590429E-17	0.000000E+00
7.500000E+03	1.577086E-17	0.000000E+00
7.510000E+03	1.563872E-17	0.000000E+00
7.520000E+03	1.550789E-17	0.000000E+00
7.530000E+03	1.537873E-17	0.000000E+00
7.540000E+03	1.525084E-17	0.000000E+00
7.550000E+03	1.512460E-17	0.000000E+00
7.560000E+03	1.499998E-17	0.000000E+00
7.570000E+03	1.487660E-17	0.000000E+00
7.580000E+03	1.475446E-17	0.000000E+00
7.590000E+03	1.463392E-17	0.000000E+00
7.600000E+03	1.451496E-17	0.000000E+00
7.610000E+03	1.439685E-17	0.000000E+00
7.620000E+03	1.428030E-17	0.000000E+00
7.630000E+03	1.416496E-17	0.000000E+00
7.640000E+03	1.405079E-17	0.000000E+00
7.650000E+03	1.393746E-17	0.000000E+00
7.660000E+03	1.382566E-17	0.000000E+00
7.670000E+03	1.371503E-17	0.000000E+00
7.680000E+03	1.360523E-17	0.000000E+00
7.690000E+03	1.349694E-17	0.000000E+00
7.700000E+03	1.338945E-17	0.000000E+00
7.710000E+03	1.328312E-17	0.000000E+00
7.720000E+03	1.317794E-17	0.000000E+00
7.730000E+03	1.307391E-17	0.000000E+00
7.740000E+03	1.297104E-17	0.000000E+00
7.750000E+03	1.286964E-17	0.000000E+00
7.760000E+03	1.276903E-17	0.000000E+00
