#wls	flux	fluxerr
1.600000E+03	4.559852E-18	2.371638E-19
1.640000E+03	4.607244E-18	2.394934E-19
1.680000E+03	4.657134E-18	2.419461E-19
1.720000E+03	4.710977E-18	2.445970E-19
1.760000E+03	4.767378E-18	2.473731E-19
1.800000E+03	4.828525E-18	2.503874E-19
1.840000E+03	4.893744E-18	2.536043E-19
1.880000E+03	4.964529E-18	2.571004E-19
1.920000E+03	5.041667E-18	2.609156E-19
1.960000E+03	5.125957E-18	2.650901E-19
2.000000E+03	5.218208E-18	2.696647E-19
2.040000E+03	5.319977E-18	2.747184E-19
2.080000E+03	5.432846E-18	2.803314E-19
2.120000E+03	5.557678E-18	2.865464E-19
2.160000E+03	5.696093E-18	2.934448E-19
2.200000E+03	5.849736E-18	3.011090E-19
2.240000E+03	6.019529E-18	3.095840E-19
2.280000E+03	6.206413E-18	3.189150E-19
2.320000E+03	6.411342E-18	3.291482E-19
2.360000E+03	6.635289E-18	3.403299E-19
2.400000E+03	6.879246E-18	3.525073E-19
2.440000E+03	7.144224E-18	3.657283E-19
2.480000E+03	7.429725E-18	3.799630E-19
2.520000E+03	7.736787E-18	3.952601E-19
2.560000E+03	8.066468E-18	4.116688E-19
2.600000E+03	8.419851E-18	4.292393E-19
2.640000E+03	8.796493E-18	4.479434E-19
2.680000E+03	9.198293E-18	4.678721E-19
2.720000E+03	9.625624E-18	4.890381E-19
2.760000E+03	1.008045E-17	5.115347E-19
2.800000E+03	1.056242E-17	5.353368E-19
2.840000E+03	1.107357E-17	5.605397E-19
2.880000E+03	1.161278E-17	5.870799E-19
2.920000E+03	1.218057E-17	6.149743E-19
2.960000E+03	1.278066E-17	6.444030E-19
3.000000E+03	1.341448E-17	6.754281E-19
3.010000E+03	1.357945E-17	6.834952E-19
3.020000E+03	1.374647E-17	6.916582E-19
3.030000E+03	1.391638E-17	6.999592E-19
3.040000E+03	1.408917E-17	7.083978E-19
3.050000E+03	1.426487E-17	7.169755E-19
3.060000E+03	1.444269E-17	7.256512E-19
3.070000E+03	1.462425E-17	7.345076E-19
3.080000E+03	1.480957E-17	7.435443E-19
3.090000E+03	1.499706E-17	7.526814E-19
3.100000E+03	1.518833E-17	7.620002E-19
3.110000E+03	1.538341E-17	7.715016E-19
3.120000E+03	1.558233E-17	7.811860E-19
3.130000E+03	1.578509E-17	7.910544E-19
3.140000E+03	1.599172E-17	8.011077E-19
3.150000E+03	1.620225E-17	8.113462E-19
3.160000E+03	1.641749E-17	8.218115E-19
3.170000E+03	1.663750E-17	8.325053E-19
3.180000E+03	1.686146E-17	8.433861E-19
3.190000E+03	1.709103E-17	8.545375E-19
3.200000E+03	1.732543E-17	8.659196E-19
3.210000E+03	1.756466E-17	8.775323E-19
3.220000E+03	1.780961E-17	8.894193E-19
3.230000E+03	1.806110E-17	9.016214E-19
3.240000E+03	1.831754E-17	9.140583E-19
3.250000E+03	1.858058E-17	9.268127E-19
3.260000E+03	1.884944E-17	9.398447E-19
3.270000E+03	1.912581E-17	9.532383E-19
3.280000E+03	1.940889E-17	9.669532E-19
3.290000E+03	1.969874E-17	9.809913E-19
3.300000E+03	1.999620E-17	9.953945E-19
3.310000E+03	2.030132E-17	1.010165E-18
3.320000E+03	2.061498E-17	1.025345E-18
3.330000E+03	2.093639E-17	1.040896E-18
3.340000E+03	2.126727E-17	1.056901E-18
3.350000E+03	2.160681E-17	1.073321E-18
3.360000E+03	2.195592E-17	1.090199E-18
3.370000E+03	2.231380E-17	1.107495E-18
3.380000E+03	2.268302E-17	1.125337E-18
3.390000E+03	2.306197E-17	1.143643E-18
3.400000E+03	2.345153E-17	1.162456E-18
3.410000E+03	2.385262E-17	1.181821E-18
3.420000E+03	2.426530E-17	1.201740E-18
3.430000E+03	2.468963E-17	1.222215E-18
3.440000E+03	2.512652E-17	1.243291E-18
3.450000E+03	2.557604E-17	1.264970E-18
3.460000E+03	2.603912E-17	1.287296E-18
3.470000E+03	2.651412E-17	1.310188E-18
3.480000E+03	2.700368E-17	1.333776E-18
3.490000E+03	2.750702E-17	1.358019E-18
3.500000E+03	2.802423E-17	1.382921E-18
3.510000E+03	2.855623E-17	1.408526E-18
3.520000E+03	2.910225E-17	1.434795E-18
3.530000E+03	2.966324E-17	1.461774E-18
3.540000E+03	3.023841E-17	1.489422E-18
3.550000E+03	3.082784E-17	1.517743E-18
3.560000E+03	3.142989E-17	1.546654E-18
3.570000E+03	3.204548E-17	1.576200E-18
3.580000E+03	3.267385E-17	1.606343E-18
3.590000E+03	3.331331E-17	1.636997E-18
3.600000E+03	3.396393E-17	1.668166E-18
3.610000E+03	3.462491E-17	1.699809E-18
3.620000E+03	3.529632E-17	1.731928E-18
3.630000E+03	3.597646E-17	1.764441E-18
3.640000E+03	3.666539E-17	1.797348E-18
3.650000E+03	3.736229E-17	1.830608E-18
3.660000E+03	3.806723E-17	1.864225E-18
3.670000E+03	3.877847E-17	1.898111E-18
3.680000E+03	3.949785E-17	1.932358E-18
3.690000E+03	4.022277E-17	1.966835E-18
3.700000E+03	4.095324E-17	2.001545E-18
3.710000E+03	4.169023E-17	2.036532E-18
3.720000E+03	4.243200E-17	2.071712E-18
3.730000E+03	4.317856E-17	2.107085E-18
3.740000E+03	4.393088E-17	2.142696E-18
3.750000E+03	4.468719E-17	2.178460E-18
3.760000E+03	4.544753E-17	2.214378E-18
3.770000E+03	4.621194E-17	2.250450E-18
3.780000E+03	4.698044E-17	2.286679E-18
3.790000E+03	4.775217E-17	2.323020E-18
3.800000E+03	4.852716E-17	2.359476E-18
3.810000E+03	4.930453E-17	2.396002E-18
3.820000E+03	5.008520E-17	2.432644E-18
3.830000E+03	5.086829E-17	2.469358E-18
3.840000E+03	5.165382E-17	2.506144E-18
3.850000E+03	5.243999E-17	2.542915E-18
3.860000E+03	5.322863E-17	2.579759E-18
3.870000E+03	5.401884E-17	2.616633E-18
3.880000E+03	5.481064E-17	2.653537E-18
3.890000E+03	5.560219E-17	2.690381E-18
3.900000E+03	5.639533E-17	2.727255E-18
3.910000E+03	5.718822E-17	2.764068E-18
3.920000E+03	5.798179E-17	2.800867E-18
3.930000E+03	5.877510E-17	2.837604E-18
3.940000E+03	5.956721E-17	2.874235E-18
3.950000E+03	6.035996E-17	2.910849E-18
3.960000E+03	6.115057E-17	2.947311E-18
3.970000E+03	6.194085E-17	2.983708E-18
3.980000E+03	6.272987E-17	3.019994E-18
3.990000E+03	6.351666E-17	3.056125E-18
4.000000E+03	6.430212E-17	3.092142E-18
4.010000E+03	6.508432E-17	3.127954E-18
4.020000E+03	6.586514E-17	3.163650E-18
4.030000E+03	6.664262E-17	3.199136E-18
4.040000E+03	6.741674E-17	3.234411E-18
4.050000E+03	6.818836E-17	3.269517E-18
4.060000E+03	6.895554E-17	3.304361E-18
4.070000E+03	6.971918E-17	3.338985E-18
4.080000E+03	7.047825E-17	3.373342E-18
4.090000E+03	7.123267E-17	3.407427E-18
4.100000E+03	7.198237E-17	3.441238E-18
4.110000E+03	7.272728E-17	3.474770E-18
4.120000E+03	7.346536E-17	3.507928E-18
4.130000E+03	7.419847E-17	3.540800E-18
4.140000E+03	7.492455E-17	3.573288E-18
4.150000E+03	7.564449E-17	3.605436E-18
4.160000E+03	7.635623E-17	3.637144E-18
4.170000E+03	7.706061E-17	3.668455E-18
4.180000E+03	7.775752E-17	3.699364E-18
4.190000E+03	7.844584E-17	3.729817E-18
4.200000E+03	7.912447E-17	3.759763E-18
4.210000E+03	7.979523E-17	3.789289E-18
4.220000E+03	8.045499E-17	3.818248E-18
4.230000E+03	8.110560E-17	3.846728E-18
4.240000E+03	8.174490E-17	3.874628E-18
4.250000E+03	8.237373E-17	3.901987E-18
4.260000E+03	8.299092E-17	3.928752E-18
4.270000E+03	8.359727E-17	3.954961E-18
4.280000E+03	8.419162E-17	3.980561E-18
4.290000E+03	8.477277E-17	4.005495E-18
4.300000E+03	8.534353E-17	4.029899E-18
4.310000E+03	8.590070E-17	4.053620E-18
4.320000E+03	8.644608E-17	4.076747E-18
4.330000E+03	8.697947E-17	4.099270E-18
4.340000E+03	8.750167E-17	4.121228E-18
4.350000E+03	8.801351E-17	4.142661E-18
4.360000E+03	8.851376E-17	4.163513E-18
4.370000E+03	8.900525E-17	4.183917E-18
4.380000E+03	8.948780E-17	4.203865E-18
4.390000E+03	8.996325E-17	4.223445E-18
4.400000E+03	9.043240E-17	4.242697E-18
4.410000E+03	9.089713E-17	4.261706E-18
4.420000E+03	9.135724E-17	4.280466E-18
4.430000E+03	9.181563E-17	4.299112E-18
4.440000E+03	9.227108E-17	4.317588E-18
4.450000E+03	9.272545E-17	4.335980E-18
4.460000E+03	9.317751E-17	4.354232E-18
4.470000E+03	9.362812E-17	4.372384E-18
4.480000E+03	9.407706E-17	4.390426E-18
4.490000E+03	9.452515E-17	4.408396E-18
4.500000E+03	9.497012E-17	4.426188E-18
4.510000E+03	9.541383E-17	4.443891E-18
4.520000E+03	9.585502E-17	4.461444E-18
4.530000E+03	9.629241E-17	4.478790E-18
4.540000E+03	9.672682E-17	4.495967E-18
4.550000E+03	9.715696E-17	4.512914E-18
4.560000E+03	9.758156E-17	4.529574E-18
4.570000E+03	9.800139E-17	4.545984E-18
4.580000E+03	9.841307E-17	4.561987E-18
4.590000E+03	9.881846E-17	4.577669E-18
4.600000E+03	9.921413E-17	4.592873E-18
4.610000E+03	9.959982E-17	4.607589E-18
4.620000E+03	9.997422E-17	4.621757E-18
4.630000E+03	1.003371E-16	4.635365E-18
4.640000E+03	1.006850E-16	4.648258E-18
4.650000E+03	1.010176E-16	4.660424E-18
4.660000E+03	1.013337E-16	4.671805E-18
4.670000E+03	1.016309E-16	4.682295E-18
4.680000E+03	1.019079E-16	4.691834E-18
4.690000E+03	1.021635E-16	4.700367E-18
4.700000E+03	1.023962E-16	4.707836E-18
4.710000E+03	1.026049E-16	4.714186E-18
4.720000E+03	1.027884E-16	4.719362E-18
4.730000E+03	1.029463E-16	4.723357E-18
4.740000E+03	1.030787E-16	4.726169E-18
4.750000E+03	1.031874E-16	4.727889E-18
4.760000E+03	1.032734E-16	4.728564E-18
4.770000E+03	1.033376E-16	4.728239E-18
4.780000E+03	1.033832E-16	4.727057E-18
4.790000E+03	1.034111E-16	4.725068E-18
4.800000E+03	1.034234E-16	4.722363E-18
4.810000E+03	1.034200E-16	4.718947E-18
4.820000E+03	1.034032E-16	4.714919E-18
4.830000E+03	1.033738E-16	4.710322E-18
4.840000E+03	1.033319E-16	4.705163E-18
4.850000E+03	1.032788E-16	4.699496E-18
4.860000E+03	1.032143E-16	4.693317E-18
4.870000E+03	1.031397E-16	4.686689E-18
4.880000E+03	1.030540E-16	4.679563E-18
4.890000E+03	1.029594E-16	4.672038E-18
4.900000E+03	1.028549E-16	4.664077E-18
4.910000E+03	1.027408E-16	4.655686E-18
4.920000E+03	1.026181E-16	4.646920E-18
4.930000E+03	1.024849E-16	4.637691E-18
4.940000E+03	1.023446E-16	4.628148E-18
4.950000E+03	1.021941E-16	4.618160E-18
4.960000E+03	1.020368E-16	4.607876E-18
4.970000E+03	1.018696E-16	4.597163E-18
4.980000E+03	1.016950E-16	4.586126E-18
4.990000E+03	1.015130E-16	4.574772E-18
5.000000E+03	1.013229E-16	4.563067E-18
5.010000E+03	1.011248E-16	4.551019E-18
5.020000E+03	1.009190E-16	4.538639E-18
5.030000E+03	1.007066E-16	4.525983E-18
5.040000E+03	1.004869E-16	4.513015E-18
5.050000E+03	1.002601E-16	4.499746E-18
5.060000E+03	1.000274E-16	4.486233E-18
5.070000E+03	9.978804E-17	4.472438E-18
5.080000E+03	9.954221E-17	4.458374E-18
5.090000E+03	9.929013E-17	4.444052E-18
5.100000E+03	9.903205E-17	4.429481E-18
5.110000E+03	9.876816E-17	4.414672E-18
5.120000E+03	9.849970E-17	4.399681E-18
5.130000E+03	9.822490E-17	4.384428E-18
5.140000E+03	9.794496E-17	4.368969E-18
5.150000E+03	9.766110E-17	4.353358E-18
5.160000E+03	9.737155E-17	4.337518E-18
5.170000E+03	9.707753E-17	4.321502E-18
5.180000E+03	9.677826E-17	4.305277E-18
5.190000E+03	9.647495E-17	4.288897E-18
5.200000E+03	9.616779E-17	4.272372E-18
5.210000E+03	9.585603E-17	4.255668E-18
5.220000E+03	9.554084E-17	4.238837E-18
5.230000E+03	9.522146E-17	4.221847E-18
5.240000E+03	9.489906E-17	4.204750E-18
5.250000E+03	9.457193E-17	4.187471E-18
5.260000E+03	9.424121E-17	4.170060E-18
5.270000E+03	9.390804E-17	4.152568E-18
5.280000E+03	9.357075E-17	4.134923E-18
5.290000E+03	9.323045E-17	4.117173E-18
5.300000E+03	9.288640E-17	4.099286E-18
5.310000E+03	9.253879E-17	4.081272E-18
5.320000E+03	9.218872E-17	4.063179E-18
5.330000E+03	9.183546E-17	4.044975E-18
5.340000E+03	9.147918E-17	4.026668E-18
5.350000E+03	9.111913E-17	4.008226E-18
5.360000E+03	9.075642E-17	3.989697E-18
5.370000E+03	9.039029E-17	3.971050E-18
5.380000E+03	9.002182E-17	3.952331E-18
5.390000E+03	8.964937E-17	3.933470E-18
5.400000E+03	8.927402E-17	3.914513E-18
5.410000E+03	8.889591E-17	3.895468E-18
5.420000E+03	8.851519E-17	3.876341E-18
5.430000E+03	8.813115E-17	3.857102E-18
5.440000E+03	8.774392E-17	3.837757E-18
5.450000E+03	8.735453E-17	3.818351E-18
5.460000E+03	8.696139E-17	3.798814E-18
5.470000E+03	8.656551E-17	3.779193E-18
5.480000E+03	8.616700E-17	3.759492E-18
5.490000E+03	8.576518E-17	3.739680E-18
5.500000E+03	8.536015E-17	3.719765E-18
5.510000E+03	8.495292E-17	3.699788E-18
5.520000E+03	8.454273E-17	3.679719E-18
5.530000E+03	8.413143E-17	3.659637E-18
5.540000E+03	8.371741E-17	3.639473E-18
5.550000E+03	8.330164E-17	3.619269E-18
5.560000E+03	8.288421E-17	3.599030E-18
5.570000E+03	8.246522E-17	3.578760E-18
5.580000E+03	8.204478E-17	3.558463E-18
5.590000E+03	8.162378E-17	3.538180E-18
5.600000E+03	8.120148E-17	3.517878E-18
5.610000E+03	8.077796E-17	3.497560E-18
5.620000E+03	8.035494E-17	3.477302E-18
5.630000E+03	7.993085E-17	3.457034E-18
5.640000E+03	7.950736E-17	3.436831E-18
5.650000E+03	7.908293E-17	3.416625E-18
5.660000E+03	7.865921E-17	3.396488E-18
5.670000E+03	7.823626E-17	3.376421E-18
5.680000E+03	7.781331E-17	3.356393E-18
5.690000E+03	7.739119E-17	3.336438E-18
5.700000E+03	7.696915E-17	3.316526E-18
5.710000E+03	7.654882E-17	3.296725E-18
5.720000E+03	7.612862E-17	3.276968E-18
5.730000E+03	7.571016E-17	3.257324E-18
5.740000E+03	7.529346E-17	3.237794E-18
5.750000E+03	7.487697E-17	3.218311E-18
5.760000E+03	7.446226E-17	3.198943E-18
5.770000E+03	7.404934E-17	3.179690E-18
5.780000E+03	7.363820E-17	3.160551E-18
5.790000E+03	7.322885E-17	3.141528E-18
5.800000E+03	7.282053E-17	3.122587E-18
5.810000E+03	7.241476E-17	3.103794E-18
5.820000E+03	7.201003E-17	3.085082E-18
5.830000E+03	7.160782E-17	3.066517E-18
5.840000E+03	7.120737E-17	3.048066E-18
5.850000E+03	7.080943E-17	3.029759E-18
5.860000E+03	7.041322E-17	3.011565E-18
5.870000E+03	7.001948E-17	2.993514E-18
5.880000E+03	6.962745E-17	2.975573E-18
5.890000E+03	6.923784E-17	2.957774E-18
5.900000E+03	6.885063E-17	2.940114E-18
5.910000E+03	6.846505E-17	2.922562E-18
5.920000E+03	6.808181E-17	2.905148E-18
5.930000E+03	6.770163E-17	2.887901E-18
5.940000E+03	6.732300E-17	2.870757E-18
5.950000E+03	6.694663E-17	2.853747E-18
5.960000E+03	6.657321E-17	2.836899E-18
5.970000E+03	6.620125E-17	2.820151E-18
5.980000E+03	6.583218E-17	2.803563E-18
5.990000E+03	6.546450E-17	2.787070E-18
6.000000E+03	6.509961E-17	2.770734E-18
6.010000E+03	6.473678E-17	2.754521E-18
6.020000E+03	6.437525E-17	2.738401E-18
6.030000E+03	6.401571E-17	2.722401E-18
6.040000E+03	6.365880E-17	2.706549E-18
6.050000E+03	6.330240E-17	2.690756E-18
6.060000E+03	6.294787E-17	2.675078E-18
6.070000E+03	6.259449E-17	2.659484E-18
6.080000E+03	6.224220E-17	2.643973E-18
6.090000E+03	6.189033E-17	2.628515E-18
6.100000E+03	6.153949E-17	2.613138E-18
6.110000E+03	6.118831E-17	2.597781E-18
6.120000E+03	6.083676E-17	2.582444E-18
6.130000E+03	6.048553E-17	2.567155E-18
6.140000E+03	6.013253E-17	2.551827E-18
6.150000E+03	5.977980E-17	2.536545E-18
6.160000E+03	5.942596E-17	2.521252E-18
6.170000E+03	5.907102E-17	2.505946E-18
6.180000E+03	5.871631E-17	2.490685E-18
6.190000E+03	5.836180E-17	2.475467E-18
6.200000E+03	5.800749E-17	2.460291E-18
6.210000E+03	5.765335E-17	2.445157E-18
6.220000E+03	5.730005E-17	2.430092E-18
6.230000E+03	5.694823E-17	2.415123E-18
6.240000E+03	5.659719E-17	2.400221E-18
6.250000E+03	5.624893E-17	2.385470E-18
6.260000E+03	5.590142E-17	2.370784E-18
6.270000E+03	5.555663E-17	2.356246E-18
6.280000E+03	5.521456E-17	2.341856E-18
6.290000E+03	5.487453E-17	2.327584E-18
6.300000E+03	5.453717E-17	2.313458E-18
6.310000E+03	5.420185E-17	2.299450E-18
6.320000E+03	5.386987E-17	2.285614E-18
6.330000E+03	5.353990E-17	2.271896E-18
6.340000E+03	5.321262E-17	2.258321E-18
6.350000E+03	5.288803E-17	2.244888E-18
6.360000E+03	5.256614E-17	2.231599E-18
6.370000E+03	5.224631E-17	2.218424E-18
6.380000E+03	5.192858E-17	2.205364E-18
6.390000E+03	5.161299E-17	2.192420E-18
6.400000E+03	5.129891E-17	2.179564E-18
6.410000E+03	5.098702E-17	2.166825E-18
6.420000E+03	5.067548E-17	2.154124E-18
6.430000E+03	5.036559E-17	2.141513E-18
6.440000E+03	5.005550E-17	2.128916E-18
6.450000E+03	4.974589E-17	2.116358E-18
6.460000E+03	4.943543E-17	2.103783E-18
6.470000E+03	4.912470E-17	2.091215E-18
6.480000E+03	4.881304E-17	2.078625E-18
6.490000E+03	4.850040E-17	2.066009E-18
6.500000E+03	4.818674E-17	2.053365E-18
6.510000E+03	4.787265E-17	2.040718E-18
6.520000E+03	4.755747E-17	2.028038E-18
6.530000E+03	4.724300E-17	2.015401E-18
6.540000E+03	4.692799E-17	2.002753E-18
6.550000E+03	4.661362E-17	1.990145E-18
6.560000E+03	4.629989E-17	1.977574E-18
6.570000E+03	4.598674E-17	1.965038E-18
6.580000E+03	4.567478E-17	1.952562E-18
6.590000E+03	4.536397E-17	1.940144E-18
6.600000E+03	4.505428E-17	1.927781E-18
6.610000E+03	4.474632E-17	1.915500E-18
6.620000E+03	4.444006E-17	1.903298E-18
6.630000E+03	4.413547E-17	1.891173E-18
6.640000E+03	4.383314E-17	1.879151E-18
6.650000E+03	4.353247E-17	1.867204E-18
6.660000E+03	4.323403E-17	1.855357E-18
6.670000E+03	4.293781E-17	1.843609E-18
6.680000E+03	4.264439E-17	1.831984E-18
6.690000E+03	4.235257E-17	1.820431E-18
6.700000E+03	4.206351E-17	1.808998E-18
6.710000E+03	4.177719E-17	1.797685E-18
6.720000E+03	4.149304E-17	1.786465E-18
6.730000E+03	4.121160E-17	1.775364E-18
6.740000E+03	4.093286E-17	1.764378E-18
6.750000E+03	4.065680E-17	1.753509E-18
6.760000E+03	4.038283E-17	1.742728E-18
6.770000E+03	4.011209E-17	1.732086E-18
6.780000E+03	3.984341E-17	1.721532E-18
6.790000E+03	3.957791E-17	1.711113E-18
6.800000E+03	3.931444E-17	1.700780E-18
6.810000E+03	3.905410E-17	1.690579E-18
6.820000E+03	3.879631E-17	1.680486E-18
6.830000E+03	3.854105E-17	1.670500E-18
6.840000E+03	3.828828E-17	1.660619E-18
6.850000E+03	3.803856E-17	1.650865E-18
6.860000E+03	3.779073E-17	1.641190E-18
6.870000E+03	3.754587E-17	1.631639E-18
6.880000E+03	3.730342E-17	1.622189E-18
6.890000E+03	3.706334E-17	1.612837E-18
6.900000E+03	3.682561E-17	1.603582E-18
6.910000E+03	3.659074E-17	1.594446E-18
6.920000E+03	3.635760E-17	1.585380E-18
6.930000E+03	3.612726E-17	1.576431E-18
6.940000E+03	3.589914E-17	1.567572E-18
6.950000E+03	3.567267E-17	1.558779E-18
6.960000E+03	3.544890E-17	1.550098E-18
6.970000E+03	3.522725E-17	1.541503E-18
6.980000E+03	3.500770E-17	1.532993E-18
6.990000E+03	3.479021E-17	1.524566E-18
7.000000E+03	3.457420E-17	1.516197E-18
7.010000E+03	3.436072E-17	1.507931E-18
7.020000E+03	3.414920E-17	1.499744E-18
7.030000E+03	3.393907E-17	1.491610E-18
7.040000E+03	3.373083E-17	1.483552E-18
7.050000E+03	3.352443E-17	1.475567E-18
7.060000E+03	3.331988E-17	1.467654E-18
7.070000E+03	3.311657E-17	1.459788E-18
7.080000E+03	3.291501E-17	1.451991E-18
7.090000E+03	3.271517E-17	1.444262E-18
7.100000E+03	3.251702E-17	1.436597E-18
7.110000E+03	3.231999E-17	1.428974E-18
7.120000E+03	3.212458E-17	1.421413E-18
7.130000E+03	3.193023E-17	1.413890E-18
7.140000E+03	3.173743E-17	1.406427E-18
7.150000E+03	3.154616E-17	1.399021E-18
7.160000E+03	3.135638E-17	1.391673E-18
7.170000E+03	3.116752E-17	1.384356E-18
7.180000E+03	3.097957E-17	1.377069E-18
7.190000E+03	3.079354E-17	1.369858E-18
7.200000E+03	3.060835E-17	1.362675E-18
7.210000E+03	3.042397E-17	1.355517E-18
7.220000E+03	3.024142E-17	1.348431E-18
7.230000E+03	3.005964E-17	1.341369E-18
7.240000E+03	2.987961E-17	1.334375E-18
7.250000E+03	2.970030E-17	1.327403E-18
7.260000E+03	2.952217E-17	1.320474E-18
7.270000E+03	2.934522E-17	1.313586E-18
7.280000E+03	2.916991E-17	1.306762E-18
7.290000E+03	2.899573E-17	1.299977E-18
7.300000E+03	2.882263E-17	1.293230E-18
7.310000E+03	2.865061E-17	1.286521E-18
7.320000E+03	2.848013E-17	1.279871E-18
7.330000E+03	2.831118E-17	1.273279E-18
7.340000E+03	2.814322E-17	1.266720E-18
7.350000E+03	2.797676E-17	1.260218E-18
7.360000E+03	2.781175E-17	1.253771E-18
7.370000E+03	2.764818E-17	1.247377E-18
7.380000E+03	2.748603E-17	1.241037E-18
7.390000E+03	2.732577E-17	1.234772E-18
7.400000E+03	2.716688E-17	1.228558E-18
7.410000E+03	2.700937E-17	1.222395E-18
7.420000E+03	2.685418E-17	1.216327E-18
7.430000E+03	2.670030E-17	1.210307E-18
7.440000E+03	2.654873E-17	1.204381E-18
7.450000E+03	2.639892E-17	1.198525E-18
7.460000E+03	2.625039E-17	1.192716E-18
7.470000E+03	2.610312E-17	1.186954E-18
7.480000E+03	2.595760E-17	1.181261E-18
7.490000E+03	2.581282E-17	1.175591E-18
7.500000E+03	2.566880E-17	1.169946E-18
7.510000E+03	2.552601E-17	1.164346E-18
7.520000E+03	2.538349E-17	1.158747E-18
7.530000E+03	2.524219E-17	1.153194E-18
7.540000E+03	2.510116E-17	1.147643E-18
7.550000E+03	2.496040E-17	1.142093E-18
7.560000E+03	2.482087E-17	1.136590E-18
7.570000E+03	2.468114E-17	1.131066E-18
7.580000E+03	2.454170E-17	1.125546E-18
7.590000E+03	2.440303E-17	1.120050E-18
7.600000E+03	2.426420E-17	1.114536E-18
7.610000E+03	2.412616E-17	1.109047E-18
7.620000E+03	2.398797E-17	1.103541E-18
7.630000E+03	2.384967E-17	1.098020E-18
7.640000E+03	2.371218E-17	1.092525E-18
7.650000E+03	2.357460E-17	1.087015E-18
7.660000E+03	2.343695E-17	1.081491E-18
7.670000E+03	2.329971E-17	1.075975E-18
7.680000E+03	2.316243E-17	1.070447E-18
7.690000E+03	2.302558E-17	1.064927E-18
7.700000E+03	2.288874E-17	1.059398E-18
7.710000E+03	2.275193E-17	1.053859E-18
7.720000E+03	2.261560E-17	1.048331E-18
7.730000E+03	2.247934E-17	1.042796E-18
7.740000E+03	2.234361E-17	1.037274E-18
7.750000E+03	2.220755E-17	1.031727E-18
7.760000E+03	2.207207E-17	1.026195E-18
