#wls	flux	fluxerr
1.600000E+03	4.471833E-18	7.714327E-20
1.640000E+03	4.483450E-18	7.726527E-20
1.680000E+03	4.496708E-18	7.741309E-20
1.720000E+03	4.511605E-18	7.758654E-20
1.760000E+03	4.527260E-18	7.777037E-20
1.800000E+03	4.545434E-18	7.799464E-20
1.840000E+03	4.565244E-18	7.824405E-20
1.880000E+03	4.587580E-18	7.853361E-20
1.920000E+03	4.611549E-18	7.884786E-20
1.960000E+03	4.638042E-18	7.920182E-20
2.000000E+03	4.667959E-18	7.961060E-20
2.040000E+03	4.700403E-18	8.005860E-20
2.080000E+03	4.735372E-18	8.054553E-20
2.120000E+03	4.773767E-18	8.108638E-20
2.160000E+03	4.816495E-18	8.169622E-20
2.200000E+03	4.861738E-18	8.234381E-20
2.240000E+03	4.912222E-18	8.307494E-20
2.280000E+03	4.965203E-18	8.384276E-20
2.320000E+03	5.023416E-18	8.469302E-20
2.360000E+03	5.085936E-18	8.560961E-20
2.400000E+03	5.152747E-18	8.659172E-20
2.440000E+03	5.224754E-18	8.765403E-20
2.480000E+03	5.301934E-18	8.879554E-20
2.520000E+03	5.384265E-18	9.001520E-20
2.560000E+03	5.472643E-18	9.132732E-20
2.600000E+03	5.567035E-18	9.273058E-20
2.640000E+03	5.668331E-18	9.423900E-20
2.680000E+03	5.775555E-18	9.583546E-20
2.720000E+03	5.891450E-18	9.756455E-20
2.760000E+03	6.015025E-18	9.940877E-20
2.800000E+03	6.148081E-18	1.013967E-19
2.840000E+03	6.290540E-18	1.035258E-19
2.880000E+03	6.445121E-18	1.058395E-19
2.920000E+03	6.611725E-18	1.083343E-19
2.960000E+03	6.792107E-18	1.110372E-19
3.000000E+03	6.988943E-18	1.139900E-19
3.010000E+03	7.040734E-18	1.147672E-19
3.020000E+03	7.093367E-18	1.155568E-19
3.030000E+03	7.147773E-18	1.163738E-19
3.040000E+03	7.203014E-18	1.172031E-19
3.050000E+03	7.259089E-18	1.180445E-19
3.060000E+03	7.316928E-18	1.189132E-19
3.070000E+03	7.376527E-18	1.198090E-19
3.080000E+03	7.436950E-18	1.207166E-19
3.090000E+03	7.499128E-18	1.216511E-19
3.100000E+03	7.562122E-18	1.225973E-19
3.110000E+03	7.627797E-18	1.235853E-19
3.120000E+03	7.694282E-18	1.245848E-19
3.130000E+03	7.762504E-18	1.256106E-19
3.140000E+03	7.832463E-18	1.266628E-19
3.150000E+03	7.903219E-18	1.277261E-19
3.160000E+03	7.976634E-18	1.288305E-19
3.170000E+03	8.051770E-18	1.299608E-19
3.180000E+03	8.128624E-18	1.311169E-19
3.190000E+03	8.208120E-18	1.323136E-19
3.200000E+03	8.289322E-18	1.335357E-19
3.210000E+03	8.372227E-18	1.347831E-19
3.220000E+03	8.456826E-18	1.360557E-19
3.230000E+03	8.544046E-18	1.373682E-19
3.240000E+03	8.633880E-18	1.387205E-19
3.250000E+03	8.725392E-18	1.400974E-19
3.260000E+03	8.819504E-18	1.415136E-19
3.270000E+03	8.916211E-18	1.429690E-19
3.280000E+03	9.015505E-18	1.444634E-19
3.290000E+03	9.117378E-18	1.459964E-19
3.300000E+03	9.221821E-18	1.475680E-19
3.310000E+03	9.328829E-18	1.491778E-19
3.320000E+03	9.438392E-18	1.508257E-19
3.330000E+03	9.551429E-18	1.525262E-19
3.340000E+03	9.667004E-18	1.542643E-19
3.350000E+03	9.786033E-18	1.560544E-19
3.360000E+03	9.908508E-18	1.578963E-19
3.370000E+03	1.003442E-17	1.597896E-19
3.380000E+03	1.016282E-17	1.617195E-19
3.390000E+03	1.029465E-17	1.637002E-19
3.400000E+03	1.043079E-17	1.657462E-19
3.410000E+03	1.057033E-17	1.678424E-19
3.420000E+03	1.071324E-17	1.699885E-19
3.430000E+03	1.086045E-17	1.721989E-19
3.440000E+03	1.101101E-17	1.744586E-19
3.450000E+03	1.116582E-17	1.767816E-19
3.460000E+03	1.132489E-17	1.791678E-19
3.470000E+03	1.148819E-17	1.816166E-19
3.480000E+03	1.165571E-17	1.841277E-19
3.490000E+03	1.182835E-17	1.867152E-19
3.500000E+03	1.200518E-17	1.893642E-19
3.510000E+03	1.218617E-17	1.920741E-19
3.520000E+03	1.237225E-17	1.948591E-19
3.530000E+03	1.256429E-17	1.977330E-19
3.540000E+03	1.276045E-17	2.006666E-19
3.550000E+03	1.296162E-17	2.036735E-19
3.560000E+03	1.316872E-17	2.067681E-19
3.570000E+03	1.338080E-17	2.099351E-19
3.580000E+03	1.359874E-17	2.131885E-19
3.590000E+03	1.382163E-17	2.165133E-19
3.600000E+03	1.405125E-17	2.199375E-19
3.610000E+03	1.428578E-17	2.234320E-19
3.620000E+03	1.452701E-17	2.270250E-19
3.630000E+03	1.477490E-17	2.307153E-19
3.640000E+03	1.502854E-17	2.344885E-19
3.650000E+03	1.528880E-17	2.383580E-19
3.660000E+03	1.555567E-17	2.423232E-19
3.670000E+03	1.582911E-17	2.463834E-19
3.680000E+03	1.610910E-17	2.505379E-19
3.690000E+03	1.639653E-17	2.548001E-19
3.700000E+03	1.669136E-17	2.591693E-19
3.710000E+03	1.699265E-17	2.636305E-19
3.720000E+03	1.730219E-17	2.682113E-19
3.730000E+03	1.761816E-17	2.728830E-19
3.740000E+03	1.794233E-17	2.776727E-19
3.750000E+03	1.827466E-17	2.825794E-19
3.760000E+03	1.861421E-17	2.875886E-19
3.770000E+03	1.896189E-17	2.927134E-19
3.780000E+03	1.931852E-17	2.979667E-19
3.790000E+03	1.968231E-17	3.033201E-19
3.800000E+03	2.005502E-17	3.088006E-19
3.810000E+03	2.043659E-17	3.144069E-19
3.820000E+03	2.082614E-17	3.201249E-19
3.830000E+03	2.122450E-17	3.259672E-19
3.840000E+03	2.163165E-17	3.319330E-19
3.850000E+03	2.204844E-17	3.380351E-19
3.860000E+03	2.247398E-17	3.442590E-19
3.870000E+03	2.290820E-17	3.506038E-19
3.880000E+03	2.335199E-17	3.570824E-19
3.890000E+03	2.380443E-17	3.636804E-19
3.900000E+03	2.426636E-17	3.704102E-19
3.910000E+03	2.473866E-17	3.772848E-19
3.920000E+03	2.521951E-17	3.842761E-19
3.930000E+03	2.571067E-17	3.914103E-19
3.940000E+03	2.621034E-17	3.986598E-19
3.950000E+03	2.672025E-17	4.060504E-19
3.960000E+03	2.724040E-17	4.135816E-19
3.970000E+03	2.776898E-17	4.212255E-19
3.980000E+03	2.830775E-17	4.290085E-19
3.990000E+03	2.885668E-17	4.369295E-19
4.000000E+03	2.941487E-17	4.449745E-19
4.010000E+03	2.998230E-17	4.531430E-19
4.020000E+03	3.055985E-17	4.614474E-19
4.030000E+03	3.114662E-17	4.698741E-19
4.040000E+03	3.174346E-17	4.784353E-19
4.050000E+03	3.234862E-17	4.871043E-19
4.060000E+03	3.296387E-17	4.959070E-19
4.070000E+03	3.358742E-17	5.048166E-19
4.080000E+03	3.422016E-17	5.138456E-19
4.090000E+03	3.486209E-17	5.229938E-19
4.100000E+03	3.551234E-17	5.322477E-19
4.110000E+03	3.617093E-17	5.416072E-19
4.120000E+03	3.683786E-17	5.510720E-19
4.130000E+03	3.751228E-17	5.606289E-19
4.140000E+03	3.819420E-17	5.702778E-19
4.150000E+03	3.888366E-17	5.800189E-19
4.160000E+03	3.957980E-17	5.898391E-19
4.170000E+03	4.028267E-17	5.997387E-19
4.180000E+03	4.099143E-17	6.097049E-19
4.190000E+03	4.170526E-17	6.197255E-19
4.200000E+03	4.242505E-17	6.298134E-19
4.210000E+03	4.314913E-17	6.399433E-19
4.220000E+03	4.387671E-17	6.501035E-19
4.230000E+03	4.460782E-17	6.602943E-19
4.240000E+03	4.534168E-17	6.705040E-19
4.250000E+03	4.607750E-17	6.807207E-19
4.260000E+03	4.681361E-17	6.909198E-19
4.270000E+03	4.755095E-17	7.011151E-19
4.280000E+03	4.828705E-17	7.112701E-19
4.290000E+03	4.902197E-17	7.213859E-19
4.300000E+03	4.975410E-17	7.314388E-19
4.310000E+03	5.048267E-17	7.414177E-19
4.320000E+03	5.120692E-17	7.513114E-19
4.330000E+03	5.192441E-17	7.610845E-19
4.340000E+03	5.263606E-17	7.707507E-19
4.350000E+03	5.333943E-17	7.802749E-19
4.360000E+03	5.403378E-17	7.896463E-19
4.370000E+03	5.471751E-17	7.988422E-19
4.380000E+03	5.538987E-17	8.078520E-19
4.390000E+03	5.605014E-17	8.166657E-19
4.400000E+03	5.669753E-17	8.252727E-19
4.410000E+03	5.733132E-17	8.336628E-19
4.420000E+03	5.795160E-17	8.418381E-19
4.430000E+03	5.855677E-17	8.497760E-19
4.440000E+03	5.914859E-17	8.575027E-19
4.450000E+03	5.972545E-17	8.649957E-19
4.460000E+03	6.028746E-17	8.722570E-19
4.470000E+03	6.083297E-17	8.792637E-19
4.480000E+03	6.136122E-17	8.860055E-19
4.490000E+03	6.187059E-17	8.924599E-19
4.500000E+03	6.236281E-17	8.986527E-19
4.510000E+03	6.283539E-17	9.045490E-19
4.520000E+03	6.328922E-17	9.101624E-19
4.530000E+03	6.372514E-17	9.155059E-19
4.540000E+03	6.414236E-17	9.205689E-19
4.550000E+03	6.454169E-17	9.253641E-19
4.560000E+03	6.492396E-17	9.299043E-19
4.570000E+03	6.529002E-17	9.342021E-19
4.580000E+03	6.564064E-17	9.382698E-19
4.590000E+03	6.597579E-17	9.421074E-19
4.600000E+03	6.629626E-17	9.457271E-19
4.610000E+03	6.660449E-17	9.491642E-19
4.620000E+03	6.689954E-17	9.524062E-19
4.630000E+03	6.718302E-17	9.554765E-19
4.640000E+03	6.745563E-17	9.583858E-19
4.650000E+03	6.771894E-17	9.611567E-19
4.660000E+03	6.797281E-17	9.637878E-19
4.670000E+03	6.821791E-17	9.662893E-19
4.680000E+03	6.845661E-17	9.686950E-19
4.690000E+03	6.868787E-17	9.709907E-19
4.700000E+03	6.891401E-17	9.732095E-19
4.710000E+03	6.913483E-17	9.753488E-19
4.720000E+03	6.935092E-17	9.774176E-19
4.730000E+03	6.956372E-17	9.794361E-19
4.740000E+03	6.977295E-17	9.814010E-19
4.750000E+03	6.997921E-17	9.833206E-19
4.760000E+03	7.018302E-17	9.852026E-19
4.770000E+03	7.038409E-17	9.870433E-19
4.780000E+03	7.058211E-17	9.888383E-19
4.790000E+03	7.077841E-17	9.906068E-19
4.800000E+03	7.097269E-17	9.923447E-19
4.810000E+03	7.116378E-17	9.940357E-19
4.820000E+03	7.135221E-17	9.956875E-19
4.830000E+03	7.153682E-17	9.972842E-19
4.840000E+03	7.171899E-17	9.988454E-19
4.850000E+03	7.189679E-17	1.000344E-18
4.860000E+03	7.206998E-17	1.001778E-18
4.870000E+03	7.224009E-17	1.003168E-18
4.880000E+03	7.240454E-17	1.004479E-18
4.890000E+03	7.256499E-17	1.005734E-18
4.900000E+03	7.272072E-17	1.006923E-18
4.910000E+03	7.287186E-17	1.008049E-18
4.920000E+03	7.301773E-17	1.009102E-18
4.930000E+03	7.315936E-17	1.010097E-18
4.940000E+03	7.329609E-17	1.011025E-18
4.950000E+03	7.342899E-17	1.011901E-18
4.960000E+03	7.355656E-17	1.012705E-18
4.970000E+03	7.368067E-17	1.013462E-18
4.980000E+03	7.379984E-17	1.014152E-18
4.990000E+03	7.391511E-17	1.014789E-18
5.000000E+03	7.402665E-17	1.015377E-18
5.010000E+03	7.413463E-17	1.015917E-18
5.020000E+03	7.423758E-17	1.016389E-18
5.030000E+03	7.433814E-17	1.016830E-18
5.040000E+03	7.443399E-17	1.017208E-18
5.050000E+03	7.452693E-17	1.017547E-18
5.060000E+03	7.461711E-17	1.017851E-18
5.070000E+03	7.470301E-17	1.018097E-18
5.080000E+03	7.478641E-17	1.018311E-18
5.090000E+03	7.486662E-17	1.018484E-18
5.100000E+03	7.494456E-17	1.018627E-18
5.110000E+03	7.501870E-17	1.018720E-18
5.120000E+03	7.509081E-17	1.018787E-18
5.130000E+03	7.516013E-17	1.018818E-18
5.140000E+03	7.522759E-17	1.018826E-18
5.150000E+03	7.529163E-17	1.018789E-18
5.160000E+03	7.535396E-17	1.018731E-18
5.170000E+03	7.541385E-17	1.018642E-18
5.180000E+03	7.547136E-17	1.018523E-18
5.190000E+03	7.552735E-17	1.018385E-18
5.200000E+03	7.558108E-17	1.018218E-18
5.210000E+03	7.563260E-17	1.018024E-18
5.220000E+03	7.568276E-17	1.017814E-18
5.230000E+03	7.573080E-17	1.017576E-18
5.240000E+03	7.577676E-17	1.017313E-18
5.250000E+03	7.582067E-17	1.017025E-18
5.260000E+03	7.586336E-17	1.016722E-18
5.270000E+03	7.590408E-17	1.016395E-18
5.280000E+03	7.594361E-17	1.016054E-18
5.290000E+03	7.598121E-17	1.015689E-18
5.300000E+03	7.601688E-17	1.015301E-18
5.310000E+03	7.605066E-17	1.014889E-18
5.320000E+03	7.608253E-17	1.014454E-18
5.330000E+03	7.611332E-17	1.014007E-18
5.340000E+03	7.614224E-17	1.013538E-18
5.350000E+03	7.616928E-17	1.013045E-18
5.360000E+03	7.619368E-17	1.012520E-18
5.370000E+03	7.621701E-17	1.011983E-18
5.380000E+03	7.623849E-17	1.011424E-18
5.390000E+03	7.625811E-17	1.010842E-18
5.400000E+03	7.627588E-17	1.010239E-18
5.410000E+03	7.629101E-17	1.009603E-18
5.420000E+03	7.630429E-17	1.008945E-18
5.430000E+03	7.631571E-17	1.008265E-18
5.440000E+03	7.632449E-17	1.007553E-18
5.450000E+03	7.633139E-17	1.006818E-18
5.460000E+03	7.633642E-17	1.006062E-18
5.470000E+03	7.633880E-17	1.005274E-18
5.480000E+03	7.633853E-17	1.004453E-18
5.490000E+03	7.633559E-17	1.003601E-18
5.500000E+03	7.633077E-17	1.002727E-18
5.510000E+03	7.632327E-17	1.001820E-18
5.520000E+03	7.631309E-17	1.000882E-18
5.530000E+03	7.630099E-17	9.999216E-19
5.540000E+03	7.628698E-17	9.989394E-19
5.550000E+03	7.627028E-17	9.979254E-19
5.560000E+03	7.625240E-17	9.968994E-19
5.570000E+03	7.623257E-17	9.958513E-19
5.580000E+03	7.621078E-17	9.947812E-19
5.590000E+03	7.618705E-17	9.936894E-19
5.600000E+03	7.616210E-17	9.925854E-19
5.610000E+03	7.613443E-17	9.914497E-19
5.620000E+03	7.610554E-17	9.903018E-19
5.630000E+03	7.607468E-17	9.891323E-19
5.640000E+03	7.604184E-17	9.879409E-19
5.650000E+03	7.600702E-17	9.867280E-19
5.660000E+03	7.597022E-17	9.854935E-19
5.670000E+03	7.593220E-17	9.842473E-19
5.680000E+03	7.589220E-17	9.829797E-19
5.690000E+03	7.585022E-17	9.816909E-19
5.700000E+03	7.580628E-17	9.803811E-19
5.710000E+03	7.576036E-17	9.790503E-19
5.720000E+03	7.571324E-17	9.777086E-19
5.730000E+03	7.566416E-17	9.763464E-19
5.740000E+03	7.561241E-17	9.749545E-19
5.750000E+03	7.555945E-17	9.735520E-19
5.760000E+03	7.550385E-17	9.721204E-19
5.770000E+03	7.544707E-17	9.706787E-19
5.780000E+03	7.538768E-17	9.692086E-19
5.790000E+03	7.532640E-17	9.677196E-19
5.800000E+03	7.526327E-17	9.662123E-19
5.810000E+03	7.519757E-17	9.646774E-19
5.820000E+03	7.513005E-17	9.631248E-19
5.830000E+03	7.506073E-17	9.615549E-19
5.840000E+03	7.498819E-17	9.599496E-19
5.850000E+03	7.491389E-17	9.583276E-19
5.860000E+03	7.483714E-17	9.566805E-19
5.870000E+03	7.475726E-17	9.549996E-19
5.880000E+03	7.467569E-17	9.533033E-19
5.890000E+03	7.459104E-17	9.515742E-19
5.900000E+03	7.450334E-17	9.498128E-19
5.910000E+03	7.441333E-17	9.480285E-19
5.920000E+03	7.431961E-17	9.462039E-19
5.930000E+03	7.422365E-17	9.443578E-19
5.940000E+03	7.412407E-17	9.424725E-19
5.950000E+03	7.402087E-17	9.405486E-19
5.960000E+03	7.391483E-17	9.385959E-19
5.970000E+03	7.380454E-17	9.365967E-19
5.980000E+03	7.369075E-17	9.345608E-19
5.990000E+03	7.357279E-17	9.324798E-19
6.000000E+03	7.345070E-17	9.303544E-19
6.010000E+03	7.332381E-17	9.281763E-19
6.020000E+03	7.319284E-17	9.259550E-19
6.030000E+03	7.305714E-17	9.236820E-19
6.040000E+03	7.291603E-17	9.213494E-19
6.050000E+03	7.276956E-17	9.189576E-19
6.060000E+03	7.261704E-17	9.164984E-19
6.070000E+03	7.245922E-17	9.139814E-19
6.080000E+03	7.229471E-17	9.113893E-19
6.090000E+03	7.212425E-17	9.087316E-19
6.100000E+03	7.194650E-17	9.059915E-19
6.110000E+03	7.176213E-17	9.031779E-19
6.120000E+03	7.157052E-17	9.002831E-19
6.130000E+03	7.137166E-17	8.973071E-19
6.140000E+03	7.116559E-17	8.942508E-19
6.150000E+03	7.095231E-17	8.911143E-19
6.160000E+03	7.073255E-17	8.879069E-19
6.170000E+03	7.050697E-17	8.846372E-19
6.180000E+03	7.027628E-17	8.813143E-19
6.190000E+03	7.004116E-17	8.779465E-19
6.200000E+03	6.980164E-17	8.745345E-19
6.210000E+03	6.955639E-17	8.710614E-19
6.220000E+03	6.930479E-17	8.675195E-19
6.230000E+03	6.904760E-17	8.639184E-19
6.240000E+03	6.878494E-17	8.602596E-19
6.250000E+03	6.851624E-17	8.565359E-19
6.260000E+03	6.824233E-17	8.527579E-19
6.270000E+03	6.796399E-17	8.489353E-19
6.280000E+03	6.768071E-17	8.450615E-19
6.290000E+03	6.739394E-17	8.411547E-19
6.300000E+03	6.710381E-17	8.372166E-19
6.310000E+03	6.681042E-17	8.332484E-19
6.320000E+03	6.651454E-17	8.292595E-19
6.330000E+03	6.621625E-17	8.252511E-19
6.340000E+03	6.591698E-17	8.212406E-19
6.350000E+03	6.561611E-17	8.172206E-19
6.360000E+03	6.531370E-17	8.131916E-19
6.370000E+03	6.501181E-17	8.091792E-19
6.380000E+03	6.470915E-17	8.051672E-19
6.390000E+03	6.440642E-17	8.011642E-19
6.400000E+03	6.410430E-17	7.971787E-19
6.410000E+03	6.380283E-17	7.932108E-19
6.420000E+03	6.350271E-17	7.892691E-19
6.430000E+03	6.320397E-17	7.853538E-19
6.440000E+03	6.290730E-17	7.814733E-19
6.450000E+03	6.261275E-17	7.776281E-19
6.460000E+03	6.232170E-17	7.738350E-19
6.470000E+03	6.203292E-17	7.700787E-19
6.480000E+03	6.174844E-17	7.663842E-19
6.490000E+03	6.146832E-17	7.627522E-19
6.500000E+03	6.119332E-17	7.591917E-19
6.510000E+03	6.092284E-17	7.556953E-19
6.520000E+03	6.065631E-17	7.522557E-19
6.530000E+03	6.039381E-17	7.488738E-19
6.540000E+03	6.013603E-17	7.455580E-19
6.550000E+03	5.988113E-17	7.422851E-19
6.560000E+03	5.963042E-17	7.390715E-19
6.570000E+03	5.938395E-17	7.359176E-19
6.580000E+03	5.914048E-17	7.328080E-19
6.590000E+03	5.890131E-17	7.297585E-19
6.600000E+03	5.866517E-17	7.267534E-19
6.610000E+03	5.843274E-17	7.238009E-19
6.620000E+03	5.820464E-17	7.209087E-19
6.630000E+03	5.797958E-17	7.180606E-19
6.640000E+03	5.775821E-17	7.152647E-19
6.650000E+03	5.754050E-17	7.125203E-19
6.660000E+03	5.732706E-17	7.098351E-19
6.670000E+03	5.711659E-17	7.071927E-19
6.680000E+03	5.691031E-17	7.046083E-19
6.690000E+03	5.670754E-17	7.020735E-19
6.700000E+03	5.650888E-17	6.995954E-19
6.710000E+03	5.631300E-17	6.971576E-19
6.720000E+03	5.612112E-17	6.947750E-19
6.730000E+03	5.593315E-17	6.924467E-19
6.740000E+03	5.574842E-17	6.901641E-19
6.750000E+03	5.556748E-17	6.879340E-19
6.760000E+03	5.538963E-17	6.857478E-19
6.770000E+03	5.521606E-17	6.836201E-19
6.780000E+03	5.504480E-17	6.815264E-19
6.790000E+03	5.487766E-17	6.794893E-19
6.800000E+03	5.471394E-17	6.774999E-19
6.810000E+03	5.455292E-17	6.755493E-19
6.820000E+03	5.439516E-17	6.736445E-19
6.830000E+03	5.424057E-17	6.717842E-19
6.840000E+03	5.408907E-17	6.699674E-19
6.850000E+03	5.394120E-17	6.682010E-19
6.860000E+03	5.379563E-17	6.664683E-19
6.870000E+03	5.365291E-17	6.647761E-19
6.880000E+03	5.351294E-17	6.631232E-19
6.890000E+03	5.337564E-17	6.615087E-19
6.900000E+03	5.324094E-17	6.599316E-19
6.910000E+03	5.310938E-17	6.583987E-19
6.920000E+03	5.297963E-17	6.568934E-19
6.930000E+03	5.285285E-17	6.554302E-19
6.940000E+03	5.272834E-17	6.540003E-19
6.950000E+03	5.260540E-17	6.525951E-19
6.960000E+03	5.248519E-17	6.512291E-19
6.970000E+03	5.236701E-17	6.498935E-19
6.980000E+03	5.225079E-17	6.485875E-19
6.990000E+03	5.213708E-17	6.473179E-19
7.000000E+03	5.202453E-17	6.460681E-19
7.010000E+03	5.191435E-17	6.448529E-19
7.020000E+03	5.180519E-17	6.436557E-19
7.030000E+03	5.169822E-17	6.424912E-19
7.040000E+03	5.159276E-17	6.413508E-19
7.050000E+03	5.148873E-17	6.402334E-19
7.060000E+03	5.138604E-17	6.391384E-19
7.070000E+03	5.128464E-17	6.380647E-19
7.080000E+03	5.118444E-17	6.370115E-19
7.090000E+03	5.108538E-17	6.359779E-19
7.100000E+03	5.098801E-17	6.349710E-19
7.110000E+03	5.089100E-17	6.339741E-19
7.120000E+03	5.079553E-17	6.330020E-19
7.130000E+03	5.070090E-17	6.320460E-19
7.140000E+03	5.060703E-17	6.311052E-19
7.150000E+03	5.051322E-17	6.301710E-19
7.160000E+03	5.042129E-17	6.292658E-19
7.170000E+03	5.032928E-17	6.283654E-19
7.180000E+03	5.023771E-17	6.274765E-19
7.190000E+03	5.014653E-17	6.265982E-19
7.200000E+03	5.005628E-17	6.257375E-19
7.210000E+03	4.996626E-17	6.248855E-19
7.220000E+03	4.987638E-17	6.240413E-19
7.230000E+03	4.978654E-17	6.232037E-19
7.240000E+03	4.969667E-17	6.223717E-19
7.250000E+03	4.960731E-17	6.215522E-19
7.260000E+03	4.951773E-17	6.207361E-19
7.270000E+03	4.942784E-17	6.199223E-19
7.280000E+03	4.933755E-17	6.191097E-19
7.290000E+03	4.924739E-17	6.183049E-19
7.300000E+03	4.915662E-17	6.174988E-19
7.310000E+03	4.906576E-17	6.166979E-19
7.320000E+03	4.897410E-17	6.158932E-19
7.330000E+03	4.888149E-17	6.150830E-19
7.340000E+03	4.878847E-17	6.142739E-19
7.350000E+03	4.869428E-17	6.134567E-19
7.360000E+03	4.859944E-17	6.126376E-19
7.370000E+03	4.850319E-17	6.118073E-19
7.380000E+03	4.840603E-17	6.109719E-19
7.390000E+03	4.830720E-17	6.101219E-19
7.400000E+03	4.820719E-17	6.092636E-19
7.410000E+03	4.810587E-17	6.083952E-19
7.420000E+03	4.800245E-17	6.075069E-19
7.430000E+03	4.789744E-17	6.066050E-19
7.440000E+03	4.779007E-17	6.056796E-19
7.450000E+03	4.768081E-17	6.047369E-19
7.460000E+03	4.756889E-17	6.037668E-19
7.470000E+03	4.745417E-17	6.027678E-19
7.480000E+03	4.733714E-17	6.017457E-19
7.490000E+03	4.721765E-17	6.006989E-19
7.500000E+03	4.709433E-17	5.996097E-19
7.510000E+03	4.696830E-17	5.984924E-19
7.520000E+03	4.683883E-17	5.973372E-19
7.530000E+03	4.670583E-17	5.961428E-19
7.540000E+03	4.656862E-17	5.949001E-19
7.550000E+03	4.642843E-17	5.936246E-19
7.560000E+03	4.628470E-17	5.923086E-19
7.570000E+03	4.613687E-17	5.909450E-19
7.580000E+03	4.598571E-17	5.895430E-19
7.590000E+03	4.583137E-17	5.881043E-19
7.600000E+03	4.567342E-17	5.866231E-19
7.610000E+03	4.551268E-17	5.851094E-19
7.620000E+03	4.534930E-17	5.835652E-19
7.630000E+03	4.518289E-17	5.819848E-19
7.640000E+03	4.501364E-17	5.803706E-19
7.650000E+03	4.484236E-17	5.787325E-19
7.660000E+03	4.466862E-17	5.770649E-19
7.670000E+03	4.449321E-17	5.753776E-19
7.680000E+03	4.431571E-17	5.736650E-19
7.690000E+03	4.413689E-17	5.719367E-19
7.700000E+03	4.395574E-17	5.701794E-19
7.710000E+03	4.377361E-17	5.684101E-19
7.720000E+03	4.359066E-17	5.666311E-19
7.730000E+03	4.340644E-17	5.648361E-19
7.740000E+03	4.322111E-17	5.630269E-19
7.750000E+03	4.303540E-17	5.612128E-19
7.760000E+03	4.284885E-17	5.593876E-19
