#wls	flux	fluxerr
1.600000E+03	4.646923E-18	1.687010E-19
1.640000E+03	4.655933E-18	1.688920E-19
1.680000E+03	4.666639E-18	1.691404E-19
1.720000E+03	4.678128E-18	1.694127E-19
1.760000E+03	4.692224E-18	1.697750E-19
1.800000E+03	4.707099E-18	1.701606E-19
1.840000E+03	4.724586E-18	1.706357E-19
1.880000E+03	4.744691E-18	1.712001E-19
1.920000E+03	4.766492E-18	1.718200E-19
1.960000E+03	4.790916E-18	1.725287E-19
2.000000E+03	4.818894E-18	1.733591E-19
2.040000E+03	4.850436E-18	1.743110E-19
2.080000E+03	4.884610E-18	1.753505E-19
2.120000E+03	4.923293E-18	1.765444E-19
2.160000E+03	4.965551E-18	1.778584E-19
2.200000E+03	5.011385E-18	1.792920E-19
2.240000E+03	5.061738E-18	1.808781E-19
2.280000E+03	5.116608E-18	1.826160E-19
2.320000E+03	5.175046E-18	1.844710E-19
2.360000E+03	5.238943E-18	1.865095E-19
2.400000E+03	5.308296E-18	1.887304E-19
2.440000E+03	5.381186E-18	1.910647E-19
2.480000E+03	5.460461E-18	1.936123E-19
2.520000E+03	5.544194E-18	1.963038E-19
2.560000E+03	5.633319E-18	1.991712E-19
2.600000E+03	5.727811E-18	2.022123E-19
2.640000E+03	5.828601E-18	2.054588E-19
2.680000E+03	5.935659E-18	2.089081E-19
2.720000E+03	6.049910E-18	2.125912E-19
2.760000E+03	6.170348E-18	2.164712E-19
2.800000E+03	6.298856E-18	2.206124E-19
2.840000E+03	6.436348E-18	2.250449E-19
2.880000E+03	6.582769E-18	2.297644E-19
2.920000E+03	6.739987E-18	2.348339E-19
2.960000E+03	6.909866E-18	2.403154E-19
3.000000E+03	7.093294E-18	2.462368E-19
3.010000E+03	7.141650E-18	2.477988E-19
3.020000E+03	7.190907E-18	2.493898E-19
3.030000E+03	7.242030E-18	2.510433E-19
3.040000E+03	7.293082E-18	2.526920E-19
3.050000E+03	7.345996E-18	2.544030E-19
3.060000E+03	7.399805E-18	2.561426E-19
3.070000E+03	7.455471E-18	2.579440E-19
3.080000E+03	7.512028E-18	2.597738E-19
3.090000E+03	7.569473E-18	2.616317E-19
3.100000E+03	7.628770E-18	2.635511E-19
3.110000E+03	7.689918E-18	2.655317E-19
3.120000E+03	7.751947E-18	2.675400E-19
3.130000E+03	7.815822E-18	2.696092E-19
3.140000E+03	7.880575E-18	2.717058E-19
3.150000E+03	7.948135E-18	2.738963E-19
3.160000E+03	8.016566E-18	2.761137E-19
3.170000E+03	8.086834E-18	2.783913E-19
3.180000E+03	8.158935E-18	2.807288E-19
3.190000E+03	8.233832E-18	2.831593E-19
3.200000E+03	8.309588E-18	2.856160E-19
3.210000E+03	8.388136E-18	2.881651E-19
3.220000E+03	8.468503E-18	2.907732E-19
3.230000E+03	8.550687E-18	2.934401E-19
3.240000E+03	8.635650E-18	2.961986E-19
3.250000E+03	8.722423E-18	2.990154E-19
3.260000E+03	8.811966E-18	3.019231E-19
3.270000E+03	8.904276E-18	3.049216E-19
3.280000E+03	8.998385E-18	3.079775E-19
3.290000E+03	9.096215E-18	3.111565E-19
3.300000E+03	9.195833E-18	3.143923E-19
3.310000E+03	9.298202E-18	3.177175E-19
3.320000E+03	9.404277E-18	3.211647E-19
3.330000E+03	9.513089E-18	3.247005E-19
3.340000E+03	9.624636E-18	3.283248E-19
3.350000E+03	9.739872E-18	3.320697E-19
3.360000E+03	9.858792E-18	3.359350E-19
3.370000E+03	9.980428E-18	3.398875E-19
3.380000E+03	1.010574E-17	3.439594E-19
3.390000E+03	1.023471E-17	3.481503E-19
3.400000E+03	1.036734E-17	3.524597E-19
3.410000E+03	1.050363E-17	3.568872E-19
3.420000E+03	1.064451E-17	3.614648E-19
3.430000E+03	1.078904E-17	3.661595E-19
3.440000E+03	1.093720E-17	3.709707E-19
3.450000E+03	1.109089E-17	3.759629E-19
3.460000E+03	1.124820E-17	3.810707E-19
3.470000E+03	1.141007E-17	3.863254E-19
3.480000E+03	1.157746E-17	3.917598E-19
3.490000E+03	1.174939E-17	3.973398E-19
3.500000E+03	1.192586E-17	4.030655E-19
3.510000E+03	1.210686E-17	4.089360E-19
3.520000E+03	1.229429E-17	4.150150E-19
3.530000E+03	1.248624E-17	4.212379E-19
3.540000E+03	1.268362E-17	4.276353E-19
3.550000E+03	1.288742E-17	4.342397E-19
3.560000E+03	1.309664E-17	4.410170E-19
3.570000E+03	1.331128E-17	4.479673E-19
3.580000E+03	1.353230E-17	4.551219E-19
3.590000E+03	1.375966E-17	4.624794E-19
3.600000E+03	1.399337E-17	4.700393E-19
3.610000E+03	1.423339E-17	4.778004E-19
3.620000E+03	1.448069E-17	4.857945E-19
3.630000E+03	1.473430E-17	4.939881E-19
3.640000E+03	1.499419E-17	5.023806E-19
3.650000E+03	1.526226E-17	5.110345E-19
3.660000E+03	1.553661E-17	5.198857E-19
3.670000E+03	1.581815E-17	5.289645E-19
3.680000E+03	1.610784E-17	5.383023E-19
3.690000E+03	1.640564E-17	5.478972E-19
3.700000E+03	1.671061E-17	5.577171E-19
3.710000E+03	1.702368E-17	5.677927E-19
3.720000E+03	1.734483E-17	5.781225E-19
3.730000E+03	1.767405E-17	5.887059E-19
3.740000E+03	1.801133E-17	5.995416E-19
3.750000E+03	1.835759E-17	6.106598E-19
3.760000E+03	1.871284E-17	6.220601E-19
3.770000E+03	1.907611E-17	6.337094E-19
3.780000E+03	1.944926E-17	6.456694E-19
3.790000E+03	1.983040E-17	6.578764E-19
3.800000E+03	2.022141E-17	6.703919E-19
3.810000E+03	2.062134E-17	6.831840E-19
3.820000E+03	2.103110E-17	6.962820E-19
3.830000E+03	2.145070E-17	7.096853E-19
3.840000E+03	2.187918E-17	7.233617E-19
3.850000E+03	2.231746E-17	7.373408E-19
3.860000E+03	2.276649E-17	7.516532E-19
3.870000E+03	2.322530E-17	7.662662E-19
3.880000E+03	2.369389E-17	7.811790E-19
3.890000E+03	2.417226E-17	7.963908E-19
3.900000E+03	2.466133E-17	8.119314E-19
3.910000E+03	2.516016E-17	8.277686E-19
3.920000E+03	2.567063E-17	8.439635E-19
3.930000E+03	2.619085E-17	8.604533E-19
3.940000E+03	2.672082E-17	8.772374E-19
3.950000E+03	2.726242E-17	8.943765E-19
3.960000E+03	2.781376E-17	9.118077E-19
3.970000E+03	2.837580E-17	9.295616E-19
3.980000E+03	2.894852E-17	9.476370E-19
3.990000E+03	2.953194E-17	9.660336E-19
4.000000E+03	3.012606E-17	9.847503E-19
4.010000E+03	3.073088E-17	1.003787E-18
4.020000E+03	3.134549E-17	1.023112E-18
4.030000E+03	3.197083E-17	1.042756E-18
4.040000E+03	3.260598E-17	1.062688E-18
4.050000E+03	3.325188E-17	1.082938E-18
4.060000E+03	3.390762E-17	1.103476E-18
4.070000E+03	3.457323E-17	1.124301E-18
4.080000E+03	3.524872E-17	1.145413E-18
4.090000E+03	3.593412E-17	1.166812E-18
4.100000E+03	3.662852E-17	1.188468E-18
4.110000E+03	3.733196E-17	1.210382E-18
4.120000E+03	3.804444E-17	1.232553E-18
4.130000E+03	3.876604E-17	1.254982E-18
4.140000E+03	3.949491E-17	1.277610E-18
4.150000E+03	4.023293E-17	1.300496E-18
4.160000E+03	4.097739E-17	1.323552E-18
4.170000E+03	4.173017E-17	1.346838E-18
4.180000E+03	4.248946E-17	1.370295E-18
4.190000E+03	4.325438E-17	1.393895E-18
4.200000E+03	4.402590E-17	1.417668E-18
4.210000E+03	4.480224E-17	1.441556E-18
4.220000E+03	4.558343E-17	1.465560E-18
4.230000E+03	4.636953E-17	1.489681E-18
4.240000E+03	4.715876E-17	1.513863E-18
4.250000E+03	4.795022E-17	1.538075E-18
4.260000E+03	4.874492E-17	1.562350E-18
4.270000E+03	4.954107E-17	1.586630E-18
4.280000E+03	5.033777E-17	1.610887E-18
4.290000E+03	5.113420E-17	1.635095E-18
4.300000E+03	5.193039E-17	1.659253E-18
4.310000E+03	5.272547E-17	1.683335E-18
4.320000E+03	5.351768E-17	1.707284E-18
4.330000E+03	5.430613E-17	1.731073E-18
4.340000E+03	5.509179E-17	1.754732E-18
4.350000E+03	5.587196E-17	1.778176E-18
4.360000E+03	5.664667E-17	1.801406E-18
4.370000E+03	5.741414E-17	1.824366E-18
4.380000E+03	5.817441E-17	1.847058E-18
4.390000E+03	5.892657E-17	1.869455E-18
4.400000E+03	5.966882E-17	1.891498E-18
4.410000E+03	6.039936E-17	1.913133E-18
4.420000E+03	6.111911E-17	1.934389E-18
4.430000E+03	6.182533E-17	1.955180E-18
4.440000E+03	6.251800E-17	1.975508E-18
4.450000E+03	6.319531E-17	1.995316E-18
4.460000E+03	6.385723E-17	2.014604E-18
4.470000E+03	6.450375E-17	2.033373E-18
4.480000E+03	6.513574E-17	2.051652E-18
4.490000E+03	6.575133E-17	2.069384E-18
4.500000E+03	6.635232E-17	2.086626E-18
4.510000E+03	6.693771E-17	2.103348E-18
4.520000E+03	6.750837E-17	2.119579E-18
4.530000E+03	6.806330E-17	2.135288E-18
4.540000E+03	6.860332E-17	2.150503E-18
4.550000E+03	6.912832E-17	2.165222E-18
4.560000E+03	6.963729E-17	2.179414E-18
4.570000E+03	7.013192E-17	2.193133E-18
4.580000E+03	7.061115E-17	2.206348E-18
4.590000E+03	7.107577E-17	2.219085E-18
4.600000E+03	7.152560E-17	2.231339E-18
4.610000E+03	7.196230E-17	2.243163E-18
4.620000E+03	7.238385E-17	2.254496E-18
4.630000E+03	7.279187E-17	2.265389E-18
4.640000E+03	7.318711E-17	2.275867E-18
4.650000E+03	7.356836E-17	2.285894E-18
4.660000E+03	7.393819E-17	2.295550E-18
4.670000E+03	7.429448E-17	2.304770E-18
4.680000E+03	7.463973E-17	2.313634E-18
4.690000E+03	7.497366E-17	2.322134E-18
4.700000E+03	7.529598E-17	2.330262E-18
4.710000E+03	7.560824E-17	2.338066E-18
4.720000E+03	7.591104E-17	2.345567E-18
4.730000E+03	7.620315E-17	2.352728E-18
4.740000E+03	7.648701E-17	2.359624E-18
4.750000E+03	7.676226E-17	2.366245E-18
4.760000E+03	7.702860E-17	2.372584E-18
4.770000E+03	7.728659E-17	2.378657E-18
4.780000E+03	7.753591E-17	2.384457E-18
4.790000E+03	7.777622E-17	2.389973E-18
4.800000E+03	7.800904E-17	2.395254E-18
4.810000E+03	7.823220E-17	2.400233E-18
4.820000E+03	7.844642E-17	2.404933E-18
4.830000E+03	7.865063E-17	2.409323E-18
4.840000E+03	7.884653E-17	2.413455E-18
4.850000E+03	7.903221E-17	2.417273E-18
4.860000E+03	7.920851E-17	2.420801E-18
4.870000E+03	7.937448E-17	2.424014E-18
4.880000E+03	7.953197E-17	2.426967E-18
4.890000E+03	7.967916E-17	2.429606E-18
4.900000E+03	7.981799E-17	2.431990E-18
4.910000E+03	7.994669E-17	2.434067E-18
4.920000E+03	8.006723E-17	2.435897E-18
4.930000E+03	8.017884E-17	2.437458E-18
4.940000E+03	8.028259E-17	2.438781E-18
4.950000E+03	8.037775E-17	2.439847E-18
4.960000E+03	8.046545E-17	2.440689E-18
4.970000E+03	8.054496E-17	2.441286E-18
4.980000E+03	8.061833E-17	2.441701E-18
4.990000E+03	8.068395E-17	2.441884E-18
5.000000E+03	8.074295E-17	2.441872E-18
5.010000E+03	8.079645E-17	2.441699E-18
5.020000E+03	8.084378E-17	2.441343E-18
5.030000E+03	8.088513E-17	2.440813E-18
5.040000E+03	8.092076E-17	2.440115E-18
5.050000E+03	8.095173E-17	2.439283E-18
5.060000E+03	8.097827E-17	2.438322E-18
5.070000E+03	8.099967E-17	2.437214E-18
5.080000E+03	8.101703E-17	2.435990E-18
5.090000E+03	8.102964E-17	2.434630E-18
5.100000E+03	8.103857E-17	2.433166E-18
5.110000E+03	8.104399E-17	2.431603E-18
5.120000E+03	8.104607E-17	2.429948E-18
5.130000E+03	8.104496E-17	2.428204E-18
5.140000E+03	8.103995E-17	2.426351E-18
5.150000E+03	8.103206E-17	2.424419E-18
5.160000E+03	8.102229E-17	2.422439E-18
5.170000E+03	8.100904E-17	2.420362E-18
5.180000E+03	8.099329E-17	2.418219E-18
5.190000E+03	8.097432E-17	2.415988E-18
5.200000E+03	8.095396E-17	2.413724E-18
5.210000E+03	8.093145E-17	2.411404E-18
5.220000E+03	8.090604E-17	2.409007E-18
5.230000E+03	8.087953E-17	2.406585E-18
5.240000E+03	8.085031E-17	2.404092E-18
5.250000E+03	8.081932E-17	2.401555E-18
5.260000E+03	8.078663E-17	2.398977E-18
5.270000E+03	8.075233E-17	2.396360E-18
5.280000E+03	8.071563E-17	2.393682E-18
5.290000E+03	8.067745E-17	2.390969E-18
5.300000E+03	8.063786E-17	2.388224E-18
5.310000E+03	8.059689E-17	2.385448E-18
5.320000E+03	8.055379E-17	2.382619E-18
5.330000E+03	8.050859E-17	2.379738E-18
5.340000E+03	8.046219E-17	2.376832E-18
5.350000E+03	8.041462E-17	2.373902E-18
5.360000E+03	8.036428E-17	2.370900E-18
5.370000E+03	8.031285E-17	2.367877E-18
5.380000E+03	8.026038E-17	2.364834E-18
5.390000E+03	8.020524E-17	2.361724E-18
5.400000E+03	8.014911E-17	2.358596E-18
5.410000E+03	8.009039E-17	2.355403E-18
5.420000E+03	8.003075E-17	2.352194E-18
5.430000E+03	7.996938E-17	2.348946E-18
5.440000E+03	7.990551E-17	2.345636E-18
5.450000E+03	7.984078E-17	2.342314E-18
5.460000E+03	7.977358E-17	2.338931E-18
5.470000E+03	7.970475E-17	2.335513E-18
5.480000E+03	7.963431E-17	2.332060E-18
5.490000E+03	7.956148E-17	2.328550E-18
5.500000E+03	7.948706E-17	2.325006E-18
5.510000E+03	7.941029E-17	2.321407E-18
5.520000E+03	7.933118E-17	2.317753E-18
5.530000E+03	7.924973E-17	2.314044E-18
5.540000E+03	7.916677E-17	2.310305E-18
5.550000E+03	7.908229E-17	2.306535E-18
5.560000E+03	7.899554E-17	2.302713E-18
5.570000E+03	7.890650E-17	2.298840E-18
5.580000E+03	7.881677E-17	2.294960E-18
5.590000E+03	7.872557E-17	2.291053E-18
5.600000E+03	7.863289E-17	2.287117E-18
5.610000E+03	7.853799E-17	2.283132E-18
5.620000E+03	7.844239E-17	2.279143E-18
5.630000E+03	7.834535E-17	2.275127E-18
5.640000E+03	7.824687E-17	2.271085E-18
5.650000E+03	7.814695E-17	2.267017E-18
5.660000E+03	7.804635E-17	2.262946E-18
5.670000E+03	7.794356E-17	2.258828E-18
5.680000E+03	7.783935E-17	2.254685E-18
5.690000E+03	7.773373E-17	2.250518E-18
5.700000E+03	7.762670E-17	2.246327E-18
5.710000E+03	7.751750E-17	2.242091E-18
5.720000E+03	7.740768E-17	2.237855E-18
5.730000E+03	7.729570E-17	2.233574E-18
5.740000E+03	7.718234E-17	2.229271E-18
5.750000E+03	7.706687E-17	2.224925E-18
5.760000E+03	7.695004E-17	2.220559E-18
5.770000E+03	7.683111E-17	2.216150E-18
5.780000E+03	7.671009E-17	2.211700E-18
5.790000E+03	7.658775E-17	2.207231E-18
5.800000E+03	7.646261E-17	2.202701E-18
5.810000E+03	7.633616E-17	2.198153E-18
5.820000E+03	7.620696E-17	2.193545E-18
5.830000E+03	7.607574E-17	2.188900E-18
5.840000E+03	7.594180E-17	2.184196E-18
5.850000E+03	7.580589E-17	2.179457E-18
5.860000E+03	7.566728E-17	2.174660E-18
5.870000E+03	7.552601E-17	2.169809E-18
5.880000E+03	7.538211E-17	2.164903E-18
5.890000E+03	7.523558E-17	2.159943E-18
5.900000E+03	7.508573E-17	2.154909E-18
5.910000E+03	7.493332E-17	2.149824E-18
5.920000E+03	7.477764E-17	2.144668E-18
5.930000E+03	7.461872E-17	2.139441E-18
5.940000E+03	7.445658E-17	2.134144E-18
5.950000E+03	7.429055E-17	2.128759E-18
5.960000E+03	7.412138E-17	2.123308E-18
5.970000E+03	7.394837E-17	2.117770E-18
5.980000E+03	7.377227E-17	2.112167E-18
5.990000E+03	7.359169E-17	2.106459E-18
6.000000E+03	7.340738E-17	2.100669E-18
6.010000E+03	7.321866E-17	2.094778E-18
6.020000E+03	7.302629E-17	2.088806E-18
6.030000E+03	7.282888E-17	2.082715E-18
6.040000E+03	7.262788E-17	2.076547E-18
6.050000E+03	7.242194E-17	2.070262E-18
6.060000E+03	7.221110E-17	2.063863E-18
6.070000E+03	7.199609E-17	2.057369E-18
6.080000E+03	7.177557E-17	2.050745E-18
6.090000E+03	7.155028E-17	2.044010E-18
6.100000E+03	7.131959E-17	2.037146E-18
6.110000E+03	7.108425E-17	2.030176E-18
6.120000E+03	7.084360E-17	2.023080E-18
6.130000E+03	7.059704E-17	2.015842E-18
6.140000E+03	7.034531E-17	2.008483E-18
6.150000E+03	7.008848E-17	2.001005E-18
6.160000E+03	6.982594E-17	1.993391E-18
6.170000E+03	6.955847E-17	1.985662E-18
6.180000E+03	6.928679E-17	1.977841E-18
6.190000E+03	6.901033E-17	1.969909E-18
6.200000E+03	6.872920E-17	1.961872E-18
6.210000E+03	6.844283E-17	1.953711E-18
6.220000E+03	6.815200E-17	1.945450E-18
6.230000E+03	6.785751E-17	1.937111E-18
6.240000E+03	6.755814E-17	1.928660E-18
6.250000E+03	6.725470E-17	1.920119E-18
6.260000E+03	6.694865E-17	1.911531E-18
6.270000E+03	6.663881E-17	1.902861E-18
6.280000E+03	6.632664E-17	1.894151E-18
6.290000E+03	6.601163E-17	1.885387E-18
6.300000E+03	6.569525E-17	1.876609E-18
6.310000E+03	6.537761E-17	1.867822E-18
6.320000E+03	6.505821E-17	1.859011E-18
6.330000E+03	6.473850E-17	1.850217E-18
6.340000E+03	6.441794E-17	1.841425E-18
6.350000E+03	6.409796E-17	1.832675E-18
6.360000E+03	6.377803E-17	1.823952E-18
6.370000E+03	6.345889E-17	1.815277E-18
6.380000E+03	6.314066E-17	1.806653E-18
6.390000E+03	6.282405E-17	1.798101E-18
6.400000E+03	6.250978E-17	1.789639E-18
6.410000E+03	6.219728E-17	1.781251E-18
6.420000E+03	6.188851E-17	1.772992E-18
6.430000E+03	6.158224E-17	1.764826E-18
6.440000E+03	6.127975E-17	1.756789E-18
6.450000E+03	6.098236E-17	1.748919E-18
6.460000E+03	6.068942E-17	1.741196E-18
6.470000E+03	6.040223E-17	1.733657E-18
6.480000E+03	6.012140E-17	1.726320E-18
6.490000E+03	5.984755E-17	1.719200E-18
6.500000E+03	5.958129E-17	1.712316E-18
6.510000E+03	5.932257E-17	1.705666E-18
6.520000E+03	5.907010E-17	1.699211E-18
6.530000E+03	5.882322E-17	1.692934E-18
6.540000E+03	5.858189E-17	1.686832E-18
6.550000E+03	5.834542E-17	1.680885E-18
6.560000E+03	5.811441E-17	1.675110E-18
6.570000E+03	5.788693E-17	1.669450E-18
6.580000E+03	5.766480E-17	1.663959E-18
6.590000E+03	5.744610E-17	1.658580E-18
6.600000E+03	5.723138E-17	1.653330E-18
6.610000E+03	5.702123E-17	1.648223E-18
6.620000E+03	5.681432E-17	1.643223E-18
6.630000E+03	5.661122E-17	1.638344E-18
6.640000E+03	5.641187E-17	1.633585E-18
6.650000E+03	5.621681E-17	1.628961E-18
6.660000E+03	5.602474E-17	1.624435E-18
6.670000E+03	5.583621E-17	1.620021E-18
6.680000E+03	5.565114E-17	1.615718E-18
6.690000E+03	5.547010E-17	1.611541E-18
6.700000E+03	5.529237E-17	1.607469E-18
6.710000E+03	5.511789E-17	1.603501E-18
6.720000E+03	5.494719E-17	1.599652E-18
6.730000E+03	5.477960E-17	1.595902E-18
6.740000E+03	5.461564E-17	1.592265E-18
6.750000E+03	5.445524E-17	1.588739E-18
6.760000E+03	5.429832E-17	1.585323E-18
6.770000E+03	5.414418E-17	1.581996E-18
6.780000E+03	5.399399E-17	1.578790E-18
6.790000E+03	5.384643E-17	1.575668E-18
6.800000E+03	5.370265E-17	1.572664E-18
6.810000E+03	5.356196E-17	1.569756E-18
6.820000E+03	5.342429E-17	1.566943E-18
6.830000E+03	5.329016E-17	1.564239E-18
6.840000E+03	5.315889E-17	1.561625E-18
6.850000E+03	5.303041E-17	1.559098E-18
6.860000E+03	5.290525E-17	1.556675E-18
6.870000E+03	5.278332E-17	1.554351E-18
6.880000E+03	5.266396E-17	1.552108E-18
6.890000E+03	5.254706E-17	1.549942E-18
6.900000E+03	5.243318E-17	1.547869E-18
6.910000E+03	5.232225E-17	1.545888E-18
6.920000E+03	5.221357E-17	1.543978E-18
6.930000E+03	5.210829E-17	1.542172E-18
6.940000E+03	5.200450E-17	1.540414E-18
6.950000E+03	5.190397E-17	1.538756E-18
6.960000E+03	5.180540E-17	1.537160E-18
6.970000E+03	5.170871E-17	1.535623E-18
6.980000E+03	5.161507E-17	1.534180E-18
6.990000E+03	5.152315E-17	1.532791E-18
7.000000E+03	5.143291E-17	1.531455E-18
7.010000E+03	5.134487E-17	1.530187E-18
7.020000E+03	5.125896E-17	1.528985E-18
7.030000E+03	5.117450E-17	1.527829E-18
7.040000E+03	5.109141E-17	1.526716E-18
7.050000E+03	5.101023E-17	1.525662E-18
7.060000E+03	5.093089E-17	1.524666E-18
7.070000E+03	5.085271E-17	1.523705E-18
7.080000E+03	5.077559E-17	1.522778E-18
7.090000E+03	5.069947E-17	1.521883E-18
7.100000E+03	5.062489E-17	1.521036E-18
7.110000E+03	5.055053E-17	1.520196E-18
7.120000E+03	5.047756E-17	1.519399E-18
7.130000E+03	5.040528E-17	1.518623E-18
7.140000E+03	5.033359E-17	1.517866E-18
7.150000E+03	5.026243E-17	1.517126E-18
7.160000E+03	5.019171E-17	1.516399E-18
7.170000E+03	5.012072E-17	1.515664E-18
7.180000E+03	5.005063E-17	1.514957E-18
7.190000E+03	4.998009E-17	1.514235E-18
7.200000E+03	4.990965E-17	1.513517E-18
7.210000E+03	4.983921E-17	1.512798E-18
7.220000E+03	4.976807E-17	1.512056E-18
7.230000E+03	4.969674E-17	1.511309E-18
7.240000E+03	4.962512E-17	1.510551E-18
7.250000E+03	4.955252E-17	1.509762E-18
7.260000E+03	4.947881E-17	1.508938E-18
7.270000E+03	4.940453E-17	1.508094E-18
7.280000E+03	4.932956E-17	1.507228E-18
7.290000E+03	4.925257E-17	1.506297E-18
7.300000E+03	4.917468E-17	1.505337E-18
7.310000E+03	4.909579E-17	1.504343E-18
7.320000E+03	4.901516E-17	1.503293E-18
7.330000E+03	4.893268E-17	1.502184E-18
7.340000E+03	4.884887E-17	1.501030E-18
7.350000E+03	4.876235E-17	1.499789E-18
7.360000E+03	4.867426E-17	1.498496E-18
7.370000E+03	4.858449E-17	1.497147E-18
7.380000E+03	4.849230E-17	1.495720E-18
7.390000E+03	4.839693E-17	1.494189E-18
7.400000E+03	4.829954E-17	1.492592E-18
7.410000E+03	4.819999E-17	1.490922E-18
7.420000E+03	4.809694E-17	1.489139E-18
7.430000E+03	4.799151E-17	1.487276E-18
7.440000E+03	4.788237E-17	1.485292E-18
7.450000E+03	4.777065E-17	1.483222E-18
7.460000E+03	4.765502E-17	1.481023E-18
7.470000E+03	4.753661E-17	1.478732E-18
7.480000E+03	4.741476E-17	1.476326E-18
7.490000E+03	4.728937E-17	1.473802E-18
7.500000E+03	4.716039E-17	1.471159E-18
7.510000E+03	4.702779E-17	1.468394E-18
7.520000E+03	4.689152E-17	1.465507E-18
7.530000E+03	4.675158E-17	1.462496E-18
7.540000E+03	4.660737E-17	1.459342E-18
7.550000E+03	4.646012E-17	1.456083E-18
7.560000E+03	4.630865E-17	1.452683E-18
7.570000E+03	4.615365E-17	1.449162E-18
7.580000E+03	4.599457E-17	1.445503E-18
7.590000E+03	4.583211E-17	1.441727E-18
7.600000E+03	4.566639E-17	1.437837E-18
7.610000E+03	4.549692E-17	1.433818E-18
7.620000E+03	4.532443E-17	1.429693E-18
7.630000E+03	4.514904E-17	1.425465E-18
7.640000E+03	4.497033E-17	1.421120E-18
7.650000E+03	4.478843E-17	1.416662E-18
7.660000E+03	4.460411E-17	1.412115E-18
7.670000E+03	4.441692E-17	1.407465E-18
7.680000E+03	4.422761E-17	1.402735E-18
7.690000E+03	4.403634E-17	1.397930E-18
7.700000E+03	4.384211E-17	1.393017E-18
7.710000E+03	4.364681E-17	1.388058E-18
7.720000E+03	4.344944E-17	1.383020E-18
7.730000E+03	4.325014E-17	1.377907E-18
7.740000E+03	4.304966E-17	1.372742E-18
7.750000E+03	4.284756E-17	1.367512E-18
7.760000E+03	4.264455E-17	1.362239E-18
