#wls	flux	fluxerr
1.600000E+03	3.034003E-18	1.940083E-19
1.640000E+03	3.063112E-18	1.955553E-19
1.680000E+03	3.093540E-18	1.971720E-19
1.720000E+03	3.125296E-18	1.988581E-19
1.760000E+03	3.158933E-18	2.006479E-19
1.800000E+03	3.193366E-18	2.024715E-19
1.840000E+03	3.229698E-18	2.043978E-19
1.880000E+03	3.267940E-18	2.064264E-19
1.920000E+03	3.308103E-18	2.085568E-19
1.960000E+03	3.349636E-18	2.107529E-19
2.000000E+03	3.393669E-18	2.130846E-19
2.040000E+03	3.439648E-18	2.155155E-19
2.080000E+03	3.488149E-18	2.180802E-19
2.120000E+03	3.539183E-18	2.207777E-19
2.160000E+03	3.592759E-18	2.236066E-19
2.200000E+03	3.648884E-18	2.265653E-19
2.240000E+03	3.708142E-18	2.296884E-19
2.280000E+03	3.770543E-18	2.329738E-19
2.320000E+03	3.836681E-18	2.364559E-19
2.360000E+03	3.905972E-18	2.400958E-19
2.400000E+03	3.979006E-18	2.439273E-19
2.440000E+03	4.056380E-18	2.479838E-19
2.480000E+03	4.138095E-18	2.522619E-19
2.520000E+03	4.224750E-18	2.567944E-19
2.560000E+03	4.315732E-18	2.615402E-19
2.600000E+03	4.412849E-18	2.666046E-19
2.640000E+03	4.514867E-18	2.719084E-19
2.680000E+03	4.622983E-18	2.775189E-19
2.720000E+03	4.737784E-18	2.834659E-19
2.760000E+03	4.859236E-18	2.897414E-19
2.800000E+03	4.988530E-18	2.964102E-19
2.840000E+03	5.124991E-18	3.034251E-19
2.880000E+03	5.270419E-18	3.108855E-19
2.920000E+03	5.424737E-18	3.187784E-19
2.960000E+03	5.587849E-18	3.270897E-19
3.000000E+03	5.761521E-18	3.359135E-19
3.010000E+03	5.807006E-18	3.382226E-19
3.020000E+03	5.852434E-18	3.405212E-19
3.030000E+03	5.899060E-18	3.428821E-19
3.040000E+03	5.946252E-18	3.452684E-19
3.050000E+03	5.994008E-18	3.476799E-19
3.060000E+03	6.042955E-18	3.501526E-19
3.070000E+03	6.092461E-18	3.526498E-19
3.080000E+03	6.142522E-18	3.551710E-19
3.090000E+03	6.193135E-18	3.577160E-19
3.100000E+03	6.244928E-18	3.603208E-19
3.110000E+03	6.297268E-18	3.629486E-19
3.120000E+03	6.350781E-18	3.656354E-19
3.130000E+03	6.404833E-18	3.683444E-19
3.140000E+03	6.459422E-18	3.710752E-19
3.150000E+03	6.515175E-18	3.738638E-19
3.160000E+03	6.572087E-18	3.767095E-19
3.170000E+03	6.629524E-18	3.795759E-19
3.180000E+03	6.687481E-18	3.824623E-19
3.190000E+03	6.747218E-18	3.854408E-19
3.200000E+03	6.806836E-18	3.884023E-19
3.210000E+03	6.868225E-18	3.914547E-19
3.220000E+03	6.930116E-18	3.945253E-19
3.230000E+03	6.993139E-18	3.976497E-19
3.240000E+03	7.056654E-18	4.007913E-19
3.250000E+03	7.121923E-18	4.040216E-19
3.260000E+03	7.187674E-18	4.072680E-19
3.270000E+03	7.254535E-18	4.105658E-19
3.280000E+03	7.321869E-18	4.138788E-19
3.290000E+03	7.390933E-18	4.172778E-19
3.300000E+03	7.461090E-18	4.207265E-19
3.310000E+03	7.531702E-18	4.241885E-19
3.320000E+03	7.604027E-18	4.277345E-19
3.330000E+03	7.676794E-18	4.312926E-19
3.340000E+03	7.751261E-18	4.349334E-19
3.350000E+03	7.826789E-18	4.386203E-19
3.360000E+03	7.903369E-18	4.423528E-19
3.370000E+03	7.980366E-18	4.460950E-19
3.380000E+03	8.059664E-18	4.499518E-19
3.390000E+03	8.139364E-18	4.538169E-19
3.400000E+03	8.220717E-18	4.577597E-19
3.410000E+03	8.303087E-18	4.617444E-19
3.420000E+03	8.386465E-18	4.657701E-19
3.430000E+03	8.470841E-18	4.698360E-19
3.440000E+03	8.556838E-18	4.739764E-19
3.450000E+03	8.644448E-18	4.781903E-19
3.460000E+03	8.733030E-18	4.824417E-19
3.470000E+03	8.822574E-18	4.867300E-19
3.480000E+03	8.913702E-18	4.910890E-19
3.490000E+03	9.006403E-18	4.955176E-19
3.500000E+03	9.100037E-18	4.999803E-19
3.510000E+03	9.195222E-18	5.045106E-19
3.520000E+03	9.291319E-18	5.090731E-19
3.530000E+03	9.389575E-18	5.137356E-19
3.540000E+03	9.488721E-18	5.184282E-19
3.550000E+03	9.588750E-18	5.231503E-19
3.560000E+03	9.690898E-18	5.279688E-19
3.570000E+03	9.794520E-18	5.328480E-19
3.580000E+03	9.899000E-18	5.377541E-19
3.590000E+03	1.000555E-17	5.427523E-19
3.600000E+03	1.011292E-17	5.477745E-19
3.610000E+03	1.022235E-17	5.528875E-19
3.620000E+03	1.033257E-17	5.580219E-19
3.630000E+03	1.044480E-17	5.632436E-19
3.640000E+03	1.055843E-17	5.685183E-19
3.650000E+03	1.067343E-17	5.738447E-19
3.660000E+03	1.078979E-17	5.792212E-19
3.670000E+03	1.090811E-17	5.846798E-19
3.680000E+03	1.102774E-17	5.901858E-19
3.690000E+03	1.114870E-17	5.957383E-19
3.700000E+03	1.127093E-17	6.013349E-19
3.710000E+03	1.139506E-17	6.070083E-19
3.720000E+03	1.152045E-17	6.127239E-19
3.730000E+03	1.164769E-17	6.185124E-19
3.740000E+03	1.177614E-17	6.243394E-19
3.750000E+03	1.190641E-17	6.302368E-19
3.760000E+03	1.203786E-17	6.361699E-19
3.770000E+03	1.217048E-17	6.421378E-19
3.780000E+03	1.230545E-17	6.482026E-19
3.790000E+03	1.244093E-17	6.542662E-19
3.800000E+03	1.257873E-17	6.604238E-19
3.810000E+03	1.271760E-17	6.666090E-19
3.820000E+03	1.285811E-17	6.728517E-19
3.830000E+03	1.299966E-17	6.791189E-19
3.840000E+03	1.314282E-17	6.854407E-19
3.850000E+03	1.328695E-17	6.917829E-19
3.860000E+03	1.343325E-17	6.982071E-19
3.870000E+03	1.358046E-17	7.046480E-19
3.880000E+03	1.372856E-17	7.111042E-19
3.890000E+03	1.387875E-17	7.176362E-19
3.900000E+03	1.402976E-17	7.241789E-19
3.910000E+03	1.418158E-17	7.307309E-19
3.920000E+03	1.433479E-17	7.373216E-19
3.930000E+03	1.448933E-17	7.439481E-19
3.940000E+03	1.464519E-17	7.506081E-19
3.950000E+03	1.480173E-17	7.572693E-19
3.960000E+03	1.495952E-17	7.639599E-19
3.970000E+03	1.511791E-17	7.706468E-19
3.980000E+03	1.527748E-17	7.773591E-19
3.990000E+03	1.543759E-17	7.840633E-19
4.000000E+03	1.559879E-17	7.907879E-19
4.010000E+03	1.576048E-17	7.975006E-19
4.020000E+03	1.592259E-17	8.041992E-19
4.030000E+03	1.608569E-17	8.109112E-19
4.040000E+03	1.624916E-17	8.176049E-19
4.050000E+03	1.641293E-17	8.242773E-19
4.060000E+03	1.657759E-17	8.309566E-19
4.070000E+03	1.674189E-17	8.375811E-19
4.080000E+03	1.690641E-17	8.441791E-19
4.090000E+03	1.707110E-17	8.507476E-19
4.100000E+03	1.723592E-17	8.572847E-19
4.110000E+03	1.740084E-17	8.637888E-19
4.120000E+03	1.756524E-17	8.702289E-19
4.130000E+03	1.772967E-17	8.766322E-19
4.140000E+03	1.789408E-17	8.829964E-19
4.150000E+03	1.805731E-17	8.892638E-19
4.160000E+03	1.822047E-17	8.954894E-19
4.170000E+03	1.838296E-17	9.016437E-19
4.180000E+03	1.854476E-17	9.077254E-19
4.190000E+03	1.870527E-17	9.137060E-19
4.200000E+03	1.886561E-17	9.196399E-19
4.210000E+03	1.902408E-17	9.254438E-19
4.220000E+03	1.918233E-17	9.311990E-19
4.230000E+03	1.933868E-17	9.368244E-19
4.240000E+03	1.949426E-17	9.423737E-19
4.250000E+03	1.964847E-17	9.478197E-19
4.260000E+03	1.980136E-17	9.531639E-19
4.270000E+03	1.995235E-17	9.583792E-19
4.280000E+03	2.010201E-17	9.634940E-19
4.290000E+03	2.024983E-17	9.684829E-19
4.300000E+03	2.039582E-17	9.733478E-19
4.310000E+03	2.054056E-17	9.781165E-19
4.320000E+03	2.068298E-17	9.827388E-19
4.330000E+03	2.082368E-17	9.872438E-19
4.340000E+03	2.096271E-17	9.916337E-19
4.350000E+03	2.109959E-17	9.958864E-19
4.360000E+03	2.123437E-17	1.000006E-18
4.370000E+03	2.136712E-17	1.003995E-18
4.380000E+03	2.149793E-17	1.007858E-18
4.390000E+03	2.162687E-17	1.011601E-18
4.400000E+03	2.175349E-17	1.015202E-18
4.410000E+03	2.187792E-17	1.018667E-18
4.420000E+03	2.200076E-17	1.022026E-18
4.430000E+03	2.212161E-17	1.025260E-18
4.440000E+03	2.224058E-17	1.028376E-18
4.450000E+03	2.235728E-17	1.031355E-18
4.460000E+03	2.247235E-17	1.034228E-18
4.470000E+03	2.258541E-17	1.036977E-18
4.480000E+03	2.269713E-17	1.039635E-18
4.490000E+03	2.280713E-17	1.042185E-18
4.500000E+03	2.291555E-17	1.044633E-18
4.510000E+03	2.302207E-17	1.046965E-18
4.520000E+03	2.312784E-17	1.049234E-18
4.530000E+03	2.323202E-17	1.051402E-18
4.540000E+03	2.333479E-17	1.053478E-18
4.550000E+03	2.343681E-17	1.055493E-18
4.560000E+03	2.353775E-17	1.057431E-18
4.570000E+03	2.363781E-17	1.059302E-18
4.580000E+03	2.373714E-17	1.061113E-18
4.590000E+03	2.383644E-17	1.062895E-18
4.600000E+03	2.393489E-17	1.064613E-18
4.610000E+03	2.403316E-17	1.066296E-18
4.620000E+03	2.413144E-17	1.067952E-18
4.630000E+03	2.422940E-17	1.069568E-18
4.640000E+03	2.432772E-17	1.071172E-18
4.650000E+03	2.442657E-17	1.072774E-18
4.660000E+03	2.452564E-17	1.074358E-18
4.670000E+03	2.462557E-17	1.075953E-18
4.680000E+03	2.472606E-17	1.077546E-18
4.690000E+03	2.482773E-17	1.079163E-18
4.700000E+03	2.493027E-17	1.080791E-18
4.710000E+03	2.503382E-17	1.082436E-18
4.720000E+03	2.513900E-17	1.084123E-18
4.730000E+03	2.524546E-17	1.085838E-18
4.740000E+03	2.535381E-17	1.087607E-18
4.750000E+03	2.546370E-17	1.089412E-18
4.760000E+03	2.557520E-17	1.091259E-18
4.770000E+03	2.568891E-17	1.093170E-18
4.780000E+03	2.580442E-17	1.095129E-18
4.790000E+03	2.592228E-17	1.097159E-18
4.800000E+03	2.604205E-17	1.099239E-18
4.810000E+03	2.616378E-17	1.101372E-18
4.820000E+03	2.628845E-17	1.103597E-18
4.830000E+03	2.641460E-17	1.105854E-18
4.840000E+03	2.654367E-17	1.108201E-18
4.850000E+03	2.667465E-17	1.110596E-18
4.860000E+03	2.680797E-17	1.113057E-18
4.870000E+03	2.694357E-17	1.115579E-18
4.880000E+03	2.708134E-17	1.118158E-18
4.890000E+03	2.722068E-17	1.120769E-18
4.900000E+03	2.736243E-17	1.123445E-18
4.910000E+03	2.750550E-17	1.126141E-18
4.920000E+03	2.765069E-17	1.128889E-18
4.930000E+03	2.779735E-17	1.131661E-18
4.940000E+03	2.794532E-17	1.134452E-18
4.950000E+03	2.809443E-17	1.137253E-18
4.960000E+03	2.824498E-17	1.140076E-18
4.970000E+03	2.839631E-17	1.142893E-18
4.980000E+03	2.854873E-17	1.145718E-18
4.990000E+03	2.870157E-17	1.148522E-18
5.000000E+03	2.885515E-17	1.151318E-18
5.010000E+03	2.900930E-17	1.154099E-18
5.020000E+03	2.916336E-17	1.156839E-18
5.030000E+03	2.931767E-17	1.159551E-18
5.040000E+03	2.947208E-17	1.162228E-18
5.050000E+03	2.962646E-17	1.164866E-18
5.060000E+03	2.978066E-17	1.167460E-18
5.070000E+03	2.993408E-17	1.169984E-18
5.080000E+03	3.008762E-17	1.172474E-18
5.090000E+03	3.024065E-17	1.174907E-18
5.100000E+03	3.039312E-17	1.177279E-18
5.110000E+03	3.054496E-17	1.179589E-18
5.120000E+03	3.069608E-17	1.181834E-18
5.130000E+03	3.084700E-17	1.184032E-18
5.140000E+03	3.099713E-17	1.186163E-18
5.150000E+03	3.114649E-17	1.188226E-18
5.160000E+03	3.129505E-17	1.190221E-18
5.170000E+03	3.144336E-17	1.192169E-18
5.180000E+03	3.159092E-17	1.194051E-18
5.190000E+03	3.173777E-17	1.195869E-18
5.200000E+03	3.188447E-17	1.197644E-18
5.210000E+03	3.203057E-17	1.199360E-18
5.220000E+03	3.217612E-17	1.201018E-18
5.230000E+03	3.232175E-17	1.202642E-18
5.240000E+03	3.246702E-17	1.204216E-18
5.250000E+03	3.261255E-17	1.205763E-18
5.260000E+03	3.275737E-17	1.207247E-18
5.270000E+03	3.290321E-17	1.208731E-18
5.280000E+03	3.304857E-17	1.210162E-18
5.290000E+03	3.319466E-17	1.211582E-18
5.300000E+03	3.334103E-17	1.212976E-18
5.310000E+03	3.348784E-17	1.214349E-18
5.320000E+03	3.363573E-17	1.215725E-18
5.330000E+03	3.378430E-17	1.217088E-18
5.340000E+03	3.393421E-17	1.218462E-18
5.350000E+03	3.408449E-17	1.219813E-18
5.360000E+03	3.423634E-17	1.221182E-18
5.370000E+03	3.438933E-17	1.222555E-18
5.380000E+03	3.454413E-17	1.223954E-18
5.390000E+03	3.469969E-17	1.225343E-18
5.400000E+03	3.485726E-17	1.226765E-18
5.410000E+03	3.501634E-17	1.228202E-18
5.420000E+03	3.517698E-17	1.229655E-18
5.430000E+03	3.533986E-17	1.231148E-18
5.440000E+03	3.550441E-17	1.232661E-18
5.450000E+03	3.567070E-17	1.234196E-18
5.460000E+03	3.583874E-17	1.235752E-18
5.470000E+03	3.600914E-17	1.237350E-18
5.480000E+03	3.618130E-17	1.238969E-18
5.490000E+03	3.635520E-17	1.240609E-18
5.500000E+03	3.653142E-17	1.242288E-18
5.510000E+03	3.670932E-17	1.243986E-18
5.520000E+03	3.688944E-17	1.245718E-18
5.530000E+03	3.707050E-17	1.247442E-18
5.540000E+03	3.725423E-17	1.249217E-18
5.550000E+03	3.743931E-17	1.250997E-18
5.560000E+03	3.762562E-17	1.252779E-18
5.570000E+03	3.781365E-17	1.254579E-18
5.580000E+03	3.800324E-17	1.256392E-18
5.590000E+03	3.819424E-17	1.258213E-18
5.600000E+03	3.838585E-17	1.260014E-18
5.610000E+03	3.857850E-17	1.261812E-18
5.620000E+03	3.877199E-17	1.263599E-18
5.630000E+03	3.896546E-17	1.265349E-18
5.640000E+03	3.915997E-17	1.267096E-18
5.650000E+03	3.935464E-17	1.268811E-18
5.660000E+03	3.954919E-17	1.270488E-18
5.670000E+03	3.974339E-17	1.272119E-18
5.680000E+03	3.993694E-17	1.273695E-18
5.690000E+03	4.013023E-17	1.275231E-18
5.700000E+03	4.032230E-17	1.276696E-18
5.710000E+03	4.051284E-17	1.278083E-18
5.720000E+03	4.070224E-17	1.279404E-18
5.730000E+03	4.088949E-17	1.280631E-18
5.740000E+03	4.107496E-17	1.281774E-18
5.750000E+03	4.125765E-17	1.282807E-18
5.760000E+03	4.143791E-17	1.283741E-18
5.770000E+03	4.161542E-17	1.284568E-18
5.780000E+03	4.178986E-17	1.285281E-18
5.790000E+03	4.196022E-17	1.285850E-18
5.800000E+03	4.212686E-17	1.286290E-18
5.810000E+03	4.228947E-17	1.286594E-18
5.820000E+03	4.244771E-17	1.286753E-18
5.830000E+03	4.260131E-17	1.286762E-18
5.840000E+03	4.274994E-17	1.286614E-18
5.850000E+03	4.289262E-17	1.286283E-18
5.860000E+03	4.303046E-17	1.285805E-18
5.870000E+03	4.316250E-17	1.285155E-18
5.880000E+03	4.328845E-17	1.284327E-18
5.890000E+03	4.340809E-17	1.283318E-18
5.900000E+03	4.352117E-17	1.282124E-18
5.910000E+03	4.362747E-17	1.280741E-18
5.920000E+03	4.372752E-17	1.279191E-18
5.930000E+03	4.381967E-17	1.277426E-18
5.940000E+03	4.390522E-17	1.275491E-18
5.950000E+03	4.398327E-17	1.273361E-18
5.960000E+03	4.405371E-17	1.271037E-18
5.970000E+03	4.411642E-17	1.268520E-18
5.980000E+03	4.417132E-17	1.265811E-18
5.990000E+03	4.421832E-17	1.262912E-18
6.000000E+03	4.425812E-17	1.259847E-18
6.010000E+03	4.428923E-17	1.256576E-18
6.020000E+03	4.431310E-17	1.253145E-18
6.030000E+03	4.432903E-17	1.249537E-18
6.040000E+03	4.433629E-17	1.245736E-18
6.050000E+03	4.433645E-17	1.241790E-18
6.060000E+03	4.432959E-17	1.237705E-18
6.070000E+03	4.431431E-17	1.233444E-18
6.080000E+03	4.429148E-17	1.229035E-18
6.090000E+03	4.426123E-17	1.224487E-18
6.100000E+03	4.422374E-17	1.219806E-18
6.110000E+03	4.417992E-17	1.215022E-18
6.120000E+03	4.412848E-17	1.210101E-18
6.130000E+03	4.407036E-17	1.205073E-18
6.140000E+03	4.400655E-17	1.199968E-18
6.150000E+03	4.393579E-17	1.194753E-18
6.160000E+03	4.385906E-17	1.189459E-18
6.170000E+03	4.377664E-17	1.184096E-18
6.180000E+03	4.368954E-17	1.178693E-18
6.190000E+03	4.359656E-17	1.173221E-18
6.200000E+03	4.349873E-17	1.167708E-18
6.210000E+03	4.339633E-17	1.162166E-18
6.220000E+03	4.328970E-17	1.156604E-18
6.230000E+03	4.317915E-17	1.151031E-18
6.240000E+03	4.306500E-17	1.145459E-18
6.250000E+03	4.294758E-17	1.139895E-18
6.260000E+03	4.282724E-17	1.134350E-18
6.270000E+03	4.270428E-17	1.128833E-18
6.280000E+03	4.257904E-17	1.123353E-18
6.290000E+03	4.245184E-17	1.117919E-18
6.300000E+03	4.232299E-17	1.112539E-18
6.310000E+03	4.219282E-17	1.107223E-18
6.320000E+03	4.206160E-17	1.101977E-18
6.330000E+03	4.193038E-17	1.096830E-18
6.340000E+03	4.179796E-17	1.091749E-18
6.350000E+03	4.166608E-17	1.086781E-18
6.360000E+03	4.153352E-17	1.081894E-18
6.370000E+03	4.140200E-17	1.077131E-18
6.380000E+03	4.127101E-17	1.072480E-18
6.390000E+03	4.114148E-17	1.067965E-18
6.400000E+03	4.101291E-17	1.063571E-18
6.410000E+03	4.088543E-17	1.059303E-18
6.420000E+03	4.075922E-17	1.055165E-18
6.430000E+03	4.063513E-17	1.051175E-18
6.440000E+03	4.051329E-17	1.047336E-18
6.450000E+03	4.039236E-17	1.043610E-18
6.460000E+03	4.027457E-17	1.040053E-18
6.470000E+03	4.015857E-17	1.036626E-18
6.480000E+03	4.004512E-17	1.033348E-18
6.490000E+03	3.993353E-17	1.030199E-18
6.500000E+03	3.982454E-17	1.027196E-18
6.510000E+03	3.971818E-17	1.024336E-18
6.520000E+03	3.961440E-17	1.021617E-18
6.530000E+03	3.951319E-17	1.019036E-18
6.540000E+03	3.941452E-17	1.016590E-18
6.550000E+03	3.931764E-17	1.014259E-18
6.560000E+03	3.922390E-17	1.012074E-18
6.570000E+03	3.913254E-17	1.010015E-18
6.580000E+03	3.904348E-17	1.008077E-18
6.590000E+03	3.895736E-17	1.006275E-18
6.600000E+03	3.887339E-17	1.004586E-18
6.610000E+03	3.879146E-17	1.003007E-18
6.620000E+03	3.871148E-17	1.001534E-18
6.630000E+03	3.863409E-17	1.000179E-18
6.640000E+03	3.855915E-17	9.989403E-19
6.650000E+03	3.848588E-17	9.977937E-19
6.660000E+03	3.841486E-17	9.967536E-19
6.670000E+03	3.834527E-17	9.957970E-19
6.680000E+03	3.827844E-17	9.949569E-19
6.690000E+03	3.821283E-17	9.941917E-19
6.700000E+03	3.814903E-17	9.935154E-19
6.710000E+03	3.808692E-17	9.929237E-19
6.720000E+03	3.802642E-17	9.924125E-19
6.730000E+03	3.796739E-17	9.919774E-19
6.740000E+03	3.790900E-17	9.915953E-19
6.750000E+03	3.785331E-17	9.913183E-19
6.760000E+03	3.779803E-17	9.910860E-19
6.770000E+03	3.774380E-17	9.909130E-19
6.780000E+03	3.769120E-17	9.908142E-19
6.790000E+03	3.763941E-17	9.907662E-19
6.800000E+03	3.758834E-17	9.907658E-19
6.810000E+03	3.753787E-17	9.908087E-19
6.820000E+03	3.748863E-17	9.909103E-19
6.830000E+03	3.743980E-17	9.910478E-19
6.840000E+03	3.739201E-17	9.912366E-19
6.850000E+03	3.734443E-17	9.914545E-19
6.860000E+03	3.729698E-17	9.916974E-19
6.870000E+03	3.725028E-17	9.919814E-19
6.880000E+03	3.720427E-17	9.923036E-19
6.890000E+03	3.715813E-17	9.926414E-19
6.900000E+03	3.711180E-17	9.929920E-19
6.910000E+03	3.706591E-17	9.933716E-19
6.920000E+03	3.701967E-17	9.937580E-19
6.930000E+03	3.697375E-17	9.941682E-19
6.940000E+03	3.692809E-17	9.946000E-19
6.950000E+03	3.688190E-17	9.950312E-19
6.960000E+03	3.683513E-17	9.954596E-19
6.970000E+03	3.678848E-17	9.959031E-19
6.980000E+03	3.674116E-17	9.963398E-19
6.990000E+03	3.669386E-17	9.967876E-19
7.000000E+03	3.664584E-17	9.972258E-19
7.010000E+03	3.659779E-17	9.976721E-19
7.020000E+03	3.654897E-17	9.981059E-19
7.030000E+03	3.649936E-17	9.985261E-19
7.040000E+03	3.644969E-17	9.989516E-19
7.050000E+03	3.639923E-17	9.993620E-19
7.060000E+03	3.634797E-17	9.997566E-19
7.070000E+03	3.629666E-17	1.000155E-18
7.080000E+03	3.624387E-17	1.000518E-18
7.090000E+03	3.619105E-17	1.000884E-18
7.100000E+03	3.613753E-17	1.001235E-18
7.110000E+03	3.608332E-17	1.001570E-18
7.120000E+03	3.602847E-17	1.001890E-18
7.130000E+03	3.597303E-17	1.002196E-18
7.140000E+03	3.591704E-17	1.002489E-18
7.150000E+03	3.586056E-17	1.002771E-18
7.160000E+03	3.580293E-17	1.003021E-18
7.170000E+03	3.574493E-17	1.003262E-18
7.180000E+03	3.568665E-17	1.003496E-18
7.190000E+03	3.562813E-17	1.003724E-18
7.200000E+03	3.556875E-17	1.003928E-18
7.210000E+03	3.550930E-17	1.004130E-18
7.220000E+03	3.544916E-17	1.004312E-18
7.230000E+03	3.538912E-17	1.004497E-18
7.240000E+03	3.532786E-17	1.004647E-18
7.250000E+03	3.526759E-17	1.004824E-18
7.260000E+03	3.520627E-17	1.004971E-18
7.270000E+03	3.514544E-17	1.005130E-18
7.280000E+03	3.508375E-17	1.005265E-18
7.290000E+03	3.502275E-17	1.005417E-18
7.300000E+03	3.496179E-17	1.005571E-18
7.310000E+03	3.490028E-17	1.005707E-18
7.320000E+03	3.483973E-17	1.005870E-18
7.330000E+03	3.477882E-17	1.006022E-18
7.340000E+03	3.471836E-17	1.006186E-18
7.350000E+03	3.465843E-17	1.006365E-18
7.360000E+03	3.459914E-17	1.006561E-18
7.370000E+03	3.453985E-17	1.006758E-18
7.380000E+03	3.448066E-17	1.006956E-18
7.390000E+03	3.442235E-17	1.007181E-18
7.400000E+03	3.436500E-17	1.007433E-18
7.410000E+03	3.430799E-17	1.007696E-18
7.420000E+03	3.425208E-17	1.007991E-18
7.430000E+03	3.419664E-17	1.008301E-18
7.440000E+03	3.414171E-17	1.008627E-18
7.450000E+03	3.408737E-17	1.008972E-18
7.460000E+03	3.403434E-17	1.009357E-18
7.470000E+03	3.398198E-17	1.009763E-18
7.480000E+03	3.393031E-17	1.010193E-18
7.490000E+03	3.387935E-17	1.010645E-18
7.500000E+03	3.382983E-17	1.011144E-18
7.510000E+03	3.378035E-17	1.011646E-18
7.520000E+03	3.373231E-17	1.012195E-18
7.530000E+03	3.368503E-17	1.012771E-18
7.540000E+03	3.363778E-17	1.013351E-18
7.550000E+03	3.359195E-17	1.013977E-18
7.560000E+03	3.354684E-17	1.014628E-18
7.570000E+03	3.350244E-17	1.015303E-18
7.580000E+03	3.345872E-17	1.016001E-18
7.590000E+03	3.341568E-17	1.016721E-18
7.600000E+03	3.337261E-17	1.017443E-18
7.610000E+03	3.333086E-17	1.018207E-18
7.620000E+03	3.328972E-17	1.018990E-18
7.630000E+03	3.324914E-17	1.019792E-18
7.640000E+03	3.320838E-17	1.020589E-18
7.650000E+03	3.316879E-17	1.021423E-18
7.660000E+03	3.312894E-17	1.022250E-18
7.670000E+03	3.308944E-17	1.023087E-18
7.680000E+03	3.305095E-17	1.023956E-18
7.690000E+03	3.301201E-17	1.024810E-18
7.700000E+03	3.297255E-17	1.025648E-18
7.710000E+03	3.293390E-17	1.026511E-18
7.720000E+03	3.289530E-17	1.027374E-18
7.730000E+03	3.285598E-17	1.028214E-18
7.740000E+03	3.281727E-17	1.029071E-18
7.750000E+03	3.277769E-17	1.029900E-18
7.760000E+03	3.273719E-17	1.030698E-18
