#wls	flux	fluxerr
1.600000E+03	2.507445E-18	3.513978E-19
1.640000E+03	2.537449E-18	3.550958E-19
1.680000E+03	2.568396E-18	3.588993E-19
1.720000E+03	2.600749E-18	3.628711E-19
1.760000E+03	2.634085E-18	3.669508E-19
1.800000E+03	2.668875E-18	3.712021E-19
1.840000E+03	2.705145E-18	3.756265E-19
1.880000E+03	2.742922E-18	3.802258E-19
1.920000E+03	2.782237E-18	3.850020E-19
1.960000E+03	2.823118E-18	3.899565E-19
2.000000E+03	2.865592E-18	3.950907E-19
2.040000E+03	2.910165E-18	4.004716E-19
2.080000E+03	2.956399E-18	4.060360E-19
2.120000E+03	3.004808E-18	4.118514E-19
2.160000E+03	3.055433E-18	4.179201E-19
2.200000E+03	3.107826E-18	4.241771E-19
2.240000E+03	3.163010E-18	4.307586E-19
2.280000E+03	3.220539E-18	4.375994E-19
2.320000E+03	3.280966E-18	4.447703E-19
2.360000E+03	3.343833E-18	4.522045E-19
2.400000E+03	3.409703E-18	4.599732E-19
2.440000E+03	3.478632E-18	4.680785E-19
2.480000E+03	3.550678E-18	4.765225E-19
2.520000E+03	3.626430E-18	4.853780E-19
2.560000E+03	3.705425E-18	4.945763E-19
2.600000E+03	3.788262E-18	5.041902E-19
2.640000E+03	3.875558E-18	5.142940E-19
2.680000E+03	3.966852E-18	5.248182E-19
2.720000E+03	4.062218E-18	5.357637E-19
2.760000E+03	4.162848E-18	5.472784E-19
2.800000E+03	4.267719E-18	5.592171E-19
2.840000E+03	4.378613E-18	5.718028E-19
2.880000E+03	4.494502E-18	5.848888E-19
2.920000E+03	4.616057E-18	5.985500E-19
2.960000E+03	4.743971E-18	6.128628E-19
3.000000E+03	4.878369E-18	6.278279E-19
3.010000E+03	4.912848E-18	6.316522E-19
3.020000E+03	4.948038E-18	6.355553E-19
3.030000E+03	4.983349E-18	6.394612E-19
3.040000E+03	5.019375E-18	6.434459E-19
3.050000E+03	5.055525E-18	6.474332E-19
3.060000E+03	5.092396E-18	6.514996E-19
3.070000E+03	5.129393E-18	6.555684E-19
3.080000E+03	5.167118E-18	6.597164E-19
3.090000E+03	5.205573E-18	6.639435E-19
3.100000E+03	5.244160E-18	6.681730E-19
3.110000E+03	5.283484E-18	6.724818E-19
3.120000E+03	5.322942E-18	6.767928E-19
3.130000E+03	5.363141E-18	6.811829E-19
3.140000E+03	5.403478E-18	6.855753E-19
3.150000E+03	5.444562E-18	6.900470E-19
3.160000E+03	5.485787E-18	6.945206E-19
3.170000E+03	5.528378E-18	6.991511E-19
3.180000E+03	5.570501E-18	7.037059E-19
3.190000E+03	5.613999E-18	7.084178E-19
3.200000E+03	5.657645E-18	7.131313E-19
3.210000E+03	5.701440E-18	7.178466E-19
3.220000E+03	5.746625E-18	7.227192E-19
3.230000E+03	5.791344E-18	7.275154E-19
3.240000E+03	5.837460E-18	7.324691E-19
3.250000E+03	5.883736E-18	7.374242E-19
3.260000E+03	5.930796E-18	7.424590E-19
3.270000E+03	5.978017E-18	7.474949E-19
3.280000E+03	6.026029E-18	7.526104E-19
3.290000E+03	6.074836E-18	7.578055E-19
3.300000E+03	6.124442E-18	7.630801E-19
3.310000E+03	6.174222E-18	7.683559E-19
3.320000E+03	6.224808E-18	7.737113E-19
3.330000E+03	6.275568E-18	7.790674E-19
3.340000E+03	6.327143E-18	7.845033E-19
3.350000E+03	6.379536E-18	7.900187E-19
3.360000E+03	6.432752E-18	7.956139E-19
3.370000E+03	6.486155E-18	8.012097E-19
3.380000E+03	6.540388E-18	8.068852E-19
3.390000E+03	6.595457E-18	8.126405E-19
3.400000E+03	6.650722E-18	8.183962E-19
3.410000E+03	6.706830E-18	8.242317E-19
3.420000E+03	6.763787E-18	8.301471E-19
3.430000E+03	6.820949E-18	8.360627E-19
3.440000E+03	6.879618E-18	8.421378E-19
3.450000E+03	6.938502E-18	8.482133E-19
3.460000E+03	6.998254E-18	8.543688E-19
3.470000E+03	7.058226E-18	8.605246E-19
3.480000E+03	7.119076E-18	8.667605E-19
3.490000E+03	7.180810E-18	8.730766E-19
3.500000E+03	7.243435E-18	8.794730E-19
3.510000E+03	7.306956E-18	8.859497E-19
3.520000E+03	7.370721E-18	8.924271E-19
3.530000E+03	7.435394E-18	8.989851E-19
3.540000E+03	7.500982E-18	9.056239E-19
3.550000E+03	7.566827E-18	9.122634E-19
3.560000E+03	7.633601E-18	9.189842E-19
3.570000E+03	7.701310E-18	9.257862E-19
3.580000E+03	7.769964E-18	9.326698E-19
3.590000E+03	7.839570E-18	9.396353E-19
3.600000E+03	7.909466E-18	9.466027E-19
3.610000E+03	7.980330E-18	9.536524E-19
3.620000E+03	8.052173E-18	9.607850E-19
3.630000E+03	8.125003E-18	9.680008E-19
3.640000E+03	8.198153E-18	9.752196E-19
3.650000E+03	8.272311E-18	9.825226E-19
3.660000E+03	8.347488E-18	9.899103E-19
3.670000E+03	8.423695E-18	9.973831E-19
3.680000E+03	8.500260E-18	1.004861E-18
3.690000E+03	8.578565E-18	1.012506E-18
3.700000E+03	8.657252E-18	1.020158E-18
3.710000E+03	8.736333E-18	1.027816E-18
3.720000E+03	8.817196E-18	1.035644E-18
3.730000E+03	8.898479E-18	1.043481E-18
3.740000E+03	8.980887E-18	1.051408E-18
3.750000E+03	9.064437E-18	1.059427E-18
3.760000E+03	9.148448E-18	1.067457E-18
3.770000E+03	9.233634E-18	1.075580E-18
3.780000E+03	9.320013E-18	1.083798E-18
3.790000E+03	9.407604E-18	1.092112E-18
3.800000E+03	9.495724E-18	1.100442E-18
3.810000E+03	9.585095E-18	1.108871E-18
3.820000E+03	9.675737E-18	1.117399E-18
3.830000E+03	9.766965E-18	1.125947E-18
3.840000E+03	9.859507E-18	1.134597E-18
3.850000E+03	9.953377E-18	1.143351E-18
3.860000E+03	1.004789E-17	1.152128E-18
3.870000E+03	1.014380E-17	1.161014E-18
3.880000E+03	1.024109E-17	1.170006E-18
3.890000E+03	1.033981E-17	1.179108E-18
3.900000E+03	1.043926E-17	1.188239E-18
3.910000E+03	1.053946E-17	1.197400E-18
3.920000E+03	1.064114E-17	1.206675E-18
3.930000E+03	1.074433E-17	1.216063E-18
3.940000E+03	1.084904E-17	1.225567E-18
3.950000E+03	1.095457E-17	1.235103E-18
3.960000E+03	1.106093E-17	1.244675E-18
3.970000E+03	1.116886E-17	1.254362E-18
3.980000E+03	1.127839E-17	1.264167E-18
3.990000E+03	1.138878E-17	1.274006E-18
4.000000E+03	1.150077E-17	1.283961E-18
4.010000E+03	1.161365E-17	1.293949E-18
4.020000E+03	1.172740E-17	1.303970E-18
4.030000E+03	1.184275E-17	1.314102E-18
4.040000E+03	1.195973E-17	1.324347E-18
4.050000E+03	1.207756E-17	1.334617E-18
4.060000E+03	1.219622E-17	1.344910E-18
4.070000E+03	1.231646E-17	1.355306E-18
4.080000E+03	1.243750E-17	1.365718E-18
4.090000E+03	1.255931E-17	1.376142E-18
4.100000E+03	1.268261E-17	1.386655E-18
4.110000E+03	1.280659E-17	1.397169E-18
4.120000E+03	1.293121E-17	1.407676E-18
4.130000E+03	1.305719E-17	1.418254E-18
4.140000E+03	1.318291E-17	1.428726E-18
4.150000E+03	1.330985E-17	1.439254E-18
4.160000E+03	1.343795E-17	1.449826E-18
4.170000E+03	1.356555E-17	1.460264E-18
4.180000E+03	1.369412E-17	1.470727E-18
4.190000E+03	1.382278E-17	1.481117E-18
4.200000E+03	1.395065E-17	1.491341E-18
4.210000E+03	1.407918E-17	1.501552E-18
4.220000E+03	1.420826E-17	1.511739E-18
4.230000E+03	1.433616E-17	1.521717E-18
4.240000E+03	1.446359E-17	1.531560E-18
4.250000E+03	1.459037E-17	1.541251E-18
4.260000E+03	1.471639E-17	1.550776E-18
4.270000E+03	1.484151E-17	1.560123E-18
4.280000E+03	1.496561E-17	1.569277E-18
4.290000E+03	1.508854E-17	1.578223E-18
4.300000E+03	1.521019E-17	1.586952E-18
4.310000E+03	1.533042E-17	1.595448E-18
4.320000E+03	1.544833E-17	1.603617E-18
4.330000E+03	1.556542E-17	1.611619E-18
4.340000E+03	1.567997E-17	1.619274E-18
4.350000E+03	1.579272E-17	1.626660E-18
4.360000E+03	1.590280E-17	1.633688E-18
4.370000E+03	1.601177E-17	1.640522E-18
4.380000E+03	1.611798E-17	1.646991E-18
4.390000E+03	1.622221E-17	1.653179E-18
4.400000E+03	1.632368E-17	1.659005E-18
4.410000E+03	1.642322E-17	1.664556E-18
4.420000E+03	1.652087E-17	1.669838E-18
4.430000E+03	1.661589E-17	1.674777E-18
4.440000E+03	1.670920E-17	1.679466E-18
4.450000E+03	1.680009E-17	1.683836E-18
4.460000E+03	1.688950E-17	1.687984E-18
4.470000E+03	1.697678E-17	1.691844E-18
4.480000E+03	1.706295E-17	1.695518E-18
4.490000E+03	1.714735E-17	1.698944E-18
4.500000E+03	1.723104E-17	1.702225E-18
4.510000E+03	1.731341E-17	1.705303E-18
4.520000E+03	1.739553E-17	1.708284E-18
4.530000E+03	1.747604E-17	1.711032E-18
4.540000E+03	1.755764E-17	1.713815E-18
4.550000E+03	1.763816E-17	1.716418E-18
4.560000E+03	1.771951E-17	1.719028E-18
4.570000E+03	1.780117E-17	1.721593E-18
4.580000E+03	1.788341E-17	1.724140E-18
4.590000E+03	1.796736E-17	1.726773E-18
4.600000E+03	1.805245E-17	1.729440E-18
4.610000E+03	1.813899E-17	1.732165E-18
4.620000E+03	1.822723E-17	1.734973E-18
4.630000E+03	1.831825E-17	1.737964E-18
4.640000E+03	1.841150E-17	1.741081E-18
4.650000E+03	1.850638E-17	1.744267E-18
4.660000E+03	1.860477E-17	1.747695E-18
4.670000E+03	1.870685E-17	1.751380E-18
4.680000E+03	1.881121E-17	1.755184E-18
4.690000E+03	1.891879E-17	1.759194E-18
4.700000E+03	1.903059E-17	1.763498E-18
4.710000E+03	1.914507E-17	1.767950E-18
4.720000E+03	1.926401E-17	1.772708E-18
4.730000E+03	1.938578E-17	1.777622E-18
4.740000E+03	1.951211E-17	1.782844E-18
4.750000E+03	1.964219E-17	1.788295E-18
4.760000E+03	1.977597E-17	1.793967E-18
4.770000E+03	1.991258E-17	1.799777E-18
4.780000E+03	2.005361E-17	1.805863E-18
4.790000E+03	2.019807E-17	1.812135E-18
4.800000E+03	2.034582E-17	1.818573E-18
4.810000E+03	2.049663E-17	1.825154E-18
4.820000E+03	2.064940E-17	1.831776E-18
4.830000E+03	2.080554E-17	1.838562E-18
4.840000E+03	2.096387E-17	1.845403E-18
4.850000E+03	2.112399E-17	1.852261E-18
4.860000E+03	2.128462E-17	1.859021E-18
4.870000E+03	2.144700E-17	1.865791E-18
4.880000E+03	2.160976E-17	1.872449E-18
4.890000E+03	2.177145E-17	1.878870E-18
4.900000E+03	2.193326E-17	1.885154E-18
4.910000E+03	2.209274E-17	1.891093E-18
4.920000E+03	2.225106E-17	1.896787E-18
4.930000E+03	2.240570E-17	1.902024E-18
4.940000E+03	2.255685E-17	1.906822E-18
4.950000E+03	2.270472E-17	1.911202E-18
4.960000E+03	2.284673E-17	1.914950E-18
4.970000E+03	2.298307E-17	1.918090E-18
4.980000E+03	2.311302E-17	1.920565E-18
4.990000E+03	2.323588E-17	1.922324E-18
5.000000E+03	2.335097E-17	1.923319E-18
5.010000E+03	2.345766E-17	1.923506E-18
5.020000E+03	2.355536E-17	1.922845E-18
5.030000E+03	2.364353E-17	1.921302E-18
5.040000E+03	2.372170E-17	1.918850E-18
5.050000E+03	2.378947E-17	1.915467E-18
5.060000E+03	2.384560E-17	1.911064E-18
5.070000E+03	2.389170E-17	1.905784E-18
5.080000E+03	2.392672E-17	1.899554E-18
5.090000E+03	2.394967E-17	1.892308E-18
5.100000E+03	2.396247E-17	1.884210E-18
5.110000E+03	2.396434E-17	1.875212E-18
5.120000E+03	2.395461E-17	1.865274E-18
5.130000E+03	2.393547E-17	1.854579E-18
5.140000E+03	2.390553E-17	1.843030E-18
5.150000E+03	2.386714E-17	1.830821E-18
5.160000E+03	2.381910E-17	1.817871E-18
5.170000E+03	2.376391E-17	1.804380E-18
5.180000E+03	2.370051E-17	1.790277E-18
5.190000E+03	2.363154E-17	1.775771E-18
5.200000E+03	2.355604E-17	1.760797E-18
5.210000E+03	2.347671E-17	1.745565E-18
5.220000E+03	2.339271E-17	1.730016E-18
5.230000E+03	2.330676E-17	1.714357E-18
5.240000E+03	2.321807E-17	1.698533E-18
5.250000E+03	2.312935E-17	1.682745E-18
5.260000E+03	2.304068E-17	1.667000E-18
5.270000E+03	2.295213E-17	1.651303E-18
5.280000E+03	2.286638E-17	1.635846E-18
5.290000E+03	2.278344E-17	1.620628E-18
5.300000E+03	2.270417E-17	1.605705E-18
5.310000E+03	2.262940E-17	1.591133E-18
5.320000E+03	2.255990E-17	1.576961E-18
5.330000E+03	2.249642E-17	1.563233E-18
5.340000E+03	2.243961E-17	1.549990E-18
5.350000E+03	2.239096E-17	1.537324E-18
5.360000E+03	2.234937E-17	1.525152E-18
5.370000E+03	2.231701E-17	1.513611E-18
5.380000E+03	2.229269E-17	1.502612E-18
5.390000E+03	2.227849E-17	1.492283E-18
5.400000E+03	2.227393E-17	1.482580E-18
5.410000E+03	2.227930E-17	1.473511E-18
5.420000E+03	2.229486E-17	1.465081E-18
5.430000E+03	2.232163E-17	1.457342E-18
5.440000E+03	2.235811E-17	1.450184E-18
5.450000E+03	2.240604E-17	1.443709E-18
5.460000E+03	2.246467E-17	1.437851E-18
5.470000E+03	2.253401E-17	1.432600E-18
5.480000E+03	2.261404E-17	1.427940E-18
5.490000E+03	2.270554E-17	1.423906E-18
5.500000E+03	2.280674E-17	1.420375E-18
5.510000E+03	2.291921E-17	1.417430E-18
5.520000E+03	2.304197E-17	1.414997E-18
5.530000E+03	2.317571E-17	1.413105E-18
5.540000E+03	2.331852E-17	1.411625E-18
5.550000E+03	2.347192E-17	1.410636E-18
5.560000E+03	2.363482E-17	1.410060E-18
5.570000E+03	2.380787E-17	1.409922E-18
5.580000E+03	2.398904E-17	1.410092E-18
5.590000E+03	2.417982E-17	1.410645E-18
5.600000E+03	2.437905E-17	1.411503E-18
5.610000E+03	2.458733E-17	1.412688E-18
5.620000E+03	2.480343E-17	1.414121E-18
5.630000E+03	2.502703E-17	1.415772E-18
5.640000E+03	2.525776E-17	1.417612E-18
5.650000E+03	2.549617E-17	1.419663E-18
5.660000E+03	2.574096E-17	1.421844E-18
5.670000E+03	2.599170E-17	1.424124E-18
5.680000E+03	2.624891E-17	1.426525E-18
5.690000E+03	2.651118E-17	1.428962E-18
5.700000E+03	2.677902E-17	1.431459E-18
5.710000E+03	2.705093E-17	1.433929E-18
5.720000E+03	2.732639E-17	1.436341E-18
5.730000E+03	2.760584E-17	1.438717E-18
5.740000E+03	2.788770E-17	1.440969E-18
5.750000E+03	2.817240E-17	1.443120E-18
5.760000E+03	2.845828E-17	1.445083E-18
5.770000E+03	2.874468E-17	1.446827E-18
5.780000E+03	2.903200E-17	1.448372E-18
5.790000E+03	2.931845E-17	1.449634E-18
5.800000E+03	2.960446E-17	1.450635E-18
5.810000E+03	2.988817E-17	1.451291E-18
5.820000E+03	3.016997E-17	1.451627E-18
5.830000E+03	3.044800E-17	1.451560E-18
5.840000E+03	3.072262E-17	1.451116E-18
5.850000E+03	3.099196E-17	1.450217E-18
5.860000E+03	3.125638E-17	1.448890E-18
5.870000E+03	3.151516E-17	1.447114E-18
5.880000E+03	3.176521E-17	1.444761E-18
5.890000E+03	3.200931E-17	1.441972E-18
5.900000E+03	3.224440E-17	1.438624E-18
5.910000E+03	3.246976E-17	1.434703E-18
5.920000E+03	3.268591E-17	1.430250E-18
5.930000E+03	3.289222E-17	1.425257E-18
5.940000E+03	3.308688E-17	1.419664E-18
5.950000E+03	3.327050E-17	1.413520E-18
5.960000E+03	3.344136E-17	1.406773E-18
5.970000E+03	3.360018E-17	1.399476E-18
5.980000E+03	3.374529E-17	1.391583E-18
5.990000E+03	3.387881E-17	1.383206E-18
6.000000E+03	3.399664E-17	1.374202E-18
6.010000E+03	3.410230E-17	1.364738E-18
6.020000E+03	3.419305E-17	1.354730E-18
6.030000E+03	3.427004E-17	1.344249E-18
6.040000E+03	3.433188E-17	1.333266E-18
6.050000E+03	3.437987E-17	1.321859E-18
6.060000E+03	3.441406E-17	1.310054E-18
6.070000E+03	3.443328E-17	1.297833E-18
6.080000E+03	3.443904E-17	1.285279E-18
6.090000E+03	3.443157E-17	1.272423E-18
6.100000E+03	3.440990E-17	1.259257E-18
6.110000E+03	3.437573E-17	1.245865E-18
6.120000E+03	3.432947E-17	1.232286E-18
6.130000E+03	3.427162E-17	1.218560E-18
6.140000E+03	3.420141E-17	1.204681E-18
6.150000E+03	3.412072E-17	1.190737E-18
6.160000E+03	3.403014E-17	1.176769E-18
6.170000E+03	3.392904E-17	1.162773E-18
6.180000E+03	3.382062E-17	1.148878E-18
6.190000E+03	3.370301E-17	1.135037E-18
6.200000E+03	3.357819E-17	1.121332E-18
6.210000E+03	3.344556E-17	1.107760E-18
6.220000E+03	3.330712E-17	1.094399E-18
6.230000E+03	3.316483E-17	1.081328E-18
6.240000E+03	3.301562E-17	1.068456E-18
6.250000E+03	3.286402E-17	1.055941E-18
6.260000E+03	3.270942E-17	1.043770E-18
6.270000E+03	3.255125E-17	1.031933E-18
6.280000E+03	3.239141E-17	1.020497E-18
6.290000E+03	3.223047E-17	1.009488E-18
6.300000E+03	3.206900E-17	9.989257E-19
6.310000E+03	3.190751E-17	9.888321E-19
6.320000E+03	3.174524E-17	9.791875E-19
6.330000E+03	3.158509E-17	9.700834E-19
6.340000E+03	3.142501E-17	9.614591E-19
6.350000E+03	3.126655E-17	9.533641E-19
6.360000E+03	3.111004E-17	9.458091E-19
6.370000E+03	3.095574E-17	9.388021E-19
6.380000E+03	3.080391E-17	9.323506E-19
6.390000E+03	3.065355E-17	9.264238E-19
6.400000E+03	3.050721E-17	9.210970E-19
6.410000E+03	3.036269E-17	9.163016E-19
6.420000E+03	3.022241E-17	9.121046E-19
6.430000E+03	3.008413E-17	9.084257E-19
6.440000E+03	2.994906E-17	9.052880E-19
6.450000E+03	2.981724E-17	9.026787E-19
6.460000E+03	2.968870E-17	9.005852E-19
6.470000E+03	2.956345E-17	8.989940E-19
6.480000E+03	2.944148E-17	8.978907E-19
6.490000E+03	2.932281E-17	8.972621E-19
6.500000E+03	2.920741E-17	8.970935E-19
6.510000E+03	2.909526E-17	8.973703E-19
6.520000E+03	2.898636E-17	8.980791E-19
6.530000E+03	2.887953E-17	8.991697E-19
6.540000E+03	2.877702E-17	9.006987E-19
6.550000E+03	2.867765E-17	9.026167E-19
6.560000E+03	2.858139E-17	9.049097E-19
6.570000E+03	2.848820E-17	9.075642E-19
6.580000E+03	2.839693E-17	9.105316E-19
6.590000E+03	2.830976E-17	9.138693E-19
6.600000E+03	2.822554E-17	9.175296E-19
6.610000E+03	2.814419E-17	9.214991E-19
6.620000E+03	2.806569E-17	9.257662E-19
6.630000E+03	2.798997E-17	9.303185E-19
6.640000E+03	2.791586E-17	9.351071E-19
6.650000E+03	2.784552E-17	9.401943E-19
6.660000E+03	2.777776E-17	9.455318E-19
6.670000E+03	2.771361E-17	9.511462E-19
6.680000E+03	2.765080E-17	9.569513E-19
6.690000E+03	2.759036E-17	9.629742E-19
6.700000E+03	2.753219E-17	9.692042E-19
6.710000E+03	2.747621E-17	9.756310E-19
6.720000E+03	2.742341E-17	9.822831E-19
6.730000E+03	2.737152E-17	9.890725E-19
6.740000E+03	2.732263E-17	9.960687E-19
6.750000E+03	2.727443E-17	1.003182E-18
6.760000E+03	2.722904E-17	1.010483E-18
6.770000E+03	2.718522E-17	1.017921E-18
6.780000E+03	2.714289E-17	1.025489E-18
6.790000E+03	2.710194E-17	1.033176E-18
6.800000E+03	2.706224E-17	1.040974E-18
6.810000E+03	2.702371E-17	1.048873E-18
6.820000E+03	2.698621E-17	1.056865E-18
6.830000E+03	2.694963E-17	1.064940E-18
6.840000E+03	2.691385E-17	1.073089E-18
6.850000E+03	2.687984E-17	1.081348E-18
6.860000E+03	2.684531E-17	1.089620E-18
6.870000E+03	2.681230E-17	1.097983E-18
6.880000E+03	2.677961E-17	1.106387E-18
6.890000E+03	2.674710E-17	1.114820E-18
6.900000E+03	2.671463E-17	1.123274E-18
6.910000E+03	2.668208E-17	1.131740E-18
6.920000E+03	2.664928E-17	1.140207E-18
6.930000E+03	2.661609E-17	1.148665E-18
6.940000E+03	2.658237E-17	1.157104E-18
6.950000E+03	2.654795E-17	1.165514E-18
6.960000E+03	2.651376E-17	1.173933E-18
6.970000E+03	2.647745E-17	1.182251E-18
6.980000E+03	2.644101E-17	1.190556E-18
6.990000E+03	2.640321E-17	1.198787E-18
7.000000E+03	2.636278E-17	1.206884E-18
7.010000E+03	2.632172E-17	1.214933E-18
7.020000E+03	2.627879E-17	1.222874E-18
7.030000E+03	2.623382E-17	1.230694E-18
7.040000E+03	2.618666E-17	1.238384E-18
7.050000E+03	2.613719E-17	1.245932E-18
7.060000E+03	2.608527E-17	1.253329E-18
7.070000E+03	2.603083E-17	1.260566E-18
7.080000E+03	2.597378E-17	1.267634E-18
7.090000E+03	2.591407E-17	1.274528E-18
7.100000E+03	2.585275E-17	1.281295E-18
7.110000E+03	2.578771E-17	1.287827E-18
7.120000E+03	2.572006E-17	1.294174E-18
7.130000E+03	2.564989E-17	1.300337E-18
7.140000E+03	2.557836E-17	1.306371E-18
7.150000E+03	2.550352E-17	1.312175E-18
7.160000E+03	2.542659E-17	1.317806E-18
7.170000E+03	2.534780E-17	1.323275E-18
7.180000E+03	2.526737E-17	1.328590E-18
7.190000E+03	2.518662E-17	1.333818E-18
7.200000E+03	2.510371E-17	1.338860E-18
7.210000E+03	2.501998E-17	1.343787E-18
7.220000E+03	2.493573E-17	1.348612E-18
7.230000E+03	2.485122E-17	1.353349E-18
7.240000E+03	2.476677E-17	1.358016E-18
7.250000E+03	2.468264E-17	1.362626E-18
7.260000E+03	2.459911E-17	1.367196E-18
7.270000E+03	2.451642E-17	1.371739E-18
7.280000E+03	2.443378E-17	1.376212E-18
7.290000E+03	2.435348E-17	1.380744E-18
7.300000E+03	2.427365E-17	1.385233E-18
7.310000E+03	2.419651E-17	1.389805E-18
7.320000E+03	2.412018E-17	1.394356E-18
7.330000E+03	2.404581E-17	1.398953E-18
7.340000E+03	2.397350E-17	1.403604E-18
7.350000E+03	2.390337E-17	1.408320E-18
7.360000E+03	2.383446E-17	1.413045E-18
7.370000E+03	2.376885E-17	1.417906E-18
7.380000E+03	2.370455E-17	1.422787E-18
7.390000E+03	2.364361E-17	1.427812E-18
7.400000E+03	2.358399E-17	1.432864E-18
7.410000E+03	2.352571E-17	1.437944E-18
7.420000E+03	2.347074E-17	1.443176E-18
7.430000E+03	2.341802E-17	1.448498E-18
7.440000E+03	2.336652E-17	1.453848E-18
7.450000E+03	2.331716E-17	1.459286E-18
7.460000E+03	2.326986E-17	1.464809E-18
7.470000E+03	2.322355E-17	1.470353E-18
7.480000E+03	2.318012E-17	1.476039E-18
7.490000E+03	2.313747E-17	1.481737E-18
7.500000E+03	2.309649E-17	1.487505E-18
7.510000E+03	2.305607E-17	1.493273E-18
7.520000E+03	2.301806E-17	1.499163E-18
7.530000E+03	2.298038E-17	1.505040E-18
7.540000E+03	2.294388E-17	1.510962E-18
7.550000E+03	2.290747E-17	1.516856E-18
7.560000E+03	2.287204E-17	1.522782E-18
7.570000E+03	2.283748E-17	1.528733E-18
7.580000E+03	2.280372E-17	1.534703E-18
7.590000E+03	2.276966E-17	1.540621E-18
7.600000E+03	2.273624E-17	1.546548E-18
7.610000E+03	2.270336E-17	1.552477E-18
7.620000E+03	2.267097E-17	1.558407E-18
7.630000E+03	2.263798E-17	1.564261E-18
7.640000E+03	2.260436E-17	1.570037E-18
7.650000E+03	2.257200E-17	1.575865E-18
7.660000E+03	2.253889E-17	1.581606E-18
7.670000E+03	2.250596E-17	1.587323E-18
7.680000E+03	2.247217E-17	1.592944E-18
7.690000E+03	2.243848E-17	1.598534E-18
7.700000E+03	2.240485E-17	1.604091E-18
7.710000E+03	2.237028E-17	1.609543E-18
7.720000E+03	2.233571E-17	1.614957E-18
7.730000E+03	2.230015E-17	1.620260E-18
7.740000E+03	2.226557E-17	1.625595E-18
7.750000E+03	2.222899E-17	1.630743E-18
7.760000E+03	2.219336E-17	1.635921E-18
