#wls	flux	fluxerr
1.600000E+03	1.899167E-18	1.253705E-19
1.640000E+03	1.929544E-18	1.273401E-19
1.680000E+03	1.960952E-18	1.293757E-19
1.720000E+03	1.993436E-18	1.314799E-19
1.760000E+03	2.027042E-18	1.336558E-19
1.800000E+03	2.062180E-18	1.359302E-19
1.840000E+03	2.098919E-18	1.383075E-19
1.880000E+03	2.136585E-18	1.407431E-19
1.920000E+03	2.175977E-18	1.432894E-19
1.960000E+03	2.217175E-18	1.459515E-19
2.000000E+03	2.259871E-18	1.487089E-19
2.040000E+03	2.304133E-18	1.515659E-19
2.080000E+03	2.350441E-18	1.545538E-19
2.120000E+03	2.398481E-18	1.576516E-19
2.160000E+03	2.448333E-18	1.608644E-19
2.200000E+03	2.500944E-18	1.642541E-19
2.240000E+03	2.555140E-18	1.677432E-19
2.280000E+03	2.611887E-18	1.713949E-19
2.320000E+03	2.670857E-18	1.751873E-19
2.360000E+03	2.732627E-18	1.791578E-19
2.400000E+03	2.797342E-18	1.833154E-19
2.440000E+03	2.864668E-18	1.876380E-19
2.480000E+03	2.934739E-18	1.921337E-19
2.520000E+03	3.008200E-18	1.968444E-19
2.560000E+03	3.084715E-18	2.017474E-19
2.600000E+03	3.164970E-18	2.068871E-19
2.640000E+03	3.249170E-18	2.122761E-19
2.680000E+03	3.336420E-18	2.178555E-19
2.720000E+03	3.428574E-18	2.237457E-19
2.760000E+03	3.524752E-18	2.298881E-19
2.800000E+03	3.625164E-18	2.362960E-19
2.840000E+03	3.730652E-18	2.430232E-19
2.880000E+03	3.841499E-18	2.500872E-19
2.920000E+03	3.957367E-18	2.574650E-19
2.960000E+03	4.078525E-18	2.651730E-19
3.000000E+03	4.205940E-18	2.732730E-19
3.010000E+03	4.238876E-18	2.753660E-19
3.020000E+03	4.272190E-18	2.774824E-19
3.030000E+03	4.305885E-18	2.796226E-19
3.040000E+03	4.339968E-18	2.817869E-19
3.050000E+03	4.374443E-18	2.839756E-19
3.060000E+03	4.409315E-18	2.861890E-19
3.070000E+03	4.444589E-18	2.884275E-19
3.080000E+03	4.480272E-18	2.906913E-19
3.090000E+03	4.516368E-18	2.929808E-19
3.100000E+03	4.552883E-18	2.952964E-19
3.110000E+03	4.589822E-18	2.976382E-19
3.120000E+03	4.627191E-18	3.000069E-19
3.130000E+03	4.665741E-18	3.024508E-19
3.140000E+03	4.703992E-18	3.048742E-19
3.150000E+03	4.742690E-18	3.073253E-19
3.160000E+03	4.781842E-18	3.098045E-19
3.170000E+03	4.822219E-18	3.123619E-19
3.180000E+03	4.862300E-18	3.148988E-19
3.190000E+03	4.902852E-18	3.174648E-19
3.200000E+03	4.944666E-18	3.201113E-19
3.210000E+03	4.986185E-18	3.227372E-19
3.220000E+03	5.028990E-18	3.254450E-19
3.230000E+03	5.071502E-18	3.281324E-19
3.240000E+03	5.114516E-18	3.308508E-19
3.250000E+03	5.158854E-18	3.336535E-19
3.260000E+03	5.203719E-18	3.364888E-19
3.270000E+03	5.248293E-18	3.393037E-19
3.280000E+03	5.294230E-18	3.422052E-19
3.290000E+03	5.339875E-18	3.450863E-19
3.300000E+03	5.386910E-18	3.480556E-19
3.310000E+03	5.434507E-18	3.510597E-19
3.320000E+03	5.481816E-18	3.540434E-19
3.330000E+03	5.530553E-18	3.571178E-19
3.340000E+03	5.579876E-18	3.602283E-19
3.350000E+03	5.629790E-18	3.633752E-19
3.360000E+03	5.679417E-18	3.665019E-19
3.370000E+03	5.730530E-18	3.697227E-19
3.380000E+03	5.782257E-18	3.729813E-19
3.390000E+03	5.834606E-18	3.762782E-19
3.400000E+03	5.887584E-18	3.796138E-19
3.410000E+03	5.941198E-18	3.829885E-19
3.420000E+03	5.995458E-18	3.864029E-19
3.430000E+03	6.049432E-18	3.897968E-19
3.440000E+03	6.104995E-18	3.932913E-19
3.450000E+03	6.161226E-18	3.968268E-19
3.460000E+03	6.218134E-18	4.004037E-19
3.470000E+03	6.275723E-18	4.040225E-19
3.480000E+03	6.334004E-18	4.076837E-19
3.490000E+03	6.393967E-18	4.114510E-19
3.500000E+03	6.453661E-18	4.151987E-19
3.510000E+03	6.514069E-18	4.189902E-19
3.520000E+03	6.575199E-18	4.228259E-19
3.530000E+03	6.637061E-18	4.267063E-19
3.540000E+03	6.699658E-18	4.306317E-19
3.550000E+03	6.763002E-18	4.346027E-19
3.560000E+03	6.827099E-18	4.386197E-19
3.570000E+03	6.893008E-18	4.427506E-19
3.580000E+03	6.958642E-18	4.468614E-19
3.590000E+03	7.025051E-18	4.510194E-19
3.600000E+03	7.092245E-18	4.552253E-19
3.610000E+03	7.160228E-18	4.594791E-19
3.620000E+03	7.230105E-18	4.638519E-19
3.630000E+03	7.299699E-18	4.682038E-19
3.640000E+03	7.370104E-18	4.726050E-19
3.650000E+03	7.442452E-18	4.771281E-19
3.660000E+03	7.514510E-18	4.816296E-19
3.670000E+03	7.587398E-18	4.861815E-19
3.680000E+03	7.662277E-18	4.908582E-19
3.690000E+03	7.736855E-18	4.955125E-19
3.700000E+03	7.812282E-18	5.002182E-19
3.710000E+03	7.889747E-18	5.050513E-19
3.720000E+03	7.966896E-18	5.098612E-19
3.730000E+03	8.044909E-18	5.147232E-19
3.740000E+03	8.125008E-18	5.197154E-19
3.750000E+03	8.204772E-18	5.246830E-19
3.760000E+03	8.286651E-18	5.297826E-19
3.770000E+03	8.368183E-18	5.348566E-19
3.780000E+03	8.450598E-18	5.399836E-19
3.790000E+03	8.535168E-18	5.452449E-19
3.800000E+03	8.619366E-18	5.504791E-19
3.810000E+03	8.705745E-18	5.558489E-19
3.820000E+03	8.791733E-18	5.611902E-19
3.830000E+03	8.878612E-18	5.665847E-19
3.840000E+03	8.967708E-18	5.721170E-19
3.850000E+03	9.056377E-18	5.776184E-19
3.860000E+03	9.147287E-18	5.832587E-19
3.870000E+03	9.237744E-18	5.888665E-19
3.880000E+03	9.330459E-18	5.946142E-19
3.890000E+03	9.422696E-18	6.003276E-19
3.900000E+03	9.515803E-18	6.060923E-19
3.910000E+03	9.611194E-18	6.119985E-19
3.920000E+03	9.706053E-18	6.178667E-19
3.930000E+03	9.803205E-18	6.238766E-19
3.940000E+03	9.899787E-18	6.298461E-19
3.950000E+03	9.998682E-18	6.359585E-19
3.960000E+03	1.009696E-17	6.420272E-19
3.970000E+03	1.019606E-17	6.481440E-19
3.980000E+03	1.029748E-17	6.544034E-19
3.990000E+03	1.039821E-17	6.606149E-19
4.000000E+03	1.050126E-17	6.669694E-19
4.010000E+03	1.060357E-17	6.732717E-19
4.020000E+03	1.070664E-17	6.796182E-19
4.030000E+03	1.081204E-17	6.861073E-19
4.040000E+03	1.091660E-17	6.925389E-19
4.050000E+03	1.102187E-17	6.990108E-19
4.060000E+03	1.112946E-17	7.056246E-19
4.070000E+03	1.123612E-17	7.121746E-19
4.080000E+03	1.134342E-17	7.187606E-19
4.090000E+03	1.145303E-17	7.254871E-19
4.100000E+03	1.156159E-17	7.321431E-19
4.110000E+03	1.167075E-17	7.388315E-19
4.120000E+03	1.178217E-17	7.456575E-19
4.130000E+03	1.189244E-17	7.524059E-19
4.140000E+03	1.200322E-17	7.591817E-19
4.150000E+03	1.211449E-17	7.659823E-19
4.160000E+03	1.222622E-17	7.728072E-19
4.170000E+03	1.234013E-17	7.797646E-19
4.180000E+03	1.245270E-17	7.866318E-19
4.190000E+03	1.256563E-17	7.935166E-19
4.200000E+03	1.267890E-17	8.004170E-19
4.210000E+03	1.279247E-17	8.073314E-19
4.220000E+03	1.290632E-17	8.142578E-19
4.230000E+03	1.302226E-17	8.213103E-19
4.240000E+03	1.313657E-17	8.282541E-19
4.250000E+03	1.325106E-17	8.352039E-19
4.260000E+03	1.336569E-17	8.421567E-19
4.270000E+03	1.348043E-17	8.491107E-19
4.280000E+03	1.359523E-17	8.560629E-19
4.290000E+03	1.371007E-17	8.630121E-19
4.300000E+03	1.382491E-17	8.699552E-19
4.310000E+03	1.393971E-17	8.768905E-19
4.320000E+03	1.405247E-17	8.836912E-19
4.330000E+03	1.416708E-17	8.906031E-19
4.340000E+03	1.428156E-17	8.975001E-19
4.350000E+03	1.439584E-17	9.043796E-19
4.360000E+03	1.450992E-17	9.112401E-19
4.370000E+03	1.462375E-17	9.180789E-19
4.380000E+03	1.473523E-17	9.247649E-19
4.390000E+03	1.484844E-17	9.315531E-19
4.400000E+03	1.496129E-17	9.383132E-19
4.410000E+03	1.507164E-17	9.449104E-19
4.420000E+03	1.518365E-17	9.516062E-19
4.430000E+03	1.529520E-17	9.582668E-19
4.440000E+03	1.540411E-17	9.647565E-19
4.450000E+03	1.551461E-17	9.713398E-19
4.460000E+03	1.562238E-17	9.777464E-19
4.470000E+03	1.573169E-17	9.842436E-19
4.480000E+03	1.583818E-17	9.905584E-19
4.490000E+03	1.594617E-17	9.969614E-19
4.500000E+03	1.605123E-17	1.003176E-18
4.510000E+03	1.615553E-17	1.009336E-18
4.520000E+03	1.626127E-17	1.015581E-18
4.530000E+03	1.636393E-17	1.021628E-18
4.540000E+03	1.646572E-17	1.027615E-18
4.550000E+03	1.656661E-17	1.033540E-18
4.560000E+03	1.666884E-17	1.039543E-18
4.570000E+03	1.676782E-17	1.045338E-18
4.580000E+03	1.686578E-17	1.051064E-18
4.590000E+03	1.696269E-17	1.056719E-18
4.600000E+03	1.705851E-17	1.062301E-18
4.610000E+03	1.715322E-17	1.067808E-18
4.620000E+03	1.724676E-17	1.073236E-18
4.630000E+03	1.733911E-17	1.078586E-18
4.640000E+03	1.743022E-17	1.083853E-18
4.650000E+03	1.752005E-17	1.089036E-18
4.660000E+03	1.760617E-17	1.093982E-18
4.670000E+03	1.769333E-17	1.098988E-18
4.680000E+03	1.777910E-17	1.103903E-18
4.690000E+03	1.786344E-17	1.108724E-18
4.700000E+03	1.794386E-17	1.113298E-18
4.710000E+03	1.802521E-17	1.117923E-18
4.720000E+03	1.810253E-17	1.122295E-18
4.730000E+03	1.818072E-17	1.126715E-18
4.740000E+03	1.825479E-17	1.130876E-18
4.750000E+03	1.832966E-17	1.135082E-18
4.760000E+03	1.840032E-17	1.139023E-18
4.770000E+03	1.847171E-17	1.143004E-18
4.780000E+03	1.853878E-17	1.146714E-18
4.790000E+03	1.860400E-17	1.150306E-18
4.800000E+03	1.866986E-17	1.153933E-18
4.810000E+03	1.873127E-17	1.157282E-18
4.820000E+03	1.879071E-17	1.160504E-18
4.830000E+03	1.884815E-17	1.163600E-18
4.840000E+03	1.890355E-17	1.166566E-18
4.850000E+03	1.895689E-17	1.169402E-18
4.860000E+03	1.900812E-17	1.172104E-18
4.870000E+03	1.905722E-17	1.174671E-18
4.880000E+03	1.910416E-17	1.177103E-18
4.890000E+03	1.914892E-17	1.179396E-18
4.900000E+03	1.919146E-17	1.181551E-18
4.910000E+03	1.922919E-17	1.183406E-18
4.920000E+03	1.926723E-17	1.185278E-18
4.930000E+03	1.930301E-17	1.187009E-18
4.940000E+03	1.933392E-17	1.188438E-18
4.950000E+03	1.936512E-17	1.189882E-18
4.960000E+03	1.939144E-17	1.191025E-18
4.970000E+03	1.941804E-17	1.192182E-18
4.980000E+03	1.943976E-17	1.193039E-18
4.990000E+03	1.946178E-17	1.193912E-18
5.000000E+03	1.947893E-17	1.194484E-18
5.010000E+03	1.949380E-17	1.194916E-18
5.020000E+03	1.950905E-17	1.195369E-18
5.030000E+03	1.951947E-17	1.195526E-18
5.040000E+03	1.952772E-17	1.195548E-18
5.050000E+03	1.953381E-17	1.195438E-18
5.060000E+03	1.953781E-17	1.195199E-18
5.070000E+03	1.953973E-17	1.194832E-18
5.080000E+03	1.953965E-17	1.194342E-18
5.090000E+03	1.953761E-17	1.193732E-18
5.100000E+03	1.953367E-17	1.193006E-18
5.110000E+03	1.952789E-17	1.192167E-18
5.120000E+03	1.952035E-17	1.191221E-18
5.130000E+03	1.950852E-17	1.190013E-18
5.140000E+03	1.949765E-17	1.188864E-18
5.150000E+03	1.948525E-17	1.187622E-18
5.160000E+03	1.946879E-17	1.186132E-18
5.170000E+03	1.945353E-17	1.184717E-18
5.180000E+03	1.943699E-17	1.183224E-18
5.190000E+03	1.941667E-17	1.181502E-18
5.200000E+03	1.939524E-17	1.179713E-18
5.210000E+03	1.937536E-17	1.178019E-18
5.220000E+03	1.935199E-17	1.176115E-18
5.230000E+03	1.932780E-17	1.174161E-18
5.240000E+03	1.930542E-17	1.172318E-18
5.250000E+03	1.927985E-17	1.170283E-18
5.260000E+03	1.925374E-17	1.168216E-18
5.270000E+03	1.922719E-17	1.166124E-18
5.280000E+03	1.920029E-17	1.164012E-18
5.290000E+03	1.917313E-17	1.161886E-18
5.300000E+03	1.914579E-17	1.159751E-18
5.310000E+03	1.911840E-17	1.157613E-18
5.320000E+03	1.909099E-17	1.155477E-18
5.330000E+03	1.906370E-17	1.153348E-18
5.340000E+03	1.903408E-17	1.151081E-18
5.350000E+03	1.900722E-17	1.148982E-18
5.360000E+03	1.898071E-17	1.146906E-18
5.370000E+03	1.895460E-17	1.144856E-18
5.380000E+03	1.892648E-17	1.142686E-18
5.390000E+03	1.890141E-17	1.140702E-18
5.400000E+03	1.887447E-17	1.138607E-18
5.410000E+03	1.885067E-17	1.136703E-18
5.420000E+03	1.882513E-17	1.134696E-18
5.430000E+03	1.880037E-17	1.132737E-18
5.440000E+03	1.877890E-17	1.130979E-18
5.450000E+03	1.875583E-17	1.129126E-18
5.460000E+03	1.873367E-17	1.127328E-18
5.470000E+03	1.871488E-17	1.125736E-18
5.480000E+03	1.869462E-17	1.124057E-18
5.490000E+03	1.867534E-17	1.122439E-18
5.500000E+03	1.865706E-17	1.120882E-18
5.510000E+03	1.863980E-17	1.119389E-18
5.520000E+03	1.862358E-17	1.117959E-18
5.530000E+03	1.860838E-17	1.116592E-18
5.540000E+03	1.859422E-17	1.115290E-18
5.550000E+03	1.858109E-17	1.114050E-18
5.560000E+03	1.856656E-17	1.112729E-18
5.570000E+03	1.855546E-17	1.111614E-18
5.580000E+03	1.854535E-17	1.110561E-18
5.590000E+03	1.853622E-17	1.109568E-18
5.600000E+03	1.852562E-17	1.108489E-18
5.610000E+03	1.851837E-17	1.107611E-18
5.620000E+03	1.850959E-17	1.106644E-18
5.630000E+03	1.850409E-17	1.105874E-18
5.640000E+03	1.849700E-17	1.105011E-18
5.650000E+03	1.849309E-17	1.104340E-18
5.660000E+03	1.848751E-17	1.103571E-18
5.670000E+03	1.848504E-17	1.102989E-18
5.680000E+03	1.848080E-17	1.102303E-18
5.690000E+03	1.847716E-17	1.101654E-18
5.700000E+03	1.847406E-17	1.101040E-18
5.710000E+03	1.847386E-17	1.100600E-18
5.720000E+03	1.847169E-17	1.100044E-18
5.730000E+03	1.846990E-17	1.099513E-18
5.740000E+03	1.846843E-17	1.099003E-18
5.750000E+03	1.846723E-17	1.098511E-18
5.760000E+03	1.846623E-17	1.098032E-18
5.770000E+03	1.846537E-17	1.097565E-18
5.780000E+03	1.846461E-17	1.097105E-18
5.790000E+03	1.846386E-17	1.096648E-18
5.800000E+03	1.846310E-17	1.096192E-18
5.810000E+03	1.846224E-17	1.095732E-18
5.820000E+03	1.845883E-17	1.095124E-18
5.830000E+03	1.845762E-17	1.094648E-18
5.840000E+03	1.845616E-17	1.094160E-18
5.850000E+03	1.845198E-17	1.093514E-18
5.860000E+03	1.844985E-17	1.092991E-18
5.870000E+03	1.844729E-17	1.092446E-18
5.880000E+03	1.844189E-17	1.091734E-18
5.890000E+03	1.843837E-17	1.091138E-18
5.900000E+03	1.843190E-17	1.090369E-18
5.910000E+03	1.842725E-17	1.089711E-18
5.920000E+03	1.841956E-17	1.088876E-18
5.930000E+03	1.841360E-17	1.088147E-18
5.940000E+03	1.840456E-17	1.087239E-18
5.950000E+03	1.839479E-17	1.086291E-18
5.960000E+03	1.838665E-17	1.085443E-18
5.970000E+03	1.837535E-17	1.084411E-18
5.980000E+03	1.836325E-17	1.083337E-18
5.990000E+03	1.835035E-17	1.082218E-18
6.000000E+03	1.833899E-17	1.081194E-18
6.010000E+03	1.832442E-17	1.079985E-18
6.020000E+03	1.830901E-17	1.078730E-18
6.030000E+03	1.829275E-17	1.077429E-18
6.040000E+03	1.827564E-17	1.076083E-18
6.050000E+03	1.825769E-17	1.074690E-18
6.060000E+03	1.823891E-17	1.073254E-18
6.070000E+03	1.821930E-17	1.071772E-18
6.080000E+03	1.819887E-17	1.070248E-18
6.090000E+03	1.817764E-17	1.068680E-18
6.100000E+03	1.815563E-17	1.067072E-18
6.110000E+03	1.813287E-17	1.065423E-18
6.120000E+03	1.810700E-17	1.063598E-18
6.130000E+03	1.808278E-17	1.061874E-18
6.140000E+03	1.805787E-17	1.060114E-18
6.150000E+03	1.803230E-17	1.058321E-18
6.160000E+03	1.800377E-17	1.056359E-18
6.170000E+03	1.797698E-17	1.054504E-18
6.180000E+03	1.794963E-17	1.052622E-18
6.190000E+03	1.791942E-17	1.050577E-18
6.200000E+03	1.789104E-17	1.048645E-18
6.210000E+03	1.786219E-17	1.046691E-18
6.220000E+03	1.783060E-17	1.044581E-18
6.230000E+03	1.780092E-17	1.042589E-18
6.240000E+03	1.776855E-17	1.040444E-18
6.250000E+03	1.773815E-17	1.038421E-18
6.260000E+03	1.770512E-17	1.036248E-18
6.270000E+03	1.767181E-17	1.034064E-18
6.280000E+03	1.764052E-17	1.032004E-18
6.290000E+03	1.760670E-17	1.029800E-18
6.300000E+03	1.757494E-17	1.027722E-18
6.310000E+03	1.754069E-17	1.025504E-18
6.320000E+03	1.750627E-17	1.023281E-18
6.330000E+03	1.747170E-17	1.021054E-18
6.340000E+03	1.743926E-17	1.018957E-18
6.350000E+03	1.740445E-17	1.016726E-18
6.360000E+03	1.736954E-17	1.014495E-18
6.370000E+03	1.733457E-17	1.012264E-18
6.380000E+03	1.729954E-17	1.010035E-18
6.390000E+03	1.726672E-17	1.007940E-18
6.400000E+03	1.723163E-17	1.005717E-18
6.410000E+03	1.719654E-17	1.003499E-18
6.420000E+03	1.716146E-17	1.001286E-18
6.430000E+03	1.712642E-17	9.990799E-19
6.440000E+03	1.709141E-17	9.968805E-19
6.450000E+03	1.705647E-17	9.946897E-19
6.460000E+03	1.702158E-17	9.925068E-19
6.470000E+03	1.698677E-17	9.903323E-19
6.480000E+03	1.695206E-17	9.881684E-19
6.490000E+03	1.691743E-17	9.860134E-19
6.500000E+03	1.688071E-17	9.837416E-19
6.510000E+03	1.684630E-17	9.816082E-19
6.520000E+03	1.681202E-17	9.794864E-19
6.530000E+03	1.677785E-17	9.773756E-19
6.540000E+03	1.674381E-17	9.752763E-19
6.550000E+03	1.670772E-17	9.730618E-19
6.560000E+03	1.667394E-17	9.709860E-19
6.570000E+03	1.664029E-17	9.689217E-19
6.580000E+03	1.660676E-17	9.668688E-19
6.590000E+03	1.657122E-17	9.647023E-19
6.600000E+03	1.653796E-17	9.626726E-19
6.610000E+03	1.650482E-17	9.606544E-19
6.620000E+03	1.646965E-17	9.585214E-19
6.630000E+03	1.643677E-17	9.565252E-19
6.640000E+03	1.640398E-17	9.545386E-19
6.650000E+03	1.636917E-17	9.524378E-19
6.660000E+03	1.633660E-17	9.504715E-19
6.670000E+03	1.630199E-17	9.483900E-19
6.680000E+03	1.626960E-17	9.464412E-19
6.690000E+03	1.623517E-17	9.443771E-19
6.700000E+03	1.620293E-17	9.424441E-19
6.710000E+03	1.616863E-17	9.403953E-19
6.720000E+03	1.613650E-17	9.384758E-19
6.730000E+03	1.610230E-17	9.364399E-19
6.740000E+03	1.606813E-17	9.344092E-19
6.750000E+03	1.603610E-17	9.325060E-19
6.760000E+03	1.600197E-17	9.304843E-19
6.770000E+03	1.596994E-17	9.285880E-19
6.780000E+03	1.593581E-17	9.265732E-19
6.790000E+03	1.590166E-17	9.245606E-19
6.800000E+03	1.586956E-17	9.226701E-19
6.810000E+03	1.583533E-17	9.206594E-19
6.820000E+03	1.580105E-17	9.186494E-19
6.830000E+03	1.576672E-17	9.166395E-19
6.840000E+03	1.573437E-17	9.147476E-19
6.850000E+03	1.569987E-17	9.127345E-19
6.860000E+03	1.566529E-17	9.107194E-19
6.870000E+03	1.563059E-17	9.087010E-19
6.880000E+03	1.559578E-17	9.066794E-19
6.890000E+03	1.556086E-17	9.046540E-19
6.900000E+03	1.552580E-17	9.026243E-19
6.910000E+03	1.549265E-17	9.007082E-19
6.920000E+03	1.545731E-17	8.986683E-19
6.930000E+03	1.542183E-17	8.966228E-19
6.940000E+03	1.538619E-17	8.945715E-19
6.950000E+03	1.535039E-17	8.925141E-19
6.960000E+03	1.531442E-17	8.904497E-19
6.970000E+03	1.527829E-17	8.883788E-19
6.980000E+03	1.524199E-17	8.863013E-19
6.990000E+03	1.520552E-17	8.842168E-19
7.000000E+03	1.516888E-17	8.821252E-19
7.010000E+03	1.513206E-17	8.800265E-19
7.020000E+03	1.509309E-17	8.778051E-19
7.030000E+03	1.505594E-17	8.756933E-19
7.040000E+03	1.501863E-17	8.735745E-19
7.050000E+03	1.498116E-17	8.714492E-19
7.060000E+03	1.494353E-17	8.693179E-19
7.070000E+03	1.490575E-17	8.671806E-19
7.080000E+03	1.486587E-17	8.649237E-19
7.090000E+03	1.482782E-17	8.627766E-19
7.100000E+03	1.478964E-17	8.606246E-19
7.110000E+03	1.475135E-17	8.584688E-19
7.120000E+03	1.471101E-17	8.561968E-19
7.130000E+03	1.467252E-17	8.540355E-19
7.140000E+03	1.463396E-17	8.518727E-19
7.150000E+03	1.459340E-17	8.495957E-19
7.160000E+03	1.455472E-17	8.474318E-19
7.170000E+03	1.451600E-17	8.452679E-19
7.180000E+03	1.447535E-17	8.429943E-19
7.190000E+03	1.443660E-17	8.408342E-19
7.200000E+03	1.439597E-17	8.385671E-19
7.210000E+03	1.435728E-17	8.364158E-19
7.220000E+03	1.431673E-17	8.341592E-19
7.230000E+03	1.427815E-17	8.320199E-19
7.240000E+03	1.423776E-17	8.297780E-19
7.250000E+03	1.419938E-17	8.276557E-19
7.260000E+03	1.415924E-17	8.254335E-19
7.270000E+03	1.412113E-17	8.233325E-19
7.280000E+03	1.408132E-17	8.211349E-19
7.290000E+03	1.404356E-17	8.190596E-19
7.300000E+03	1.400416E-17	8.168910E-19
7.310000E+03	1.396499E-17	8.147388E-19
7.320000E+03	1.392793E-17	8.127123E-19
7.330000E+03	1.388930E-17	8.105968E-19
7.340000E+03	1.385096E-17	8.085010E-19
7.350000E+03	1.381478E-17	8.065342E-19
7.360000E+03	1.377711E-17	8.044827E-19
7.370000E+03	1.373980E-17	8.024548E-19
7.380000E+03	1.370287E-17	8.004522E-19
7.390000E+03	1.366816E-17	7.985819E-19
7.400000E+03	1.363205E-17	7.966324E-19
7.410000E+03	1.359639E-17	7.947115E-19
7.420000E+03	1.356119E-17	7.928207E-19
7.430000E+03	1.352647E-17	7.909601E-19
7.440000E+03	1.349224E-17	7.891314E-19
7.450000E+03	1.345852E-17	7.873352E-19
7.460000E+03	1.342534E-17	7.855730E-19
7.470000E+03	1.339270E-17	7.838454E-19
7.480000E+03	1.336061E-17	7.821531E-19
7.490000E+03	1.332910E-17	7.804971E-19
7.500000E+03	1.329818E-17	7.788780E-19
7.510000E+03	1.326784E-17	7.772964E-19
7.520000E+03	1.323810E-17	7.757524E-19
7.530000E+03	1.320897E-17	7.742474E-19
7.540000E+03	1.318045E-17	7.727804E-19
7.550000E+03	1.315253E-17	7.713512E-19
7.560000E+03	1.312521E-17	7.699599E-19
7.570000E+03	1.309847E-17	7.686053E-19
7.580000E+03	1.307231E-17	7.672873E-19
7.590000E+03	1.304495E-17	7.659011E-19
7.600000E+03	1.301987E-17	7.646518E-19
7.610000E+03	1.299532E-17	7.634350E-19
7.620000E+03	1.297125E-17	7.622492E-19
7.630000E+03	1.294590E-17	7.609905E-19
7.640000E+03	1.292275E-17	7.598630E-19
7.650000E+03	1.290001E-17	7.587619E-19
7.660000E+03	1.287593E-17	7.575838E-19
7.670000E+03	1.285395E-17	7.565313E-19
7.680000E+03	1.283059E-17	7.553995E-19
7.690000E+03	1.280927E-17	7.543901E-19
7.700000E+03	1.278825E-17	7.534001E-19
7.710000E+03	1.276577E-17	7.523256E-19
7.720000E+03	1.274524E-17	7.513684E-19
7.730000E+03	1.272322E-17	7.503248E-19
7.740000E+03	1.270311E-17	7.493951E-19
7.750000E+03	1.268146E-17	7.483762E-19
7.760000E+03	1.265994E-17	7.473670E-19
