#wls	flux	fluxerr
1.600000E+03	1.858045E-18	5.777457E-20
1.640000E+03	1.889273E-18	5.873957E-20
1.680000E+03	1.921634E-18	5.973942E-20
1.720000E+03	1.955180E-18	6.077570E-20
1.760000E+03	1.990315E-18	6.186098E-20
1.800000E+03	2.026399E-18	6.297529E-20
1.840000E+03	2.064202E-18	6.414254E-20
1.880000E+03	2.103434E-18	6.535372E-20
1.920000E+03	2.144542E-18	6.662266E-20
1.960000E+03	2.186846E-18	6.792818E-20
2.000000E+03	2.231185E-18	6.929633E-20
2.040000E+03	2.277259E-18	7.071775E-20
2.080000E+03	2.325154E-18	7.219504E-20
2.120000E+03	2.375371E-18	7.374374E-20
2.160000E+03	2.427181E-18	7.534117E-20
2.200000E+03	2.481525E-18	7.701646E-20
2.240000E+03	2.538090E-18	7.875985E-20
2.280000E+03	2.597441E-18	8.058880E-20
2.320000E+03	2.658799E-18	8.247907E-20
2.360000E+03	2.723202E-18	8.446281E-20
2.400000E+03	2.790815E-18	8.654507E-20
2.440000E+03	2.860819E-18	8.870033E-20
2.480000E+03	2.934341E-18	9.096351E-20
2.520000E+03	3.011054E-18	9.332432E-20
2.560000E+03	3.091123E-18	9.578779E-20
2.600000E+03	3.174720E-18	9.835916E-20
2.640000E+03	3.262591E-18	1.010614E-19
2.680000E+03	3.354397E-18	1.038840E-19
2.720000E+03	3.450343E-18	1.068330E-19
2.760000E+03	3.550647E-18	1.099151E-19
2.800000E+03	3.656159E-18	1.131565E-19
2.840000E+03	3.766531E-18	1.165462E-19
2.880000E+03	3.882015E-18	1.200919E-19
2.920000E+03	4.003557E-18	1.238227E-19
2.960000E+03	4.130098E-18	1.277055E-19
3.000000E+03	4.263308E-18	1.317919E-19
3.010000E+03	4.297402E-18	1.328375E-19
3.020000E+03	4.332621E-18	1.339177E-19
3.030000E+03	4.367517E-18	1.349877E-19
3.040000E+03	4.402818E-18	1.360701E-19
3.050000E+03	4.439275E-18	1.371880E-19
3.060000E+03	4.475409E-18	1.382958E-19
3.070000E+03	4.511963E-18	1.394163E-19
3.080000E+03	4.549707E-18	1.405734E-19
3.090000E+03	4.587125E-18	1.417202E-19
3.100000E+03	4.624980E-18	1.428803E-19
3.110000E+03	4.664059E-18	1.440780E-19
3.120000E+03	4.702808E-18	1.452654E-19
3.130000E+03	4.742011E-18	1.464665E-19
3.140000E+03	4.782472E-18	1.477062E-19
3.150000E+03	4.822604E-18	1.489356E-19
3.160000E+03	4.864016E-18	1.502043E-19
3.170000E+03	4.905099E-18	1.514626E-19
3.180000E+03	4.947487E-18	1.527609E-19
3.190000E+03	4.989543E-18	1.540488E-19
3.200000E+03	5.032929E-18	1.553775E-19
3.210000E+03	5.075980E-18	1.566956E-19
3.220000E+03	5.120388E-18	1.580553E-19
3.230000E+03	5.164460E-18	1.594044E-19
3.240000E+03	5.209913E-18	1.607959E-19
3.250000E+03	5.255026E-18	1.621766E-19
3.260000E+03	5.301548E-18	1.636006E-19
3.270000E+03	5.347730E-18	1.650138E-19
3.280000E+03	5.395345E-18	1.664709E-19
3.290000E+03	5.443520E-18	1.679450E-19
3.300000E+03	5.491350E-18	1.694082E-19
3.310000E+03	5.540655E-18	1.709166E-19
3.320000E+03	5.589611E-18	1.724140E-19
3.330000E+03	5.640070E-18	1.739574E-19
3.340000E+03	5.691119E-18	1.755188E-19
3.350000E+03	5.741815E-18	1.770689E-19
3.360000E+03	5.794055E-18	1.786663E-19
3.370000E+03	5.846903E-18	1.802822E-19
3.380000E+03	5.899394E-18	1.818868E-19
3.390000E+03	5.953470E-18	1.835399E-19
3.400000E+03	6.008175E-18	1.852120E-19
3.410000E+03	6.063512E-18	1.869033E-19
3.420000E+03	6.118482E-18	1.885829E-19
3.430000E+03	6.175095E-18	1.903129E-19
3.440000E+03	6.232361E-18	1.920626E-19
3.450000E+03	6.289251E-18	1.938004E-19
3.460000E+03	6.347827E-18	1.955898E-19
3.470000E+03	6.407074E-18	1.973994E-19
3.480000E+03	6.466996E-18	1.992295E-19
3.490000E+03	6.526528E-18	2.010472E-19
3.500000E+03	6.587808E-18	2.029184E-19
3.510000E+03	6.649780E-18	2.048105E-19
3.520000E+03	6.712449E-18	2.067236E-19
3.530000E+03	6.775821E-18	2.086580E-19
3.540000E+03	6.838783E-18	2.105794E-19
3.550000E+03	6.903568E-18	2.125565E-19
3.560000E+03	6.969070E-18	2.145553E-19
3.570000E+03	7.035295E-18	2.165759E-19
3.580000E+03	7.102249E-18	2.186184E-19
3.590000E+03	7.168768E-18	2.206472E-19
3.600000E+03	7.237181E-18	2.227338E-19
3.610000E+03	7.306336E-18	2.248428E-19
3.620000E+03	7.376236E-18	2.269743E-19
3.630000E+03	7.446886E-18	2.291283E-19
3.640000E+03	7.518289E-18	2.313051E-19
3.650000E+03	7.589217E-18	2.334668E-19
3.660000E+03	7.662126E-18	2.356889E-19
3.670000E+03	7.735798E-18	2.379341E-19
3.680000E+03	7.810236E-18	2.402022E-19
3.690000E+03	7.885442E-18	2.424935E-19
3.700000E+03	7.961418E-18	2.448080E-19
3.710000E+03	8.038167E-18	2.471457E-19
3.720000E+03	8.114380E-18	2.494664E-19
3.730000E+03	8.192668E-18	2.518503E-19
3.740000E+03	8.271732E-18	2.542576E-19
3.750000E+03	8.351573E-18	2.566882E-19
3.760000E+03	8.432192E-18	2.591422E-19
3.770000E+03	8.513589E-18	2.616195E-19
3.780000E+03	8.595763E-18	2.641201E-19
3.790000E+03	8.678715E-18	2.666440E-19
3.800000E+03	8.761033E-18	2.691479E-19
3.810000E+03	8.845520E-18	2.717178E-19
3.820000E+03	8.930780E-18	2.743108E-19
3.830000E+03	9.016808E-18	2.769269E-19
3.840000E+03	9.103603E-18	2.795658E-19
3.850000E+03	9.191161E-18	2.822276E-19
3.860000E+03	9.279478E-18	2.849120E-19
3.870000E+03	9.368549E-18	2.876190E-19
3.880000E+03	9.456858E-18	2.903019E-19
3.890000E+03	9.547409E-18	2.930530E-19
3.900000E+03	9.638699E-18	2.958261E-19
3.910000E+03	9.730720E-18	2.986210E-19
3.920000E+03	9.823466E-18	3.014375E-19
3.930000E+03	9.916929E-18	3.042752E-19
3.940000E+03	1.001110E-17	3.071340E-19
3.950000E+03	1.010436E-17	3.099642E-19
3.960000E+03	1.019990E-17	3.128637E-19
3.970000E+03	1.029613E-17	3.157834E-19
3.980000E+03	1.039303E-17	3.187231E-19
3.990000E+03	1.049058E-17	3.216820E-19
4.000000E+03	1.058878E-17	3.246599E-19
4.010000E+03	1.068591E-17	3.276046E-19
4.020000E+03	1.078535E-17	3.306191E-19
4.030000E+03	1.088539E-17	3.336514E-19
4.040000E+03	1.098602E-17	3.367008E-19
4.050000E+03	1.108723E-17	3.397674E-19
4.060000E+03	1.118722E-17	3.427959E-19
4.070000E+03	1.128951E-17	3.458940E-19
4.080000E+03	1.139233E-17	3.490074E-19
4.090000E+03	1.149566E-17	3.521357E-19
4.100000E+03	1.159764E-17	3.552218E-19
4.110000E+03	1.170189E-17	3.583769E-19
4.120000E+03	1.180660E-17	3.615451E-19
4.130000E+03	1.191175E-17	3.647257E-19
4.140000E+03	1.201540E-17	3.678597E-19
4.150000E+03	1.212130E-17	3.710621E-19
4.160000E+03	1.222756E-17	3.742743E-19
4.170000E+03	1.233416E-17	3.774962E-19
4.180000E+03	1.243912E-17	3.806669E-19
4.190000E+03	1.254630E-17	3.839049E-19
4.200000E+03	1.265374E-17	3.871500E-19
4.210000E+03	1.275941E-17	3.903399E-19
4.220000E+03	1.286727E-17	3.935961E-19
4.230000E+03	1.297531E-17	3.968569E-19
4.240000E+03	1.308146E-17	4.000588E-19
4.250000E+03	1.318975E-17	4.033255E-19
4.260000E+03	1.329606E-17	4.065307E-19
4.270000E+03	1.340448E-17	4.097998E-19
4.280000E+03	1.351294E-17	4.130688E-19
4.290000E+03	1.361927E-17	4.162720E-19
4.300000E+03	1.372767E-17	4.195375E-19
4.310000E+03	1.383385E-17	4.227345E-19
4.320000E+03	1.394207E-17	4.259928E-19
4.330000E+03	1.404797E-17	4.291791E-19
4.340000E+03	1.415586E-17	4.324258E-19
4.350000E+03	1.426134E-17	4.355975E-19
4.360000E+03	1.436879E-17	4.388287E-19
4.370000E+03	1.447371E-17	4.419817E-19
4.380000E+03	1.458055E-17	4.451926E-19
4.390000E+03	1.468477E-17	4.483223E-19
4.400000E+03	1.479086E-17	4.515084E-19
4.410000E+03	1.489423E-17	4.546105E-19
4.420000E+03	1.499943E-17	4.577677E-19
4.430000E+03	1.510179E-17	4.608373E-19
4.440000E+03	1.520359E-17	4.638889E-19
4.450000E+03	1.530716E-17	4.669934E-19
4.460000E+03	1.540772E-17	4.700054E-19
4.470000E+03	1.550761E-17	4.729961E-19
4.480000E+03	1.560918E-17	4.760371E-19
4.490000E+03	1.570760E-17	4.789814E-19
4.500000E+03	1.580522E-17	4.819001E-19
4.510000E+03	1.590445E-17	4.848673E-19
4.520000E+03	1.600037E-17	4.877325E-19
4.530000E+03	1.609536E-17	4.905687E-19
4.540000E+03	1.618939E-17	4.933747E-19
4.550000E+03	1.628243E-17	4.961499E-19
4.560000E+03	1.637694E-17	4.989690E-19
4.570000E+03	1.646787E-17	5.016782E-19
4.580000E+03	1.655768E-17	5.043522E-19
4.590000E+03	1.664633E-17	5.069903E-19
4.600000E+03	1.673378E-17	5.095911E-19
4.610000E+03	1.681999E-17	5.121534E-19
4.620000E+03	1.690492E-17	5.146758E-19
4.630000E+03	1.698854E-17	5.171579E-19
4.640000E+03	1.707080E-17	5.195975E-19
4.650000E+03	1.715168E-17	5.219945E-19
4.660000E+03	1.723112E-17	5.243469E-19
4.670000E+03	1.730910E-17	5.266541E-19
4.680000E+03	1.738558E-17	5.289151E-19
4.690000E+03	1.746051E-17	5.311284E-19
4.700000E+03	1.753388E-17	5.332933E-19
4.710000E+03	1.760565E-17	5.354088E-19
4.720000E+03	1.767576E-17	5.374735E-19
4.730000E+03	1.774421E-17	5.394869E-19
4.740000E+03	1.781096E-17	5.414480E-19
4.750000E+03	1.787597E-17	5.433558E-19
4.760000E+03	1.793650E-17	5.451267E-19
4.770000E+03	1.799796E-17	5.469253E-19
4.780000E+03	1.805761E-17	5.486685E-19
4.790000E+03	1.811542E-17	5.503552E-19
4.800000E+03	1.816862E-17	5.519010E-19
4.810000E+03	1.822269E-17	5.534731E-19
4.820000E+03	1.827486E-17	5.549869E-19
4.830000E+03	1.832234E-17	5.563579E-19
4.840000E+03	1.837066E-17	5.577539E-19
4.850000E+03	1.841703E-17	5.590904E-19
4.860000E+03	1.845866E-17	5.602824E-19
4.870000E+03	1.850113E-17	5.614995E-19
4.880000E+03	1.853880E-17	5.625708E-19
4.890000E+03	1.857731E-17	5.636671E-19
4.900000E+03	1.861385E-17	5.647034E-19
4.910000E+03	1.864559E-17	5.655934E-19
4.920000E+03	1.867534E-17	5.664230E-19
4.930000E+03	1.870594E-17	5.672782E-19
4.940000E+03	1.873175E-17	5.679879E-19
4.950000E+03	1.875843E-17	5.687238E-19
4.960000E+03	1.878032E-17	5.693142E-19
4.970000E+03	1.880312E-17	5.699318E-19
4.980000E+03	1.882116E-17	5.704050E-19
4.990000E+03	1.883730E-17	5.708207E-19
5.000000E+03	1.885156E-17	5.711790E-19
5.010000E+03	1.886679E-17	5.715669E-19
5.020000E+03	1.887735E-17	5.718130E-19
5.030000E+03	1.888610E-17	5.720041E-19
5.040000E+03	1.889307E-17	5.721413E-19
5.050000E+03	1.890114E-17	5.723119E-19
5.060000E+03	1.890464E-17	5.723439E-19
5.070000E+03	1.890645E-17	5.723248E-19
5.080000E+03	1.890661E-17	5.722557E-19
5.090000E+03	1.890516E-17	5.721380E-19
5.100000E+03	1.890213E-17	5.719723E-19
5.110000E+03	1.889757E-17	5.717604E-19
5.120000E+03	1.889150E-17	5.715030E-19
5.130000E+03	1.888398E-17	5.712020E-19
5.140000E+03	1.887505E-17	5.708582E-19
5.150000E+03	1.886475E-17	5.704730E-19
5.160000E+03	1.885313E-17	5.700482E-19
5.170000E+03	1.884023E-17	5.695846E-19
5.180000E+03	1.882610E-17	5.690840E-19
5.190000E+03	1.881077E-17	5.685475E-19
5.200000E+03	1.879431E-17	5.679770E-19
5.210000E+03	1.877676E-17	5.673734E-19
5.220000E+03	1.875534E-17	5.666535E-19
5.230000E+03	1.873574E-17	5.659887E-19
5.240000E+03	1.871521E-17	5.652957E-19
5.250000E+03	1.869375E-17	5.645753E-19
5.260000E+03	1.866866E-17	5.637451E-19
5.270000E+03	1.864555E-17	5.629752E-19
5.280000E+03	1.862168E-17	5.621827E-19
5.290000E+03	1.859431E-17	5.612848E-19
5.300000E+03	1.856907E-17	5.604512E-19
5.310000E+03	1.854318E-17	5.595988E-19
5.320000E+03	1.851396E-17	5.586459E-19
5.330000E+03	1.848698E-17	5.577606E-19
5.340000E+03	1.845674E-17	5.567778E-19
5.350000E+03	1.842882E-17	5.558650E-19
5.360000E+03	1.839773E-17	5.548570E-19
5.370000E+03	1.836902E-17	5.539213E-19
5.380000E+03	1.833724E-17	5.528932E-19
5.390000E+03	1.830791E-17	5.519395E-19
5.400000E+03	1.827560E-17	5.508962E-19
5.410000E+03	1.824306E-17	5.498464E-19
5.420000E+03	1.821307E-17	5.488739E-19
5.430000E+03	1.818020E-17	5.478150E-19
5.440000E+03	1.814722E-17	5.467530E-19
5.450000E+03	1.811685E-17	5.457701E-19
5.460000E+03	1.808371E-17	5.447045E-19
5.470000E+03	1.805055E-17	5.436383E-19
5.480000E+03	1.801736E-17	5.425719E-19
5.490000E+03	1.798688E-17	5.415875E-19
5.500000E+03	1.795375E-17	5.405235E-19
5.510000E+03	1.792067E-17	5.394618E-19
5.520000E+03	1.788769E-17	5.384031E-19
5.530000E+03	1.785478E-17	5.373475E-19
5.540000E+03	1.782199E-17	5.362957E-19
5.550000E+03	1.778933E-17	5.352482E-19
5.560000E+03	1.775681E-17	5.342055E-19
5.570000E+03	1.772708E-17	5.332472E-19
5.580000E+03	1.769488E-17	5.322148E-19
5.590000E+03	1.766285E-17	5.311882E-19
5.600000E+03	1.762837E-17	5.300885E-19
5.610000E+03	1.759671E-17	5.290740E-19
5.620000E+03	1.756525E-17	5.280660E-19
5.630000E+03	1.753398E-17	5.270643E-19
5.640000E+03	1.750293E-17	5.260696E-19
5.650000E+03	1.747209E-17	5.250817E-19
5.660000E+03	1.744145E-17	5.241004E-19
5.670000E+03	1.741102E-17	5.231259E-19
5.680000E+03	1.738082E-17	5.221587E-19
5.690000E+03	1.734824E-17	5.211206E-19
5.700000E+03	1.731846E-17	5.201672E-19
5.710000E+03	1.728888E-17	5.192204E-19
5.720000E+03	1.725952E-17	5.182804E-19
5.730000E+03	1.722780E-17	5.172706E-19
5.740000E+03	1.719885E-17	5.163440E-19
5.750000E+03	1.717010E-17	5.154243E-19
5.760000E+03	1.713900E-17	5.144344E-19
5.770000E+03	1.711064E-17	5.135275E-19
5.780000E+03	1.708246E-17	5.126265E-19
5.790000E+03	1.705195E-17	5.116560E-19
5.800000E+03	1.702414E-17	5.107673E-19
5.810000E+03	1.699399E-17	5.098089E-19
5.820000E+03	1.696654E-17	5.089319E-19
5.830000E+03	1.693674E-17	5.079852E-19
5.840000E+03	1.690962E-17	5.071194E-19
5.850000E+03	1.688016E-17	5.061839E-19
5.860000E+03	1.685336E-17	5.053290E-19
5.870000E+03	1.682422E-17	5.044044E-19
5.880000E+03	1.679772E-17	5.035597E-19
5.890000E+03	1.676889E-17	5.026457E-19
5.900000E+03	1.674021E-17	5.017367E-19
5.910000E+03	1.671416E-17	5.009074E-19
5.920000E+03	1.668578E-17	5.000088E-19
5.930000E+03	1.665756E-17	4.991155E-19
5.940000E+03	1.663195E-17	4.983012E-19
5.950000E+03	1.660402E-17	4.974180E-19
5.960000E+03	1.657623E-17	4.965398E-19
5.970000E+03	1.655107E-17	4.957407E-19
5.980000E+03	1.652359E-17	4.948732E-19
5.990000E+03	1.649628E-17	4.940111E-19
6.000000E+03	1.646912E-17	4.931544E-19
6.010000E+03	1.644214E-17	4.923037E-19
6.020000E+03	1.641775E-17	4.915314E-19
6.030000E+03	1.639111E-17	4.906921E-19
6.040000E+03	1.636465E-17	4.898590E-19
6.050000E+03	1.633836E-17	4.890320E-19
6.060000E+03	1.631229E-17	4.882119E-19
6.070000E+03	1.628640E-17	4.873981E-19
6.080000E+03	1.626073E-17	4.865916E-19
6.090000E+03	1.623526E-17	4.857920E-19
6.100000E+03	1.621003E-17	4.850000E-19
6.110000E+03	1.618503E-17	4.842159E-19
6.120000E+03	1.616027E-17	4.834396E-19
6.130000E+03	1.613576E-17	4.826715E-19
6.140000E+03	1.611151E-17	4.819121E-19
6.150000E+03	1.608754E-17	4.811616E-19
6.160000E+03	1.606383E-17	4.804199E-19
6.170000E+03	1.604042E-17	4.796879E-19
6.180000E+03	1.601731E-17	4.789653E-19
6.190000E+03	1.599450E-17	4.782528E-19
6.200000E+03	1.597199E-17	4.775500E-19
6.210000E+03	1.594981E-17	4.768578E-19
6.220000E+03	1.592795E-17	4.761759E-19
6.230000E+03	1.590640E-17	4.755044E-19
6.240000E+03	1.588283E-17	4.747729E-19
6.250000E+03	1.586194E-17	4.741223E-19
6.260000E+03	1.584137E-17	4.734822E-19
6.270000E+03	1.582112E-17	4.728522E-19
6.280000E+03	1.580117E-17	4.722320E-19
6.290000E+03	1.577919E-17	4.715519E-19
6.300000E+03	1.575985E-17	4.709514E-19
6.310000E+03	1.574081E-17	4.703607E-19
6.320000E+03	1.572206E-17	4.697791E-19
6.330000E+03	1.570126E-17	4.691372E-19
6.340000E+03	1.568307E-17	4.685739E-19
6.350000E+03	1.566515E-17	4.680192E-19
6.360000E+03	1.564516E-17	4.674037E-19
6.370000E+03	1.562778E-17	4.668664E-19
6.380000E+03	1.560832E-17	4.662678E-19
6.390000E+03	1.559141E-17	4.657463E-19
6.400000E+03	1.557475E-17	4.652328E-19
6.410000E+03	1.555601E-17	4.646578E-19
6.420000E+03	1.553982E-17	4.641594E-19
6.430000E+03	1.552153E-17	4.635992E-19
6.440000E+03	1.550577E-17	4.631151E-19
6.450000E+03	1.549021E-17	4.626377E-19
6.460000E+03	1.547256E-17	4.620984E-19
6.470000E+03	1.545741E-17	4.616343E-19
6.480000E+03	1.544016E-17	4.611082E-19
6.490000E+03	1.542539E-17	4.606570E-19
6.500000E+03	1.540853E-17	4.601435E-19
6.510000E+03	1.539183E-17	4.596358E-19
6.520000E+03	1.537761E-17	4.592026E-19
6.530000E+03	1.536128E-17	4.587069E-19
6.540000E+03	1.534741E-17	4.582853E-19
6.550000E+03	1.533142E-17	4.578008E-19
6.560000E+03	1.531786E-17	4.573896E-19
6.570000E+03	1.530219E-17	4.569161E-19
6.580000E+03	1.528667E-17	4.564475E-19
6.590000E+03	1.527356E-17	4.560514E-19
6.600000E+03	1.525834E-17	4.555928E-19
6.610000E+03	1.524325E-17	4.551386E-19
6.620000E+03	1.523056E-17	4.547565E-19
6.630000E+03	1.521572E-17	4.543111E-19
6.640000E+03	1.520102E-17	4.538700E-19
6.650000E+03	1.518869E-17	4.535005E-19
6.660000E+03	1.517421E-17	4.530671E-19
6.670000E+03	1.515984E-17	4.526376E-19
6.680000E+03	1.514556E-17	4.522114E-19
6.690000E+03	1.513364E-17	4.518559E-19
6.700000E+03	1.511955E-17	4.514363E-19
6.710000E+03	1.510554E-17	4.510196E-19
6.720000E+03	1.509161E-17	4.506055E-19
6.730000E+03	1.507775E-17	4.501941E-19
6.740000E+03	1.506620E-17	4.498522E-19
6.750000E+03	1.505246E-17	4.494454E-19
6.760000E+03	1.503876E-17	4.490403E-19
6.770000E+03	1.502511E-17	4.486373E-19
6.780000E+03	1.501151E-17	4.482360E-19
6.790000E+03	1.499793E-17	4.478361E-19
6.800000E+03	1.498438E-17	4.474372E-19
6.810000E+03	1.497085E-17	4.470395E-19
6.820000E+03	1.495956E-17	4.467091E-19
6.830000E+03	1.494605E-17	4.463129E-19
6.840000E+03	1.493253E-17	4.459169E-19
6.850000E+03	1.491902E-17	4.455213E-19
6.860000E+03	1.490549E-17	4.451259E-19
6.870000E+03	1.489194E-17	4.447303E-19
6.880000E+03	1.487837E-17	4.443346E-19
6.890000E+03	1.486477E-17	4.439384E-19
6.900000E+03	1.485113E-17	4.435414E-19
6.910000E+03	1.483747E-17	4.431440E-19
6.920000E+03	1.482374E-17	4.427451E-19
6.930000E+03	1.480997E-17	4.423455E-19
6.940000E+03	1.479614E-17	4.419448E-19
6.950000E+03	1.478225E-17	4.415424E-19
6.960000E+03	1.476830E-17	4.411386E-19
6.970000E+03	1.475206E-17	4.406670E-19
6.980000E+03	1.473797E-17	4.402597E-19
6.990000E+03	1.472379E-17	4.398504E-19
7.000000E+03	1.470952E-17	4.394388E-19
7.010000E+03	1.469518E-17	4.390255E-19
7.020000E+03	1.468073E-17	4.386095E-19
7.030000E+03	1.466620E-17	4.381912E-19
7.040000E+03	1.465156E-17	4.377703E-19
7.050000E+03	1.463464E-17	4.372815E-19
7.060000E+03	1.461980E-17	4.368552E-19
7.070000E+03	1.460485E-17	4.364263E-19
7.080000E+03	1.458980E-17	4.359944E-19
7.090000E+03	1.457464E-17	4.355599E-19
7.100000E+03	1.455717E-17	4.350568E-19
7.110000E+03	1.454177E-17	4.346157E-19
7.120000E+03	1.452625E-17	4.341716E-19
7.130000E+03	1.451061E-17	4.337243E-19
7.140000E+03	1.449267E-17	4.332087E-19
7.150000E+03	1.447677E-17	4.327544E-19
7.160000E+03	1.446076E-17	4.322972E-19
7.170000E+03	1.444461E-17	4.318360E-19
7.180000E+03	1.442616E-17	4.313066E-19
7.190000E+03	1.440975E-17	4.308386E-19
7.200000E+03	1.439320E-17	4.303669E-19
7.210000E+03	1.437435E-17	4.298267E-19
7.220000E+03	1.435753E-17	4.293475E-19
7.230000E+03	1.434056E-17	4.288644E-19
7.240000E+03	1.432129E-17	4.283129E-19
7.250000E+03	1.430404E-17	4.278219E-19
7.260000E+03	1.428449E-17	4.272627E-19
7.270000E+03	1.426693E-17	4.267635E-19
7.280000E+03	1.424922E-17	4.262601E-19
7.290000E+03	1.422922E-17	4.256884E-19
7.300000E+03	1.421120E-17	4.251765E-19
7.310000E+03	1.419088E-17	4.245963E-19
7.320000E+03	1.417253E-17	4.240753E-19
7.330000E+03	1.415189E-17	4.234859E-19
7.340000E+03	1.413320E-17	4.229555E-19
7.350000E+03	1.411221E-17	4.223567E-19
7.360000E+03	1.409316E-17	4.218162E-19
7.370000E+03	1.407182E-17	4.212074E-19
7.380000E+03	1.405241E-17	4.206569E-19
7.390000E+03	1.403068E-17	4.200373E-19
7.400000E+03	1.401085E-17	4.194752E-19
7.410000E+03	1.398873E-17	4.188447E-19
7.420000E+03	1.396639E-17	4.182080E-19
7.430000E+03	1.394594E-17	4.176282E-19
7.440000E+03	1.392316E-17	4.169790E-19
7.450000E+03	1.390226E-17	4.163863E-19
7.460000E+03	1.387902E-17	4.157243E-19
7.470000E+03	1.385554E-17	4.150552E-19
7.480000E+03	1.383389E-17	4.144415E-19
7.490000E+03	1.380991E-17	4.137580E-19
7.500000E+03	1.378566E-17	4.130671E-19
7.510000E+03	1.376323E-17	4.124310E-19
7.520000E+03	1.373844E-17	4.117245E-19
7.530000E+03	1.371337E-17	4.110101E-19
7.540000E+03	1.369010E-17	4.103498E-19
7.550000E+03	1.366447E-17	4.096190E-19
7.560000E+03	1.363855E-17	4.088802E-19
7.570000E+03	1.361235E-17	4.081331E-19
7.580000E+03	1.358794E-17	4.074398E-19
7.590000E+03	1.356117E-17	4.066763E-19
7.600000E+03	1.353413E-17	4.059050E-19
7.610000E+03	1.350683E-17	4.051260E-19
7.620000E+03	1.348129E-17	4.044001E-19
7.630000E+03	1.345345E-17	4.036055E-19
7.640000E+03	1.342536E-17	4.028034E-19
7.650000E+03	1.339700E-17	4.019937E-19
7.660000E+03	1.336840E-17	4.011768E-19
7.670000E+03	1.333955E-17	4.003527E-19
7.680000E+03	1.331047E-17	3.995217E-19
7.690000E+03	1.328315E-17	3.987441E-19
7.700000E+03	1.325358E-17	3.978989E-19
7.710000E+03	1.322378E-17	3.970469E-19
7.720000E+03	1.319375E-17	3.961880E-19
7.730000E+03	1.316349E-17	3.953227E-19
7.740000E+03	1.313300E-17	3.944504E-19
7.750000E+03	1.310230E-17	3.935717E-19
7.760000E+03	1.307136E-17	3.926863E-19
