#wls	flux	fluxerr
1.600000E+03	1.821915E-18	1.024273E-19
1.640000E+03	1.854128E-18	1.041940E-19
1.680000E+03	1.887203E-18	1.060063E-19
1.720000E+03	1.921862E-18	1.079047E-19
1.760000E+03	1.957478E-18	1.098536E-19
1.800000E+03	1.994805E-18	1.118952E-19
1.840000E+03	2.033192E-18	1.139927E-19
1.880000E+03	2.073425E-18	1.161900E-19
1.920000E+03	2.115214E-18	1.184706E-19
1.960000E+03	2.158238E-18	1.208162E-19
2.000000E+03	2.203339E-18	1.232737E-19
2.040000E+03	2.250212E-18	1.258257E-19
2.080000E+03	2.298937E-18	1.284764E-19
2.120000E+03	2.349598E-18	1.312300E-19
2.160000E+03	2.402281E-18	1.340911E-19
2.200000E+03	2.457078E-18	1.370644E-19
2.240000E+03	2.514083E-18	1.401546E-19
2.280000E+03	2.573397E-18	1.433671E-19
2.320000E+03	2.635122E-18	1.467071E-19
2.360000E+03	2.699367E-18	1.501800E-19
2.400000E+03	2.766245E-18	1.537918E-19
2.440000E+03	2.836380E-18	1.575764E-19
2.480000E+03	2.908894E-18	1.614844E-19
2.520000E+03	2.984406E-18	1.655498E-19
2.560000E+03	3.063597E-18	1.698095E-19
2.600000E+03	3.145522E-18	1.742104E-19
2.640000E+03	3.231434E-18	1.788213E-19
2.680000E+03	3.320340E-18	1.835862E-19
2.720000E+03	3.413560E-18	1.885775E-19
2.760000E+03	3.510052E-18	1.937365E-19
2.800000E+03	3.611206E-18	1.991391E-19
2.840000E+03	3.716581E-18	2.047599E-19
2.880000E+03	3.825666E-18	2.105697E-19
2.920000E+03	3.939971E-18	2.166506E-19
2.960000E+03	4.059012E-18	2.229746E-19
3.000000E+03	4.182962E-18	2.295499E-19
3.010000E+03	4.214176E-18	2.312033E-19
3.020000E+03	4.246458E-18	2.329139E-19
3.030000E+03	4.279065E-18	2.346412E-19
3.040000E+03	4.311235E-18	2.363433E-19
3.050000E+03	4.344497E-18	2.381039E-19
3.060000E+03	4.378094E-18	2.398816E-19
3.070000E+03	4.412029E-18	2.416765E-19
3.080000E+03	4.445515E-18	2.434455E-19
3.090000E+03	4.480126E-18	2.452747E-19
3.100000E+03	4.515083E-18	2.471216E-19
3.110000E+03	4.549583E-18	2.489420E-19
3.120000E+03	4.585234E-18	2.508240E-19
3.130000E+03	4.621239E-18	2.527239E-19
3.140000E+03	4.657601E-18	2.546419E-19
3.150000E+03	4.693490E-18	2.565326E-19
3.160000E+03	4.730567E-18	2.584867E-19
3.170000E+03	4.768008E-18	2.604592E-19
3.180000E+03	4.805817E-18	2.624503E-19
3.190000E+03	4.843138E-18	2.644132E-19
3.200000E+03	4.881684E-18	2.664414E-19
3.210000E+03	4.920603E-18	2.684884E-19
3.220000E+03	4.959901E-18	2.705545E-19
3.230000E+03	4.998693E-18	2.725913E-19
3.240000E+03	5.038747E-18	2.746953E-19
3.250000E+03	5.079187E-18	2.768186E-19
3.260000E+03	5.120013E-18	2.789613E-19
3.270000E+03	5.160316E-18	2.810738E-19
3.280000E+03	5.201918E-18	2.832553E-19
3.290000E+03	5.243914E-18	2.854564E-19
3.300000E+03	5.286307E-18	2.876774E-19
3.310000E+03	5.328156E-18	2.898670E-19
3.320000E+03	5.371342E-18	2.921275E-19
3.330000E+03	5.414931E-18	2.944080E-19
3.340000E+03	5.458926E-18	2.967088E-19
3.350000E+03	5.502354E-18	2.989768E-19
3.360000E+03	5.547157E-18	3.013176E-19
3.370000E+03	5.592371E-18	3.036787E-19
3.380000E+03	5.637999E-18	3.060604E-19
3.390000E+03	5.683035E-18	3.084079E-19
3.400000E+03	5.729485E-18	3.108301E-19
3.410000E+03	5.776354E-18	3.132730E-19
3.420000E+03	5.823641E-18	3.157365E-19
3.430000E+03	5.870312E-18	3.181644E-19
3.440000E+03	5.918433E-18	3.206689E-19
3.450000E+03	5.966979E-18	3.231942E-19
3.460000E+03	6.015948E-18	3.257402E-19
3.470000E+03	6.065343E-18	3.283071E-19
3.480000E+03	6.114086E-18	3.308364E-19
3.490000E+03	6.164328E-18	3.334446E-19
3.500000E+03	6.214998E-18	3.360736E-19
3.510000E+03	6.266095E-18	3.387234E-19
3.520000E+03	6.316509E-18	3.413339E-19
3.530000E+03	6.368458E-18	3.440251E-19
3.540000E+03	6.420837E-18	3.467370E-19
3.550000E+03	6.473647E-18	3.494698E-19
3.560000E+03	6.525737E-18	3.521612E-19
3.570000E+03	6.579398E-18	3.549350E-19
3.580000E+03	6.633490E-18	3.577295E-19
3.590000E+03	6.688012E-18	3.605446E-19
3.600000E+03	6.742964E-18	3.633804E-19
3.610000E+03	6.797148E-18	3.661721E-19
3.620000E+03	6.852947E-18	3.690482E-19
3.630000E+03	6.909174E-18	3.719448E-19
3.640000E+03	6.965827E-18	3.748615E-19
3.650000E+03	7.021668E-18	3.777319E-19
3.660000E+03	7.079161E-18	3.806884E-19
3.670000E+03	7.137075E-18	3.836648E-19
3.680000E+03	7.195409E-18	3.866609E-19
3.690000E+03	7.254162E-18	3.896767E-19
3.700000E+03	7.312045E-18	3.926430E-19
3.710000E+03	7.371619E-18	3.956972E-19
3.720000E+03	7.431604E-18	3.987705E-19
3.730000E+03	7.491998E-18	4.018628E-19
3.740000E+03	7.551470E-18	4.049027E-19
3.750000E+03	7.612663E-18	4.080319E-19
3.760000E+03	7.674256E-18	4.111795E-19
3.770000E+03	7.736244E-18	4.143453E-19
3.780000E+03	7.797255E-18	4.174556E-19
3.790000E+03	7.860014E-18	4.206564E-19
3.800000E+03	7.923157E-18	4.238746E-19
3.810000E+03	7.986681E-18	4.271101E-19
3.820000E+03	8.050580E-18	4.303624E-19
3.830000E+03	8.113425E-18	4.335551E-19
3.840000E+03	8.178049E-18	4.368397E-19
3.850000E+03	8.243033E-18	4.401402E-19
3.860000E+03	8.308371E-18	4.434564E-19
3.870000E+03	8.372588E-18	4.467094E-19
3.880000E+03	8.438607E-18	4.500552E-19
3.890000E+03	8.504961E-18	4.534155E-19
3.900000E+03	8.571645E-18	4.567900E-19
3.910000E+03	8.637136E-18	4.600974E-19
3.920000E+03	8.704445E-18	4.634984E-19
3.930000E+03	8.772063E-18	4.669123E-19
3.940000E+03	8.839980E-18	4.703386E-19
3.950000E+03	8.908190E-18	4.737769E-19
3.960000E+03	8.975109E-18	4.771431E-19
3.970000E+03	9.043866E-18	4.806035E-19
3.980000E+03	9.112888E-18	4.840743E-19
3.990000E+03	9.182167E-18	4.875552E-19
4.000000E+03	9.250072E-18	4.909595E-19
4.010000E+03	9.319823E-18	4.944582E-19
4.020000E+03	9.389801E-18	4.979653E-19
4.030000E+03	9.459997E-18	5.014803E-19
4.040000E+03	9.528728E-18	5.049139E-19
4.050000E+03	9.599312E-18	5.084420E-19
4.060000E+03	9.670079E-18	5.119760E-19
4.070000E+03	9.741018E-18	5.155154E-19
4.080000E+03	9.810399E-18	5.189686E-19
4.090000E+03	9.881632E-18	5.225160E-19
4.100000E+03	9.953000E-18	5.260668E-19
4.110000E+03	1.002273E-17	5.295275E-19
4.120000E+03	1.009432E-17	5.330821E-19
4.130000E+03	1.016600E-17	5.366379E-19
4.140000E+03	1.023776E-17	5.401941E-19
4.150000E+03	1.030778E-17	5.436548E-19
4.160000E+03	1.037965E-17	5.472088E-19
4.170000E+03	1.045155E-17	5.507609E-19
4.180000E+03	1.052347E-17	5.543104E-19
4.190000E+03	1.059355E-17	5.577586E-19
4.200000E+03	1.066545E-17	5.612991E-19
4.210000E+03	1.073733E-17	5.648347E-19
4.220000E+03	1.080727E-17	5.682646E-19
4.230000E+03	1.087903E-17	5.717859E-19
4.240000E+03	1.095072E-17	5.752996E-19
4.250000E+03	1.102231E-17	5.788045E-19
4.260000E+03	1.109184E-17	5.821974E-19
4.270000E+03	1.116317E-17	5.856810E-19
4.280000E+03	1.123435E-17	5.891525E-19
4.290000E+03	1.130339E-17	5.925083E-19
4.300000E+03	1.137420E-17	5.959531E-19
4.310000E+03	1.144481E-17	5.993831E-19
4.320000E+03	1.151519E-17	6.027978E-19
4.330000E+03	1.158330E-17	6.060895E-19
4.340000E+03	1.165315E-17	6.094689E-19
4.350000E+03	1.172273E-17	6.128298E-19
4.360000E+03	1.178993E-17	6.160630E-19
4.370000E+03	1.185884E-17	6.193821E-19
4.380000E+03	1.192742E-17	6.226795E-19
4.390000E+03	1.199351E-17	6.258441E-19
4.400000E+03	1.206131E-17	6.290935E-19
4.410000E+03	1.212869E-17	6.323180E-19
4.420000E+03	1.219350E-17	6.354046E-19
4.430000E+03	1.225997E-17	6.385742E-19
4.440000E+03	1.232596E-17	6.417154E-19
4.450000E+03	1.238928E-17	6.447141E-19
4.460000E+03	1.245422E-17	6.477936E-19
4.470000E+03	1.251862E-17	6.508415E-19
4.480000E+03	1.258025E-17	6.537420E-19
4.490000E+03	1.264347E-17	6.567216E-19
4.500000E+03	1.270607E-17	6.596660E-19
4.510000E+03	1.276580E-17	6.624581E-19
4.520000E+03	1.282707E-17	6.653271E-19
4.530000E+03	1.288766E-17	6.681573E-19
4.540000E+03	1.294529E-17	6.708308E-19
4.550000E+03	1.300442E-17	6.735791E-19
4.560000E+03	1.306051E-17	6.761671E-19
4.570000E+03	1.311809E-17	6.788295E-19
4.580000E+03	1.317486E-17	6.814465E-19
4.590000E+03	1.322849E-17	6.838990E-19
4.600000E+03	1.328358E-17	6.864237E-19
4.610000E+03	1.333778E-17	6.888996E-19
4.620000E+03	1.338876E-17	6.912067E-19
4.630000E+03	1.344113E-17	6.935829E-19
4.640000E+03	1.349022E-17	6.957873E-19
4.650000E+03	1.354068E-17	6.980599E-19
4.660000E+03	1.359015E-17	7.002789E-19
4.670000E+03	1.363623E-17	7.023215E-19
4.680000E+03	1.368366E-17	7.044307E-19
4.690000E+03	1.372764E-17	7.063606E-19
4.700000E+03	1.377293E-17	7.083557E-19
4.710000E+03	1.381713E-17	7.102925E-19
4.720000E+03	1.385780E-17	7.120464E-19
4.730000E+03	1.389975E-17	7.138635E-19
4.740000E+03	1.393812E-17	7.154955E-19
4.750000E+03	1.397774E-17	7.171897E-19
4.760000E+03	1.401373E-17	7.186967E-19
4.770000E+03	1.405097E-17	7.202654E-19
4.780000E+03	1.408697E-17	7.217695E-19
4.790000E+03	1.411929E-17	7.230838E-19
4.800000E+03	1.415280E-17	7.244580E-19
4.810000E+03	1.418259E-17	7.256402E-19
4.820000E+03	1.421356E-17	7.268820E-19
4.830000E+03	1.424078E-17	7.279308E-19
4.840000E+03	1.426916E-17	7.290382E-19
4.850000E+03	1.429376E-17	7.299515E-19
4.860000E+03	1.431952E-17	7.309235E-19
4.870000E+03	1.434148E-17	7.317009E-19
4.880000E+03	1.436459E-17	7.325367E-19
4.890000E+03	1.438389E-17	7.331779E-19
4.900000E+03	1.440435E-17	7.338776E-19
4.910000E+03	1.442100E-17	7.343832E-19
4.920000E+03	1.443883E-17	7.349486E-19
4.930000E+03	1.445284E-17	7.353197E-19
4.940000E+03	1.446805E-17	7.357519E-19
4.950000E+03	1.447946E-17	7.359909E-19
4.960000E+03	1.449209E-17	7.362920E-19
4.970000E+03	1.450092E-17	7.364005E-19
4.980000E+03	1.451102E-17	7.365733E-19
4.990000E+03	1.451733E-17	7.365545E-19
5.000000E+03	1.452493E-17	7.366013E-19
5.010000E+03	1.452878E-17	7.364589E-19
5.020000E+03	1.453393E-17	7.363829E-19
5.030000E+03	1.453537E-17	7.361192E-19
5.040000E+03	1.453814E-17	7.359239E-19
5.050000E+03	1.453723E-17	7.355426E-19
5.060000E+03	1.453769E-17	7.352320E-19
5.070000E+03	1.453449E-17	7.347372E-19
5.080000E+03	1.453270E-17	7.343143E-19
5.090000E+03	1.452730E-17	7.337104E-19
5.100000E+03	1.452081E-17	7.330526E-19
5.110000E+03	1.451579E-17	7.324700E-19
5.120000E+03	1.450721E-17	7.317091E-19
5.130000E+03	1.450012E-17	7.310249E-19
5.140000E+03	1.448952E-17	7.301650E-19
5.150000E+03	1.448046E-17	7.293840E-19
5.160000E+03	1.446794E-17	7.284297E-19
5.170000E+03	1.445447E-17	7.274297E-19
5.180000E+03	1.444259E-17	7.265114E-19
5.190000E+03	1.442732E-17	7.254240E-19
5.200000E+03	1.441367E-17	7.244200E-19
5.210000E+03	1.439668E-17	7.232493E-19
5.220000E+03	1.437886E-17	7.220392E-19
5.230000E+03	1.436273E-17	7.209156E-19
5.240000E+03	1.434332E-17	7.196296E-19
5.250000E+03	1.432562E-17	7.184311E-19
5.260000E+03	1.430471E-17	7.170737E-19
5.270000E+03	1.428308E-17	7.156825E-19
5.280000E+03	1.426324E-17	7.143826E-19
5.290000E+03	1.424023E-17	7.129269E-19
5.300000E+03	1.421659E-17	7.114413E-19
5.310000E+03	1.419477E-17	7.100491E-19
5.320000E+03	1.416989E-17	7.085061E-19
5.330000E+03	1.414687E-17	7.070585E-19
5.340000E+03	1.412085E-17	7.054631E-19
5.350000E+03	1.409428E-17	7.038430E-19
5.360000E+03	1.406963E-17	7.023208E-19
5.370000E+03	1.404203E-17	7.006544E-19
5.380000E+03	1.401397E-17	6.989674E-19
5.390000E+03	1.398787E-17	6.973806E-19
5.400000E+03	1.395892E-17	6.956545E-19
5.410000E+03	1.392955E-17	6.939103E-19
5.420000E+03	1.389980E-17	6.921494E-19
5.430000E+03	1.387207E-17	6.904922E-19
5.440000E+03	1.384159E-17	6.887008E-19
5.450000E+03	1.381078E-17	6.868957E-19
5.460000E+03	1.378205E-17	6.851967E-19
5.470000E+03	1.375062E-17	6.833670E-19
5.480000E+03	1.371894E-17	6.815272E-19
5.490000E+03	1.368937E-17	6.797951E-19
5.500000E+03	1.365720E-17	6.779372E-19
5.510000E+03	1.362482E-17	6.760714E-19
5.520000E+03	1.359224E-17	6.741993E-19
5.530000E+03	1.356183E-17	6.724373E-19
5.540000E+03	1.352892E-17	6.705546E-19
5.550000E+03	1.349587E-17	6.686683E-19
5.560000E+03	1.346270E-17	6.667788E-19
5.570000E+03	1.343174E-17	6.650024E-19
5.580000E+03	1.339837E-17	6.631093E-19
5.590000E+03	1.336494E-17	6.612167E-19
5.600000E+03	1.333145E-17	6.593247E-19
5.610000E+03	1.330022E-17	6.575472E-19
5.620000E+03	1.326668E-17	6.556590E-19
5.630000E+03	1.323313E-17	6.537734E-19
5.640000E+03	1.319960E-17	6.518926E-19
5.650000E+03	1.316610E-17	6.500160E-19
5.660000E+03	1.313490E-17	6.482569E-19
5.670000E+03	1.310150E-17	6.463925E-19
5.680000E+03	1.306818E-17	6.445349E-19
5.690000E+03	1.303493E-17	6.426848E-19
5.700000E+03	1.300405E-17	6.409545E-19
5.710000E+03	1.297104E-17	6.391227E-19
5.720000E+03	1.293815E-17	6.373009E-19
5.730000E+03	1.290543E-17	6.354901E-19
5.740000E+03	1.287285E-17	6.336904E-19
5.750000E+03	1.284046E-17	6.319032E-19
5.760000E+03	1.281046E-17	6.302378E-19
5.770000E+03	1.277846E-17	6.284768E-19
5.780000E+03	1.274666E-17	6.267294E-19
5.790000E+03	1.271510E-17	6.249977E-19
5.800000E+03	1.268378E-17	6.232812E-19
5.810000E+03	1.265270E-17	6.215804E-19
5.820000E+03	1.262409E-17	6.200040E-19
5.830000E+03	1.259355E-17	6.183371E-19
5.840000E+03	1.256331E-17	6.166884E-19
5.850000E+03	1.253338E-17	6.150584E-19
5.860000E+03	1.250375E-17	6.134473E-19
5.870000E+03	1.247445E-17	6.118559E-19
5.880000E+03	1.244549E-17	6.102848E-19
5.890000E+03	1.241901E-17	6.088396E-19
5.900000E+03	1.239075E-17	6.073106E-19
5.910000E+03	1.236285E-17	6.058030E-19
5.920000E+03	1.233534E-17	6.043182E-19
5.930000E+03	1.230822E-17	6.028563E-19
5.940000E+03	1.228149E-17	6.014178E-19
5.950000E+03	1.225518E-17	6.000037E-19
5.960000E+03	1.222929E-17	5.986135E-19
5.970000E+03	1.220383E-17	5.972488E-19
5.980000E+03	1.218091E-17	5.960122E-19
5.990000E+03	1.215633E-17	5.946983E-19
6.000000E+03	1.213221E-17	5.934110E-19
6.010000E+03	1.210856E-17	5.921506E-19
6.020000E+03	1.208539E-17	5.909177E-19
6.030000E+03	1.206270E-17	5.897123E-19
6.040000E+03	1.204051E-17	5.885355E-19
6.050000E+03	1.201883E-17	5.873872E-19
6.060000E+03	1.199766E-17	5.862686E-19
6.070000E+03	1.197701E-17	5.851790E-19
6.080000E+03	1.195687E-17	5.841190E-19
6.090000E+03	1.193728E-17	5.830898E-19
6.100000E+03	1.191824E-17	5.820916E-19
6.110000E+03	1.189975E-17	5.811242E-19
6.120000E+03	1.188180E-17	5.801880E-19
6.130000E+03	1.186443E-17	5.792840E-19
6.140000E+03	1.184967E-17	5.785117E-19
6.150000E+03	1.183345E-17	5.776723E-19
6.160000E+03	1.181780E-17	5.768653E-19
6.170000E+03	1.180273E-17	5.760911E-19
6.180000E+03	1.178827E-17	5.753508E-19
6.190000E+03	1.177439E-17	5.746435E-19
6.200000E+03	1.176110E-17	5.739696E-19
6.210000E+03	1.174842E-17	5.733298E-19
6.220000E+03	1.173635E-17	5.727238E-19
6.230000E+03	1.172486E-17	5.721506E-19
6.240000E+03	1.171397E-17	5.716112E-19
6.250000E+03	1.170367E-17	5.711049E-19
6.260000E+03	1.169395E-17	5.706306E-19
6.270000E+03	1.168481E-17	5.701894E-19
6.280000E+03	1.167625E-17	5.697801E-19
6.290000E+03	1.166825E-17	5.694021E-19
6.300000E+03	1.166082E-17	5.690559E-19
6.310000E+03	1.165392E-17	5.687399E-19
6.320000E+03	1.164758E-17	5.684545E-19
6.330000E+03	1.163976E-17	5.681009E-19
6.340000E+03	1.163448E-17	5.678751E-19
6.350000E+03	1.162972E-17	5.676782E-19
6.360000E+03	1.162545E-17	5.675093E-19
6.370000E+03	1.162170E-17	5.673692E-19
6.380000E+03	1.161843E-17	5.672559E-19
6.390000E+03	1.161565E-17	5.671704E-19
6.400000E+03	1.161334E-17	5.671110E-19
6.410000E+03	1.161149E-17	5.670777E-19
6.420000E+03	1.161009E-17	5.670701E-19
6.430000E+03	1.160915E-17	5.670879E-19
6.440000E+03	1.160864E-17	5.671298E-19
6.450000E+03	1.160855E-17	5.671961E-19
6.460000E+03	1.160889E-17	5.672864E-19
6.470000E+03	1.160963E-17	5.673994E-19
6.480000E+03	1.161077E-17	5.675353E-19
6.490000E+03	1.161229E-17	5.676930E-19
6.500000E+03	1.161220E-17	5.677749E-19
6.510000E+03	1.161448E-17	5.679761E-19
6.520000E+03	1.161712E-17	5.681978E-19
6.530000E+03	1.162012E-17	5.684397E-19
6.540000E+03	1.162345E-17	5.687013E-19
6.550000E+03	1.162712E-17	5.689823E-19
6.560000E+03	1.163112E-17	5.692824E-19
6.570000E+03	1.163543E-17	5.696005E-19
6.580000E+03	1.164005E-17	5.699365E-19
6.590000E+03	1.164496E-17	5.702900E-19
6.600000E+03	1.164816E-17	5.705621E-19
6.610000E+03	1.165363E-17	5.709487E-19
6.620000E+03	1.165939E-17	5.713518E-19
6.630000E+03	1.166540E-17	5.717701E-19
6.640000E+03	1.167167E-17	5.722036E-19
6.650000E+03	1.167818E-17	5.726515E-19
6.660000E+03	1.168492E-17	5.731135E-19
6.670000E+03	1.168986E-17	5.734902E-19
6.680000E+03	1.169703E-17	5.739786E-19
6.690000E+03	1.170442E-17	5.744800E-19
6.700000E+03	1.171200E-17	5.749935E-19
6.710000E+03	1.171976E-17	5.755186E-19
6.720000E+03	1.172770E-17	5.760548E-19
6.730000E+03	1.173581E-17	5.766019E-19
6.740000E+03	1.174205E-17	5.770599E-19
6.750000E+03	1.175047E-17	5.776269E-19
6.760000E+03	1.175902E-17	5.782029E-19
6.770000E+03	1.176770E-17	5.787877E-19
6.780000E+03	1.177650E-17	5.793809E-19
6.790000E+03	1.178542E-17	5.799820E-19
6.800000E+03	1.179239E-17	5.804900E-19
6.810000E+03	1.180150E-17	5.811051E-19
6.820000E+03	1.181069E-17	5.817264E-19
6.830000E+03	1.181993E-17	5.823530E-19
6.840000E+03	1.182925E-17	5.829853E-19
6.850000E+03	1.183657E-17	5.835212E-19
6.860000E+03	1.184597E-17	5.841622E-19
6.870000E+03	1.185540E-17	5.848064E-19
6.880000E+03	1.186485E-17	5.854541E-19
6.890000E+03	1.187431E-17	5.861043E-19
6.900000E+03	1.188171E-17	5.866548E-19
6.910000E+03	1.189116E-17	5.873085E-19
6.920000E+03	1.190058E-17	5.879632E-19
6.930000E+03	1.190996E-17	5.886178E-19
6.940000E+03	1.191930E-17	5.892722E-19
6.950000E+03	1.192652E-17	5.898240E-19
6.960000E+03	1.193574E-17	5.904766E-19
6.970000E+03	1.194488E-17	5.911269E-19
6.980000E+03	1.195391E-17	5.917745E-19
6.990000E+03	1.196080E-17	5.923171E-19
7.000000E+03	1.196962E-17	5.929580E-19
7.010000E+03	1.197832E-17	5.935946E-19
7.020000E+03	1.198688E-17	5.942257E-19
7.030000E+03	1.199322E-17	5.947490E-19
7.040000E+03	1.200148E-17	5.953691E-19
7.050000E+03	1.200955E-17	5.959817E-19
7.060000E+03	1.201745E-17	5.965872E-19
7.070000E+03	1.202306E-17	5.970816E-19
7.080000E+03	1.203055E-17	5.976703E-19
7.090000E+03	1.203781E-17	5.982498E-19
7.100000E+03	1.204484E-17	5.988190E-19
7.110000E+03	1.204953E-17	5.992741E-19
7.120000E+03	1.205606E-17	5.998217E-19
7.130000E+03	1.206230E-17	6.003568E-19
7.140000E+03	1.206825E-17	6.008795E-19
7.150000E+03	1.207182E-17	6.012846E-19
7.160000E+03	1.207717E-17	6.017802E-19
7.170000E+03	1.208219E-17	6.022607E-19
7.180000E+03	1.208478E-17	6.026218E-19
7.190000E+03	1.208911E-17	6.030708E-19
7.200000E+03	1.209308E-17	6.035035E-19
7.210000E+03	1.209666E-17	6.039184E-19
7.220000E+03	1.209777E-17	6.042109E-19
7.230000E+03	1.210056E-17	6.045889E-19
7.240000E+03	1.210294E-17	6.049478E-19
7.250000E+03	1.210279E-17	6.051816E-19
7.260000E+03	1.210431E-17	6.054997E-19
7.270000E+03	1.210536E-17	6.057961E-19
7.280000E+03	1.210385E-17	6.059655E-19
7.290000E+03	1.210396E-17	6.062167E-19
7.300000E+03	1.210358E-17	6.064449E-19
7.310000E+03	1.210268E-17	6.066487E-19
7.320000E+03	1.209919E-17	6.067229E-19
7.330000E+03	1.209726E-17	6.068769E-19
7.340000E+03	1.209478E-17	6.070046E-19
7.350000E+03	1.208967E-17	6.070009E-19
7.360000E+03	1.208609E-17	6.070749E-19
7.370000E+03	1.208194E-17	6.071215E-19
7.380000E+03	1.207511E-17	6.070342E-19
7.390000E+03	1.206978E-17	6.070236E-19
7.400000E+03	1.206386E-17	6.069838E-19
7.410000E+03	1.205523E-17	6.068088E-19
7.420000E+03	1.204807E-17	6.067083E-19
7.430000E+03	1.203820E-17	6.064723E-19
7.440000E+03	1.202979E-17	6.063103E-19
7.450000E+03	1.202073E-17	6.061163E-19
7.460000E+03	1.200893E-17	6.057853E-19
7.470000E+03	1.199858E-17	6.055273E-19
7.480000E+03	1.198756E-17	6.052364E-19
7.490000E+03	1.197380E-17	6.048082E-19
7.500000E+03	1.196144E-17	6.044509E-19
7.510000E+03	1.194843E-17	6.040610E-19
7.520000E+03	1.193266E-17	6.035324E-19
7.530000E+03	1.191829E-17	6.030751E-19
7.540000E+03	1.190118E-17	6.024793E-19
7.550000E+03	1.188546E-17	6.019542E-19
7.560000E+03	1.186907E-17	6.013951E-19
7.570000E+03	1.184995E-17	6.006980E-19
7.580000E+03	1.183219E-17	6.000705E-19
7.590000E+03	1.181173E-17	5.993056E-19
7.600000E+03	1.179264E-17	5.986103E-19
7.610000E+03	1.177290E-17	5.978815E-19
7.620000E+03	1.175044E-17	5.970149E-19
7.630000E+03	1.172936E-17	5.962182E-19
7.640000E+03	1.170560E-17	5.952850E-19
7.650000E+03	1.168323E-17	5.944221E-19
7.660000E+03	1.166021E-17	5.935258E-19
7.670000E+03	1.163454E-17	5.924939E-19
7.680000E+03	1.161027E-17	5.915329E-19
7.690000E+03	1.158335E-17	5.904365E-19
7.700000E+03	1.155785E-17	5.894114E-19
7.710000E+03	1.153175E-17	5.883550E-19
7.720000E+03	1.150303E-17	5.871649E-19
7.730000E+03	1.147575E-17	5.860465E-19
7.740000E+03	1.144590E-17	5.847967E-19
7.750000E+03	1.141747E-17	5.836181E-19
7.760000E+03	1.138651E-17	5.823093E-19
