#wls	flux	fluxerr	mangling_mask
3.294239E+03	8.671159E-15	4.898537E-16	1.389497E+00
3.296526E+03	8.741051E-15	4.898537E-16	1.389497E+00
3.298813E+03	8.805245E-15	4.898537E-16	1.389497E+00
3.301100E+03	8.905845E-15	4.898537E-16	1.389497E+00
3.303386E+03	9.008668E-15	4.898537E-16	1.389497E+00
3.305673E+03	9.096067E-15	4.898537E-16	1.389497E+00
3.307960E+03	9.173462E-15	4.898537E-16	1.389497E+00
3.310247E+03	9.286289E-15	4.898537E-16	1.389497E+00
3.312534E+03	9.428296E-15	4.898537E-16	1.389497E+00
3.314820E+03	9.560159E-15	4.898537E-16	1.389497E+00
3.317107E+03	9.677155E-15	4.898537E-16	1.389497E+00
3.319394E+03	9.754133E-15	4.702479E-16	1.389497E+00
3.321681E+03	9.835558E-15	4.885476E-16	1.389497E+00
3.323968E+03	9.935324E-15	4.863939E-16	1.389497E+00
3.326254E+03	1.005121E-14	5.074309E-16	1.389497E+00
3.328541E+03	1.018238E-14	5.141282E-16	1.389497E+00
3.330828E+03	1.031202E-14	5.088621E-16	1.389497E+00
3.333115E+03	1.042832E-14	5.135864E-16	1.389497E+00
3.335401E+03	1.058950E-14	5.621215E-16	1.389497E+00
3.337688E+03	1.072678E-14	5.594398E-16	1.389497E+00
3.339975E+03	1.084961E-14	5.534232E-16	1.389497E+00
3.342262E+03	1.098287E-14	6.194938E-16	1.389497E+00
3.344549E+03	1.111529E-14	6.558848E-16	1.389497E+00
3.346835E+03	1.124312E-14	6.353619E-16	1.389497E+00
3.349122E+03	1.137304E-14	6.257188E-16	1.389497E+00
3.351409E+03	1.151032E-14	6.685570E-16	1.389497E+00
3.353696E+03	1.162565E-14	6.775470E-16	1.389497E+00
3.355983E+03	1.174334E-14	6.750460E-16	1.389497E+00
3.358269E+03	1.185839E-14	6.451996E-16	1.389497E+00
3.360556E+03	1.197566E-14	6.842444E-16	1.389497E+00
3.362843E+03	1.211545E-14	7.077547E-16	1.389497E+00
3.365130E+03	1.224898E-14	8.500253E-16	1.389497E+00
3.367417E+03	1.236180E-14	8.515399E-16	1.389497E+00
3.369703E+03	1.248144E-14	8.525959E-16	1.389497E+00
3.371990E+03	1.257606E-14	8.407157E-16	1.389497E+00
3.374277E+03	1.267861E-14	8.279462E-16	1.389497E+00
3.376564E+03	1.277184E-14	8.254451E-16	1.389497E+00
3.378851E+03	1.284563E-14	8.408130E-16	1.389497E+00
3.381137E+03	1.292385E-14	8.402433E-16	1.389497E+00
3.383424E+03	1.300584E-14	8.351300E-16	1.389497E+00
3.385711E+03	1.309101E-14	8.406463E-16	1.389497E+00
3.387998E+03	1.317911E-14	9.458590E-16	1.389497E+00
3.390285E+03	1.326998E-14	9.804991E-16	1.389497E+00
3.392571E+03	1.336391E-14	9.743298E-16	1.389497E+00
3.394858E+03	1.346117E-14	9.886555E-16	1.389497E+00
3.397145E+03	1.354065E-14	1.034745E-15	1.389497E+00
3.399432E+03	1.363292E-14	1.034731E-15	1.389497E+00
3.401718E+03	1.370170E-14	1.021267E-15	1.389497E+00
3.404005E+03	1.376645E-14	1.020503E-15	1.389497E+00
3.406292E+03	1.380632E-14	1.021225E-15	1.389497E+00
3.408579E+03	1.386760E-14	1.016571E-15	1.389497E+00
3.410866E+03	1.389914E-14	1.008164E-15	1.389497E+00
3.413152E+03	1.394083E-14	9.150261E-16	1.389497E+00
3.415439E+03	1.399224E-14	9.239883E-16	1.389497E+00
3.417726E+03	1.405338E-14	9.119136E-16	1.389497E+00
3.420013E+03	1.410896E-14	9.107742E-16	1.389497E+00
3.422300E+03	1.417843E-14	8.912796E-16	1.389497E+00
3.424586E+03	1.425208E-14	8.852214E-16	1.389497E+00
3.426873E+03	1.429515E-14	8.766899E-16	1.389497E+00
3.429160E+03	1.436740E-14	8.851658E-16	1.389497E+00
3.431447E+03	1.440909E-14	8.613081E-16	1.389497E+00
3.433733E+03	1.445216E-14	8.677415E-16	1.389497E+00
3.436020E+03	1.451469E-14	7.530108E-16	1.389497E+00
3.438307E+03	1.454248E-14	6.522445E-16	1.389497E+00
3.440594E+03	1.455915E-14	6.193273E-16	1.389497E+00
3.442881E+03	1.460779E-14	6.165483E-16	1.389497E+00
3.445168E+03	1.464391E-14	6.175765E-16	1.389497E+00
3.447454E+03	1.465920E-14	5.888973E-16	1.389497E+00
3.449741E+03	1.463280E-14	5.929130E-16	1.389497E+00
3.452028E+03	1.463558E-14	5.989434E-16	1.389497E+00
3.454315E+03	1.462446E-14	6.086421E-16	1.389497E+00
3.456601E+03	1.461890E-14	5.692638E-16	1.389497E+00
3.458888E+03	1.464947E-14	5.221876E-16	1.389497E+00
3.461175E+03	1.464808E-14	5.225211E-16	1.389497E+00
3.463462E+03	1.463975E-14	5.102241E-16	1.389497E+00
3.465749E+03	1.467031E-14	5.097239E-16	1.389497E+00
3.468035E+03	1.473006E-14	5.089179E-16	1.389497E+00
3.470322E+03	1.477731E-14	5.041242E-16	1.389497E+00
3.472609E+03	1.479537E-14	5.036379E-16	1.389497E+00
3.474896E+03	1.480926E-14	5.044716E-16	1.389497E+00
3.477182E+03	1.487318E-14	4.872696E-16	1.389497E+00
3.479469E+03	1.489819E-14	4.748475E-16	1.389497E+00
3.481756E+03	1.494960E-14	5.385698E-16	1.389497E+00
3.484043E+03	1.502880E-14	5.386532E-16	1.389497E+00
3.486330E+03	1.510940E-14	5.538682E-16	1.389497E+00
3.488617E+03	1.513857E-14	5.375416E-16	1.389497E+00
3.490903E+03	1.519554E-14	5.610380E-16	1.389497E+00
3.493190E+03	1.520527E-14	5.074034E-16	1.389497E+00
3.495477E+03	1.526641E-14	5.138090E-16	1.389497E+00
3.497764E+03	1.533866E-14	4.853938E-16	1.389497E+00
3.500050E+03	1.538591E-14	4.767373E-16	1.389497E+00
3.502337E+03	1.544982E-14	4.743196E-16	1.389497E+00
3.504624E+03	1.556237E-14	4.721937E-16	1.389497E+00
3.506911E+03	1.566936E-14	4.741945E-16	1.389497E+00
3.509198E+03	1.574856E-14	4.887842E-16	1.389497E+00
3.511484E+03	1.577913E-14	5.603294E-16	1.389497E+00
3.513771E+03	1.579303E-14	5.605934E-16	1.389497E+00
3.516058E+03	1.581248E-14	5.776147E-16	1.389497E+00
3.518345E+03	1.588196E-14	5.985961E-16	1.389497E+00
3.520632E+03	1.596533E-14	6.694743E-16	1.389497E+00
3.522918E+03	1.603758E-14	6.852312E-16	1.389497E+00
3.525205E+03	1.610289E-14	6.864679E-16	1.389497E+00
3.527492E+03	1.618348E-14	6.990706E-16	1.389497E+00
3.529779E+03	1.626129E-14	6.462281E-16	1.389497E+00
3.532066E+03	1.633354E-14	6.401143E-16	1.389497E+00
3.534352E+03	1.635022E-14	6.154368E-16	1.389497E+00
3.536639E+03	1.638773E-14	5.941081E-16	1.389497E+00
3.538926E+03	1.645443E-14	5.913013E-16	1.389497E+00
3.541213E+03	1.651001E-14	6.093648E-16	1.389497E+00
3.543499E+03	1.654891E-14	6.190218E-16	1.389497E+00
3.545786E+03	1.657532E-14	6.175072E-16	1.389497E+00
3.548073E+03	1.658921E-14	6.381690E-16	1.389497E+00
3.550360E+03	1.659616E-14	6.290678E-16	1.389497E+00
3.552647E+03	1.664340E-14	6.342090E-16	1.389497E+00
3.554933E+03	1.665452E-14	6.363349E-16	1.389497E+00
3.557220E+03	1.666424E-14	6.351955E-16	1.389497E+00
3.559507E+03	1.667397E-14	5.949557E-16	1.389497E+00
3.561794E+03	1.665730E-14	5.956921E-16	1.389497E+00
3.564081E+03	1.662812E-14	5.780872E-16	1.389497E+00
3.566367E+03	1.660866E-14	5.698614E-16	1.389497E+00
3.568654E+03	1.656420E-14	5.964563E-16	1.389497E+00
3.570941E+03	1.655308E-14	5.751137E-16	1.389497E+00
3.573228E+03	1.650167E-14	5.950390E-16	1.389497E+00
3.575515E+03	1.645165E-14	6.018615E-16	1.389497E+00
3.577801E+03	1.643220E-14	6.010139E-16	1.389497E+00
3.580088E+03	1.639468E-14	6.896915E-16	1.389497E+00
3.582375E+03	1.636133E-14	6.904279E-16	1.389497E+00
3.584662E+03	1.629325E-14	6.919703E-16	1.389497E+00
3.586948E+03	1.622238E-14	6.692103E-16	1.389497E+00
3.589235E+03	1.614040E-14	6.706276E-16	1.389497E+00
3.591522E+03	1.605425E-14	6.615820E-16	1.389497E+00
3.593809E+03	1.596533E-14	6.541204E-16	1.389497E+00
3.596096E+03	1.586528E-14	6.420040E-16	1.389497E+00
3.598382E+03	1.576385E-14	6.439354E-16	1.389497E+00
3.600669E+03	1.564296E-14	6.355845E-16	1.389497E+00
3.602956E+03	1.549429E-14	6.648056E-16	1.389497E+00
3.605243E+03	1.539841E-14	6.936793E-16	1.389497E+00
3.607530E+03	1.528447E-14	6.873849E-16	1.389497E+00
3.609816E+03	1.515942E-14	6.939155E-16	1.389497E+00
3.612103E+03	1.504270E-14	6.718503E-16	1.389497E+00
3.614390E+03	1.491626E-14	6.870097E-16	1.389497E+00
3.616677E+03	1.476897E-14	6.658893E-16	1.389497E+00
3.618964E+03	1.461612E-14	6.814517E-16	1.389497E+00
3.621250E+03	1.447023E-14	6.467837E-16	1.389497E+00
3.623537E+03	1.429515E-14	5.917875E-16	1.389497E+00
3.625824E+03	1.413119E-14	5.861044E-16	1.389497E+00
3.628111E+03	1.398112E-14	5.987210E-16	1.389497E+00
3.630398E+03	1.381855E-14	5.971092E-16	1.389497E+00
3.632684E+03	1.363792E-14	6.021114E-16	1.389497E+00
3.634971E+03	1.344047E-14	6.047931E-16	1.389497E+00
3.637258E+03	1.325997E-14	5.855208E-16	1.389497E+00
3.639545E+03	1.309004E-14	5.845064E-16	1.389497E+00
3.641831E+03	1.289023E-14	5.917457E-16	1.389497E+00
3.644118E+03	1.265957E-14	6.123102E-16	1.389497E+00
3.646405E+03	1.244462E-14	6.049320E-16	1.389497E+00
3.648692E+03	1.226120E-14	6.018612E-16	1.389497E+00
3.650979E+03	1.202318E-14	5.925376E-16	1.389497E+00
3.653265E+03	1.181823E-14	5.707503E-16	1.389497E+00
3.655552E+03	1.160897E-14	5.687078E-16	1.389497E+00
3.657839E+03	1.139471E-14	5.677351E-16	1.389497E+00
3.660126E+03	1.119601E-14	5.873131E-16	1.389497E+00
3.662413E+03	1.102511E-14	5.804768E-16	1.389497E+00
3.664699E+03	1.084739E-14	5.582031E-16	1.389497E+00
3.666986E+03	1.066759E-14	5.409872E-16	1.389497E+00
3.669273E+03	1.050641E-14	5.390558E-16	1.389497E+00
3.671560E+03	1.037232E-14	5.420849E-16	1.389497E+00
3.673847E+03	1.023657E-14	5.408205E-16	1.389497E+00
3.676133E+03	1.010026E-14	3.881565E-16	1.389497E+00
3.678420E+03	1.000271E-14	4.042330E-16	1.389497E+00
3.680707E+03	9.886969E-15	4.178361E-16	1.389497E+00
3.682994E+03	9.758302E-15	4.379143E-16	1.389497E+00
3.685280E+03	9.662982E-15	4.380394E-16	1.389497E+00
3.687567E+03	9.529452E-15	4.566308E-16	1.389497E+00
3.689854E+03	9.412873E-15	4.544354E-16	1.389497E+00
3.692141E+03	9.353819E-15	4.425969E-16	1.389497E+00
3.694428E+03	9.291709E-15	4.299664E-16	1.389497E+00
3.696714E+03	9.255165E-15	4.268817E-16	1.389497E+00
3.699001E+03	9.255304E-15	4.279794E-16	1.389497E+00
3.701288E+03	9.247523E-15	4.191978E-16	1.389497E+00
3.703575E+03	9.193332E-15	4.422078E-16	1.389497E+00
3.705862E+03	9.207505E-15	3.990779E-16	1.389497E+00
3.708148E+03	9.222512E-15	3.866697E-16	1.389497E+00
3.710435E+03	9.267531E-15	3.889068E-16	1.389497E+00
3.712722E+03	9.354514E-15	3.717882E-16	1.389497E+00
3.715009E+03	9.441080E-15	3.567955E-16	1.389497E+00
3.717296E+03	9.541957E-15	3.547946E-16	1.389497E+00
3.719582E+03	9.659092E-15	3.458463E-16	1.389497E+00
3.721869E+03	9.771085E-15	3.537386E-16	1.389497E+00
3.724156E+03	9.948524E-15	3.821816E-16	1.389497E+00
3.726443E+03	1.008608E-14	3.442067E-16	1.389497E+00
3.728729E+03	1.018279E-14	3.484030E-16	1.389497E+00
3.731016E+03	1.031744E-14	3.542806E-16	1.389497E+00
3.733303E+03	1.048140E-14	3.544474E-16	1.389497E+00
3.735590E+03	1.062132E-14	3.452489E-16	1.389497E+00
3.737877E+03	1.073526E-14	3.450266E-16	1.389497E+00
3.740164E+03	1.084419E-14	3.780827E-16	1.389497E+00
3.742450E+03	1.096036E-14	3.772907E-16	1.389497E+00
3.744737E+03	1.105873E-14	3.797779E-16	1.389497E+00
3.747024E+03	1.116461E-14	3.704961E-16	1.389497E+00
3.749311E+03	1.128161E-14	3.582546E-16	1.389497E+00
3.751597E+03	1.136456E-14	3.715104E-16	1.389497E+00
3.753884E+03	1.145668E-14	4.643982E-16	1.389497E+00
3.756171E+03	1.154714E-14	5.076672E-16	1.389497E+00
3.758458E+03	1.163926E-14	5.085148E-16	1.389497E+00
3.760745E+03	1.175376E-14	5.468093E-16	1.389497E+00
3.763031E+03	1.188951E-14	5.610655E-16	1.389497E+00
3.765318E+03	1.202249E-14	5.748355E-16	1.389497E+00
3.767605E+03	1.217617E-14	5.844091E-16	1.389497E+00
3.769892E+03	1.232248E-14	5.959975E-16	1.389497E+00
3.772178E+03	1.249228E-14	6.173263E-16	1.389497E+00
3.774465E+03	1.265221E-14	6.132134E-16	1.389497E+00
3.776752E+03	1.280769E-14	6.457554E-16	1.389497E+00
3.779039E+03	1.298041E-14	8.229719E-16	1.389497E+00
3.781326E+03	1.313228E-14	8.408130E-16	1.389497E+00
3.783613E+03	1.329819E-14	9.023677E-16	1.389497E+00
3.785899E+03	1.347951E-14	9.385086E-16	1.389497E+00
3.788186E+03	1.368808E-14	9.341733E-16	1.389497E+00
3.790473E+03	1.387844E-14	9.503054E-16	1.389497E+00
3.792760E+03	1.406310E-14	9.434691E-16	1.389497E+00
3.795046E+03	1.427153E-14	9.381751E-16	1.389497E+00
3.797333E+03	1.446328E-14	9.293518E-16	1.389497E+00
3.799620E+03	1.465225E-14	9.987850E-16	1.389497E+00
3.801907E+03	1.487179E-14	1.001258E-15	1.389497E+00
3.804194E+03	1.506632E-14	9.450670E-16	1.389497E+00
3.806480E+03	1.527752E-14	9.582812E-16	1.389497E+00
3.808767E+03	1.550540E-14	1.003996E-15	1.389497E+00
3.811054E+03	1.571800E-14	1.046250E-15	1.389497E+00
3.813341E+03	1.593198E-14	1.068552E-15	1.389497E+00
3.815628E+03	1.614596E-14	1.105790E-15	1.389497E+00
3.817914E+03	1.635994E-14	1.163982E-15	1.389497E+00
3.820201E+03	1.656420E-14	1.154798E-15	1.389497E+00
3.822488E+03	1.680319E-14	1.152589E-15	1.389497E+00
3.824775E+03	1.704774E-14	1.151116E-15	1.389497E+00
3.827061E+03	1.725478E-14	1.024630E-15	1.389497E+00
3.829348E+03	1.747710E-14	9.957004E-16	1.389497E+00
3.831635E+03	1.769803E-14	9.275873E-16	1.389497E+00
3.833922E+03	1.790367E-14	9.176524E-16	1.389497E+00
3.836209E+03	1.810515E-14	9.291852E-16	1.389497E+00
3.838495E+03	1.830524E-14	8.935586E-16	1.389497E+00
3.840782E+03	1.850394E-14	9.109551E-16	1.389497E+00
3.843069E+03	1.868735E-14	9.324923E-16	1.389497E+00
3.845356E+03	1.885270E-14	8.927249E-16	1.389497E+00
3.847643E+03	1.898887E-14	8.495533E-16	1.389497E+00
3.849929E+03	1.914033E-14	8.324902E-16	1.389497E+00
3.852216E+03	1.927511E-14	8.361863E-16	1.389497E+00
3.854503E+03	1.941684E-14	8.285858E-16	1.389497E+00
3.856790E+03	1.955162E-14	7.506767E-16	1.389497E+00
3.859077E+03	1.968223E-14	7.317796E-16	1.389497E+00
3.861363E+03	1.979756E-14	7.124795E-16	1.389497E+00
3.863650E+03	1.992678E-14	6.994044E-16	1.389497E+00
3.865937E+03	2.002683E-14	5.998748E-16	1.389497E+00
3.868224E+03	2.010464E-14	5.921214E-16	1.389497E+00
3.870511E+03	2.018523E-14	6.104072E-16	1.389497E+00
3.872797E+03	2.026999E-14	5.688891E-16	1.389497E+00
3.875084E+03	2.033946E-14	5.132954E-16	1.389497E+00
3.877371E+03	2.037837E-14	5.109472E-16	1.389497E+00
3.879658E+03	2.041450E-14	5.088073E-16	1.389497E+00
3.881945E+03	2.042839E-14	4.607170E-16	1.389497E+00
3.884231E+03	2.041728E-14	4.556036E-16	1.389497E+00
3.886518E+03	2.043673E-14	4.590357E-16	1.389497E+00
3.888805E+03	2.042978E-14	4.234646E-16	1.389497E+00
3.891092E+03	2.044090E-14	4.251181E-16	1.389497E+00
3.893378E+03	2.044507E-14	4.337608E-16	1.389497E+00
3.895665E+03	2.044784E-14	4.715133E-16	1.389497E+00
3.897952E+03	2.042561E-14	4.473917E-16	1.389497E+00
3.900239E+03	2.042144E-14	4.456549E-16	1.389497E+00
3.902526E+03	2.044090E-14	4.474195E-16	1.389497E+00
3.904812E+03	2.045201E-14	4.467109E-16	1.389497E+00
3.907099E+03	2.049370E-14	4.295923E-16	1.389497E+00
3.909386E+03	2.052288E-14	4.292588E-16	1.389497E+00
3.911673E+03	2.054928E-14	3.709835E-16	1.389497E+00
3.913960E+03	2.056734E-14	3.786258E-16	1.389497E+00
3.916246E+03	2.055067E-14	4.379293E-16	1.389497E+00
3.918533E+03	2.054372E-14	4.298146E-16	1.389497E+00
3.920820E+03	2.057568E-14	4.445572E-16	1.389497E+00
3.923107E+03	2.054789E-14	4.371234E-16	1.389497E+00
3.925394E+03	2.049787E-14	4.370956E-16	1.389497E+00
3.927680E+03	2.046035E-14	4.261881E-16	1.389497E+00
3.929967E+03	2.041589E-14	4.316210E-16	1.389497E+00
3.932254E+03	2.033807E-14	4.419032E-16	1.389497E+00
3.934541E+03	2.024637E-14	4.559510E-16	1.389497E+00
3.936827E+03	2.017411E-14	4.614812E-16	1.389497E+00
3.939114E+03	2.007824E-14	4.372623E-16	1.389497E+00
3.941401E+03	1.996708E-14	4.186014E-16	1.389497E+00
3.943688E+03	1.986565E-14	3.886300E-16	1.389497E+00
3.945975E+03	1.973920E-14	4.152943E-16	1.389497E+00
3.948261E+03	1.958080E-14	4.156417E-16	1.389497E+00
3.950548E+03	1.943073E-14	3.960498E-16	1.389497E+00
3.952835E+03	1.928345E-14	3.850589E-16	1.389497E+00
3.955122E+03	1.914728E-14	3.914645E-16	1.389497E+00
3.957409E+03	1.901527E-14	4.271049E-16	1.389497E+00
3.959695E+03	1.888605E-14	4.577294E-16	1.389497E+00
3.961982E+03	1.873876E-14	4.642461E-16	1.389497E+00
3.964269E+03	1.861510E-14	5.129478E-16	1.389497E+00
3.966556E+03	1.848587E-14	5.098770E-16	1.389497E+00
3.968843E+03	1.834692E-14	4.992335E-16	1.389497E+00
3.971129E+03	1.821353E-14	5.061532E-16	1.389497E+00
3.973416E+03	1.809682E-14	5.477408E-16	1.389497E+00
3.975703E+03	1.799816E-14	5.456565E-16	1.389497E+00
3.977990E+03	1.786477E-14	5.768923E-16	1.389497E+00
3.980276E+03	1.773138E-14	5.512006E-16	1.389497E+00
3.982563E+03	1.764801E-14	5.391536E-16	1.389497E+00
3.984850E+03	1.756464E-14	5.159352E-16	1.389497E+00
3.987137E+03	1.746459E-14	5.494637E-16	1.389497E+00
3.989424E+03	1.738817E-14	5.552995E-16	1.389497E+00
3.991711E+03	1.735065E-14	5.934412E-16	1.389497E+00
3.993997E+03	1.728396E-14	5.925658E-16	1.389497E+00
3.996284E+03	1.724088E-14	5.956783E-16	1.389497E+00
3.998571E+03	1.721171E-14	6.135055E-16	1.389497E+00
4.000858E+03	1.720059E-14	6.125051E-16	1.389497E+00
4.003144E+03	1.720615E-14	5.810191E-16	1.389497E+00
4.005431E+03	1.721448E-14	5.784346E-16	1.389497E+00
4.007718E+03	1.721726E-14	5.772397E-16	1.389497E+00
4.010005E+03	1.725478E-14	5.914959E-16	1.389497E+00
4.012292E+03	1.731036E-14	5.672214E-16	1.389497E+00
4.014578E+03	1.735899E-14	5.716122E-16	1.389497E+00
4.016865E+03	1.740207E-14	6.082254E-16	1.389497E+00
4.019152E+03	1.747571E-14	6.442412E-16	1.389497E+00
4.021439E+03	1.753546E-14	6.116992E-16	1.389497E+00
4.023726E+03	1.761744E-14	6.075863E-16	1.389497E+00
4.026012E+03	1.772026E-14	5.679579E-16	1.389497E+00
4.028299E+03	1.780919E-14	5.638311E-16	1.389497E+00
4.030586E+03	1.789812E-14	5.640534E-16	1.389497E+00
4.032873E+03	1.798427E-14	5.638311E-16	1.389497E+00
4.035160E+03	1.806208E-14	5.420994E-16	1.389497E+00
4.037446E+03	1.814962E-14	5.418632E-16	1.389497E+00
4.039733E+03	1.821909E-14	4.580628E-16	1.389497E+00
4.042020E+03	1.828579E-14	4.369980E-16	1.389497E+00
4.044307E+03	1.835248E-14	4.350389E-16	1.389497E+00
4.046593E+03	1.842196E-14	4.265352E-16	1.389497E+00
4.048880E+03	1.848448E-14	4.270632E-16	1.389497E+00
4.051167E+03	1.852895E-14	4.350528E-16	1.389497E+00
4.053454E+03	1.856091E-14	4.516156E-16	1.389497E+00
4.055741E+03	1.857480E-14	5.206734E-16	1.389497E+00
4.058027E+03	1.857202E-14	4.699291E-16	1.389497E+00
4.060314E+03	1.856924E-14	4.727081E-16	1.389497E+00
4.062601E+03	1.853729E-14	4.823234E-16	1.389497E+00
4.064888E+03	1.849977E-14	4.831710E-16	1.389497E+00
4.067175E+03	1.848726E-14	4.626064E-16	1.389497E+00
4.069461E+03	1.846364E-14	4.750702E-16	1.389497E+00
4.071748E+03	1.840945E-14	4.603971E-16	1.389497E+00
4.074035E+03	1.834554E-14	4.814619E-16	1.389497E+00
4.076322E+03	1.827467E-14	4.756816E-16	1.389497E+00
4.078608E+03	1.818574E-14	4.813507E-16	1.389497E+00
4.080895E+03	1.812460E-14	4.841297E-16	1.389497E+00
4.083182E+03	1.805096E-14	4.874228E-16	1.389497E+00
4.085469E+03	1.798010E-14	5.081540E-16	1.389497E+00
4.087756E+03	1.792313E-14	5.447116E-16	1.389497E+00
4.090043E+03	1.783420E-14	5.359856E-16	1.389497E+00
4.092329E+03	1.773971E-14	5.542297E-16	1.389497E+00
4.094616E+03	1.765218E-14	5.558276E-16	1.389497E+00
4.096903E+03	1.757992E-14	5.753639E-16	1.389497E+00
4.099190E+03	1.750628E-14	4.992195E-16	1.389497E+00
4.101476E+03	1.745765E-14	5.247723E-16	1.389497E+00
4.103763E+03	1.739929E-14	4.932447E-16	1.389497E+00
4.106050E+03	1.733259E-14	4.934531E-16	1.389497E+00
4.108337E+03	1.726173E-14	4.983441E-16	1.389497E+00
4.110624E+03	1.715890E-14	5.122807E-16	1.389497E+00
4.112910E+03	1.711583E-14	5.086681E-16	1.389497E+00
4.115197E+03	1.709221E-14	4.839072E-16	1.389497E+00
4.117484E+03	1.708109E-14	4.818647E-16	1.389497E+00
4.119771E+03	1.704358E-14	4.891040E-16	1.389497E+00
4.122057E+03	1.701023E-14	4.841018E-16	1.389497E+00
4.124344E+03	1.699355E-14	4.931613E-16	1.389497E+00
4.126631E+03	1.699494E-14	4.935920E-16	1.389497E+00
4.128918E+03	1.697688E-14	4.958430E-16	1.389497E+00
4.131205E+03	1.698244E-14	4.744031E-16	1.389497E+00
4.133492E+03	1.701856E-14	4.557144E-16	1.389497E+00
4.135778E+03	1.703385E-14	4.121954E-16	1.389497E+00
4.138065E+03	1.705886E-14	4.124177E-16	1.389497E+00
4.140352E+03	1.706581E-14	4.039279E-16	1.389497E+00
4.142639E+03	1.707970E-14	3.936874E-16	1.389497E+00
4.144926E+03	1.712556E-14	3.447216E-16	1.389497E+00
4.147212E+03	1.715335E-14	3.457638E-16	1.389497E+00
4.149499E+03	1.715890E-14	3.297846E-16	1.389497E+00
4.151786E+03	1.717975E-14	3.327859E-16	1.389497E+00
4.154073E+03	1.720059E-14	3.327998E-16	1.389497E+00
4.156359E+03	1.720337E-14	3.236986E-16	1.389497E+00
4.158646E+03	1.722004E-14	2.779288E-16	1.389497E+00
4.160933E+03	1.723811E-14	3.241989E-16	1.389497E+00
4.163220E+03	1.723116E-14	3.464446E-16	1.389497E+00
4.165507E+03	1.722977E-14	3.330499E-16	1.389497E+00
4.167793E+03	1.720893E-14	3.331055E-16	1.389497E+00
4.170080E+03	1.717002E-14	3.318966E-16	1.389497E+00
