#wls	flux	fluxerr
1.454545E+03	3.129599E-03	0.000000E+00
1.490909E+03	3.265849E-03	0.000000E+00
1.527273E+03	3.404606E-03	0.000000E+00
1.563636E+03	3.545258E-03	0.000000E+00
1.600000E+03	3.687016E-03	0.000000E+00
1.636364E+03	3.827725E-03	0.000000E+00
1.672727E+03	3.962801E-03	0.000000E+00
1.709091E+03	4.088148E-03	0.000000E+00
1.745455E+03	4.197995E-03	0.000000E+00
1.781818E+03	4.287321E-03	0.000000E+00
1.818182E+03	4.354861E-03	0.000000E+00
1.854545E+03	4.409092E-03	0.000000E+00
1.890909E+03	4.472466E-03	0.000000E+00
1.927273E+03	4.580486E-03	0.000000E+00
1.963636E+03	4.771183E-03	0.000000E+00
2.000000E+03	5.065868E-03	0.000000E+00
2.036364E+03	5.461774E-03	0.000000E+00
2.072727E+03	5.938299E-03	0.000000E+00
2.109091E+03	6.469952E-03	0.000000E+00
2.145455E+03	7.036427E-03	0.000000E+00
2.181818E+03	7.625391E-03	0.000000E+00
2.218182E+03	8.231360E-03	0.000000E+00
2.254545E+03	8.854682E-03	0.000000E+00
2.290909E+03	9.497505E-03	0.000000E+00
2.327273E+03	1.016425E-02	0.000000E+00
2.363636E+03	1.085894E-02	0.000000E+00
2.400000E+03	1.158625E-02	0.000000E+00
2.436364E+03	1.235016E-02	0.000000E+00
2.472727E+03	1.315459E-02	0.000000E+00
2.509091E+03	1.400339E-02	0.000000E+00
2.545455E+03	1.489996E-02	0.000000E+00
2.581818E+03	1.584761E-02	0.000000E+00
2.618182E+03	1.685052E-02	0.000000E+00
2.654545E+03	1.791202E-02	0.000000E+00
2.690909E+03	1.903776E-02	0.000000E+00
2.727273E+03	2.023212E-02	0.000000E+00
2.736364E+03	2.054266E-02	0.000000E+00
2.745455E+03	2.085762E-02	0.000000E+00
2.754545E+03	2.117708E-02	0.000000E+00
2.763636E+03	2.150223E-02	0.000000E+00
2.772727E+03	2.183353E-02	0.000000E+00
2.781818E+03	2.217192E-02	0.000000E+00
2.790909E+03	2.251771E-02	0.000000E+00
2.800000E+03	2.287027E-02	0.000000E+00
2.809091E+03	2.322944E-02	0.000000E+00
2.818182E+03	2.359606E-02	0.000000E+00
2.827273E+03	2.396902E-02	0.000000E+00
2.836364E+03	2.434872E-02	0.000000E+00
2.845455E+03	2.473457E-02	0.000000E+00
2.854545E+03	2.512795E-02	0.000000E+00
2.863636E+03	2.552732E-02	0.000000E+00
2.872727E+03	2.593310E-02	0.000000E+00
2.881818E+03	2.634571E-02	0.000000E+00
2.890909E+03	2.676513E-02	0.000000E+00
2.900000E+03	2.719033E-02	0.000000E+00
2.909091E+03	2.762276E-02	0.000000E+00
2.918182E+03	2.806139E-02	0.000000E+00
2.927273E+03	2.850673E-02	0.000000E+00
2.936364E+03	2.895824E-02	0.000000E+00
2.945455E+03	2.941644E-02	0.000000E+00
2.954545E+03	2.988134E-02	0.000000E+00
2.963636E+03	3.035294E-02	0.000000E+00
2.972727E+03	3.083073E-02	0.000000E+00
2.981818E+03	3.131527E-02	0.000000E+00
2.990909E+03	3.180658E-02	0.000000E+00
3.000000E+03	3.230416E-02	0.000000E+00
3.009091E+03	3.280857E-02	0.000000E+00
3.018182E+03	3.331933E-02	0.000000E+00
3.027273E+03	3.383699E-02	0.000000E+00
3.036364E+03	3.436109E-02	0.000000E+00
3.045455E+03	3.489166E-02	0.000000E+00
3.054545E+03	3.542876E-02	0.000000E+00
3.063636E+03	3.597245E-02	0.000000E+00
3.072727E+03	3.652277E-02	0.000000E+00
3.081818E+03	3.707925E-02	0.000000E+00
3.090909E+03	3.764250E-02	0.000000E+00
3.100000E+03	3.821147E-02	0.000000E+00
3.109091E+03	3.878735E-02	0.000000E+00
3.118182E+03	3.936908E-02	0.000000E+00
3.127273E+03	3.995675E-02	0.000000E+00
3.136364E+03	4.055040E-02	0.000000E+00
3.145455E+03	4.114957E-02	0.000000E+00
3.154545E+03	4.175486E-02	0.000000E+00
3.163636E+03	4.236578E-02	0.000000E+00
3.172727E+03	4.298186E-02	0.000000E+00
3.181818E+03	4.360314E-02	0.000000E+00
3.190909E+03	4.422913E-02	0.000000E+00
3.200000E+03	4.486047E-02	0.000000E+00
3.209091E+03	4.549552E-02	0.000000E+00
3.218182E+03	4.613488E-02	0.000000E+00
3.227273E+03	4.677807E-02	0.000000E+00
3.236364E+03	4.742513E-02	0.000000E+00
3.245455E+03	4.807495E-02	0.000000E+00
3.254545E+03	4.872703E-02	0.000000E+00
3.263636E+03	4.938196E-02	0.000000E+00
3.272727E+03	5.003805E-02	0.000000E+00
3.281818E+03	5.069592E-02	0.000000E+00
3.290909E+03	5.135501E-02	0.000000E+00
3.300000E+03	5.201419E-02	0.000000E+00
3.309091E+03	5.267288E-02	0.000000E+00
3.318182E+03	5.333109E-02	0.000000E+00
3.327273E+03	5.398764E-02	0.000000E+00
3.336364E+03	5.464312E-02	0.000000E+00
3.345455E+03	5.529575E-02	0.000000E+00
3.354545E+03	5.594553E-02	0.000000E+00
3.363636E+03	5.659181E-02	0.000000E+00
3.372727E+03	5.723457E-02	0.000000E+00
3.381818E+03	5.787259E-02	0.000000E+00
3.390909E+03	5.850583E-02	0.000000E+00
3.400000E+03	5.913361E-02	0.000000E+00
3.409091E+03	5.975589E-02	0.000000E+00
3.418182E+03	6.037200E-02	0.000000E+00
3.427273E+03	6.098188E-02	0.000000E+00
3.436364E+03	6.158483E-02	0.000000E+00
3.445455E+03	6.218019E-02	0.000000E+00
3.454545E+03	6.276907E-02	0.000000E+00
3.463636E+03	6.334953E-02	0.000000E+00
3.472727E+03	6.392213E-02	0.000000E+00
3.481818E+03	6.448736E-02	0.000000E+00
3.490909E+03	6.504388E-02	0.000000E+00
3.500000E+03	6.559158E-02	0.000000E+00
3.509091E+03	6.613099E-02	0.000000E+00
3.518182E+03	6.666196E-02	0.000000E+00
3.527273E+03	6.718441E-02	0.000000E+00
3.536364E+03	6.769755E-02	0.000000E+00
3.545455E+03	6.820192E-02	0.000000E+00
3.554545E+03	6.869737E-02	0.000000E+00
3.563636E+03	6.918379E-02	0.000000E+00
3.572727E+03	6.966102E-02	0.000000E+00
3.581818E+03	7.012894E-02	0.000000E+00
3.590909E+03	7.058805E-02	0.000000E+00
3.600000E+03	7.103820E-02	0.000000E+00
3.609091E+03	7.147864E-02	0.000000E+00
3.618182E+03	7.191047E-02	0.000000E+00
3.627273E+03	7.233294E-02	0.000000E+00
3.636364E+03	7.274651E-02	0.000000E+00
3.645455E+03	7.315107E-02	0.000000E+00
3.654545E+03	7.354582E-02	0.000000E+00
3.663636E+03	7.393189E-02	0.000000E+00
3.672727E+03	7.430848E-02	0.000000E+00
3.681818E+03	7.467610E-02	0.000000E+00
3.690909E+03	7.503461E-02	0.000000E+00
3.700000E+03	7.538385E-02	0.000000E+00
3.709091E+03	7.572365E-02	0.000000E+00
3.718182E+03	7.605451E-02	0.000000E+00
3.727273E+03	7.637565E-02	0.000000E+00
3.736364E+03	7.668688E-02	0.000000E+00
3.745455E+03	7.698938E-02	0.000000E+00
3.754545E+03	7.728164E-02	0.000000E+00
3.763636E+03	7.756421E-02	0.000000E+00
3.772727E+03	7.783689E-02	0.000000E+00
3.781818E+03	7.809952E-02	0.000000E+00
3.790909E+03	7.835195E-02	0.000000E+00
3.800000E+03	7.859401E-02	0.000000E+00
3.809091E+03	7.882554E-02	0.000000E+00
3.818182E+03	7.904637E-02	0.000000E+00
3.827273E+03	7.925633E-02	0.000000E+00
3.836364E+03	7.945525E-02	0.000000E+00
3.845455E+03	7.964228E-02	0.000000E+00
3.854545E+03	7.981724E-02	0.000000E+00
3.863636E+03	7.998066E-02	0.000000E+00
3.872727E+03	8.013237E-02	0.000000E+00
3.881818E+03	8.027080E-02	0.000000E+00
3.890909E+03	8.039648E-02	0.000000E+00
3.900000E+03	8.050925E-02	0.000000E+00
3.909091E+03	8.060893E-02	0.000000E+00
3.918182E+03	8.069535E-02	0.000000E+00
3.927273E+03	8.076766E-02	0.000000E+00
3.936364E+03	8.082709E-02	0.000000E+00
3.945455E+03	8.087207E-02	0.000000E+00
3.954545E+03	8.090387E-02	0.000000E+00
3.963636E+03	8.092232E-02	0.000000E+00
3.972727E+03	8.092804E-02	0.000000E+00
3.981818E+03	8.092084E-02	0.000000E+00
3.990909E+03	8.090133E-02	0.000000E+00
4.000000E+03	8.086938E-02	0.000000E+00
4.009091E+03	8.082631E-02	0.000000E+00
4.018182E+03	8.077201E-02	0.000000E+00
4.027273E+03	8.070638E-02	0.000000E+00
4.036364E+03	8.063076E-02	0.000000E+00
4.045455E+03	8.054504E-02	0.000000E+00
4.054545E+03	8.044991E-02	0.000000E+00
4.063636E+03	8.034670E-02	0.000000E+00
4.072727E+03	8.023465E-02	0.000000E+00
4.081818E+03	8.011512E-02	0.000000E+00
4.090909E+03	7.998881E-02	0.000000E+00
4.100000E+03	7.985566E-02	0.000000E+00
4.109091E+03	7.971634E-02	0.000000E+00
4.118182E+03	7.957159E-02	0.000000E+00
4.127273E+03	7.942206E-02	0.000000E+00
4.136364E+03	7.926849E-02	0.000000E+00
4.145455E+03	7.911085E-02	0.000000E+00
4.154545E+03	7.894912E-02	0.000000E+00
4.163636E+03	7.878550E-02	0.000000E+00
4.172727E+03	7.861925E-02	0.000000E+00
4.181818E+03	7.845034E-02	0.000000E+00
4.190909E+03	7.828027E-02	0.000000E+00
4.200000E+03	7.810979E-02	0.000000E+00
4.209091E+03	7.793739E-02	0.000000E+00
4.218182E+03	7.776609E-02	0.000000E+00
4.227273E+03	7.759362E-02	0.000000E+00
4.236364E+03	7.742224E-02	0.000000E+00
4.245455E+03	7.725199E-02	0.000000E+00
4.254545E+03	7.708287E-02	0.000000E+00
4.263636E+03	7.691487E-02	0.000000E+00
4.272727E+03	7.674805E-02	0.000000E+00
4.281818E+03	7.658390E-02	0.000000E+00
4.290909E+03	7.642168E-02	0.000000E+00
4.300000E+03	7.626143E-02	0.000000E+00
4.309091E+03	7.610391E-02	0.000000E+00
4.318182E+03	7.594763E-02	0.000000E+00
4.327273E+03	7.579488E-02	0.000000E+00
4.336364E+03	7.564342E-02	0.000000E+00
4.345455E+03	7.549475E-02	0.000000E+00
4.354545E+03	7.534893E-02	0.000000E+00
4.363636E+03	7.520445E-02	0.000000E+00
4.372727E+03	7.506208E-02	0.000000E+00
4.381818E+03	7.492261E-02	0.000000E+00
4.390909E+03	7.478457E-02	0.000000E+00
4.400000E+03	7.464871E-02	0.000000E+00
4.409091E+03	7.451505E-02	0.000000E+00
4.418182E+03	7.438288E-02	0.000000E+00
4.427273E+03	7.425222E-02	0.000000E+00
4.436364E+03	7.412386E-02	0.000000E+00
4.445455E+03	7.399704E-02	0.000000E+00
4.454545E+03	7.387257E-02	0.000000E+00
4.463636E+03	7.374898E-02	0.000000E+00
4.472727E+03	7.362702E-02	0.000000E+00
4.481818E+03	7.350673E-02	0.000000E+00
4.490909E+03	7.338740E-02	0.000000E+00
4.500000E+03	7.326982E-02	0.000000E+00
4.509091E+03	7.315324E-02	0.000000E+00
4.518182E+03	7.303846E-02	0.000000E+00
4.527273E+03	7.292476E-02	0.000000E+00
4.536364E+03	7.281218E-02	0.000000E+00
4.545455E+03	7.270001E-02	0.000000E+00
4.554545E+03	7.258976E-02	0.000000E+00
4.563636E+03	7.247999E-02	0.000000E+00
4.572727E+03	7.237075E-02	0.000000E+00
4.581818E+03	7.226280E-02	0.000000E+00
4.590909E+03	7.215544E-02	0.000000E+00
4.600000E+03	7.204872E-02	0.000000E+00
4.609091E+03	7.194266E-02	0.000000E+00
4.618182E+03	7.183734E-02	0.000000E+00
4.627273E+03	7.173202E-02	0.000000E+00
4.636364E+03	7.162678E-02	0.000000E+00
4.645455E+03	7.152238E-02	0.000000E+00
4.654545E+03	7.141742E-02	0.000000E+00
4.663636E+03	7.131339E-02	0.000000E+00
4.672727E+03	7.120815E-02	0.000000E+00
4.681818E+03	7.110320E-02	0.000000E+00
4.690909E+03	7.099790E-02	0.000000E+00
4.700000E+03	7.089227E-02	0.000000E+00
4.709091E+03	7.078638E-02	0.000000E+00
4.718182E+03	7.067954E-02	0.000000E+00
4.727273E+03	7.057183E-02	0.000000E+00
4.736364E+03	7.046258E-02	0.000000E+00
4.745455E+03	7.035330E-02	0.000000E+00
4.754545E+03	7.024188E-02	0.000000E+00
4.763636E+03	7.012911E-02	0.000000E+00
4.772727E+03	7.001505E-02	0.000000E+00
4.781818E+03	6.989979E-02	0.000000E+00
4.790909E+03	6.978196E-02	0.000000E+00
4.800000E+03	6.966232E-02	0.000000E+00
4.809091E+03	6.954028E-02	0.000000E+00
4.818182E+03	6.941588E-02	0.000000E+00
4.827273E+03	6.928852E-02	0.000000E+00
4.836364E+03	6.915898E-02	0.000000E+00
4.845455E+03	6.902593E-02	0.000000E+00
4.854545E+03	6.888947E-02	0.000000E+00
4.863636E+03	6.874898E-02	0.000000E+00
4.872727E+03	6.860525E-02	0.000000E+00
4.881818E+03	6.845632E-02	0.000000E+00
4.890909E+03	6.830295E-02	0.000000E+00
4.900000E+03	6.814460E-02	0.000000E+00
4.909091E+03	6.798065E-02	0.000000E+00
4.918182E+03	6.780919E-02	0.000000E+00
4.927273E+03	6.762966E-02	0.000000E+00
4.936364E+03	6.744153E-02	0.000000E+00
4.945455E+03	6.724155E-02	0.000000E+00
4.954545E+03	6.702924E-02	0.000000E+00
4.963636E+03	6.680208E-02	0.000000E+00
4.972727E+03	6.655896E-02	0.000000E+00
4.981818E+03	6.630207E-02	0.000000E+00
4.990909E+03	6.603097E-02	0.000000E+00
5.000000E+03	6.574783E-02	0.000000E+00
5.009091E+03	6.545350E-02	0.000000E+00
5.018182E+03	6.515080E-02	0.000000E+00
5.027273E+03	6.483921E-02	0.000000E+00
5.036364E+03	6.452020E-02	0.000000E+00
5.045455E+03	6.419391E-02	0.000000E+00
5.054545E+03	6.386242E-02	0.000000E+00
5.063636E+03	6.352521E-02	0.000000E+00
5.072727E+03	6.318305E-02	0.000000E+00
5.081818E+03	6.283604E-02	0.000000E+00
5.090909E+03	6.248557E-02	0.000000E+00
5.100000E+03	6.213113E-02	0.000000E+00
5.109091E+03	6.177342E-02	0.000000E+00
5.118182E+03	6.141319E-02	0.000000E+00
5.127273E+03	6.105050E-02	0.000000E+00
5.136364E+03	6.068610E-02	0.000000E+00
5.145455E+03	6.031941E-02	0.000000E+00
5.154545E+03	5.995114E-02	0.000000E+00
5.163636E+03	5.958200E-02	0.000000E+00
5.172727E+03	5.921201E-02	0.000000E+00
5.181818E+03	5.884127E-02	0.000000E+00
5.190909E+03	5.846981E-02	0.000000E+00
5.200000E+03	5.809894E-02	0.000000E+00
5.209091E+03	5.772746E-02	0.000000E+00
5.218182E+03	5.735664E-02	0.000000E+00
5.227273E+03	5.698652E-02	0.000000E+00
5.236364E+03	5.661653E-02	0.000000E+00
5.245455E+03	5.624733E-02	0.000000E+00
5.254545E+03	5.587951E-02	0.000000E+00
5.263636E+03	5.551254E-02	0.000000E+00
5.272727E+03	5.514641E-02	0.000000E+00
5.281818E+03	5.478236E-02	0.000000E+00
5.290909E+03	5.441920E-02	0.000000E+00
5.300000E+03	5.405755E-02	0.000000E+00
5.309091E+03	5.369741E-02	0.000000E+00
5.318182E+03	5.333880E-02	0.000000E+00
5.327273E+03	5.298233E-02	0.000000E+00
5.336364E+03	5.262682E-02	0.000000E+00
5.345455E+03	5.227345E-02	0.000000E+00
5.354545E+03	5.192162E-02	0.000000E+00
5.363636E+03	5.157136E-02	0.000000E+00
5.372727E+03	5.122265E-02	0.000000E+00
5.381818E+03	5.087551E-02	0.000000E+00
5.390909E+03	5.053047E-02	0.000000E+00
5.400000E+03	5.018643E-02	0.000000E+00
5.409091E+03	4.984335E-02	0.000000E+00
5.418182E+03	4.950183E-02	0.000000E+00
5.427273E+03	4.916183E-02	0.000000E+00
5.436364E+03	4.882222E-02	0.000000E+00
5.445455E+03	4.848414E-02	0.000000E+00
5.454545E+03	4.814587E-02	0.000000E+00
5.463636E+03	4.780910E-02	0.000000E+00
5.472727E+03	4.747215E-02	0.000000E+00
5.481818E+03	4.713502E-02	0.000000E+00
5.490909E+03	4.679824E-02	0.000000E+00
5.500000E+03	4.646127E-02	0.000000E+00
5.509091E+03	4.612411E-02	0.000000E+00
5.518182E+03	4.578563E-02	0.000000E+00
5.527273E+03	4.544694E-02	0.000000E+00
5.536364E+03	4.510640E-02	0.000000E+00
5.545455E+03	4.476512E-02	0.000000E+00
5.554545E+03	4.442254E-02	0.000000E+00
5.563636E+03	4.407810E-02	0.000000E+00
5.572727E+03	4.373183E-02	0.000000E+00
5.581818E+03	4.338426E-02	0.000000E+00
5.590909E+03	4.303486E-02	0.000000E+00
5.600000E+03	4.268364E-02	0.000000E+00
5.609091E+03	4.233166E-02	0.000000E+00
5.618182E+03	4.197786E-02	0.000000E+00
5.627273E+03	4.162275E-02	0.000000E+00
5.636364E+03	4.126688E-02	0.000000E+00
5.645455E+03	4.091079E-02	0.000000E+00
5.654545E+03	4.055391E-02	0.000000E+00
5.663636E+03	4.019629E-02	0.000000E+00
5.672727E+03	3.983840E-02	0.000000E+00
5.681818E+03	3.947977E-02	0.000000E+00
5.690909E+03	3.912091E-02	0.000000E+00
5.700000E+03	3.876181E-02	0.000000E+00
5.709091E+03	3.840303E-02	0.000000E+00
5.718182E+03	3.804457E-02	0.000000E+00
5.727273E+03	3.768645E-02	0.000000E+00
5.736364E+03	3.732918E-02	0.000000E+00
5.745455E+03	3.697332E-02	0.000000E+00
5.754545E+03	3.661839E-02	0.000000E+00
5.763636E+03	3.626495E-02	0.000000E+00
5.772727E+03	3.591349E-02	0.000000E+00
5.781818E+03	3.556363E-02	0.000000E+00
5.790909E+03	3.521636E-02	0.000000E+00
5.800000E+03	3.487177E-02	0.000000E+00
5.809091E+03	3.452991E-02	0.000000E+00
5.818182E+03	3.419086E-02	0.000000E+00
5.827273E+03	3.385561E-02	0.000000E+00
5.836364E+03	3.352373E-02	0.000000E+00
5.845455E+03	3.319622E-02	0.000000E+00
5.854545E+03	3.287304E-02	0.000000E+00
5.863636E+03	3.255415E-02	0.000000E+00
5.872727E+03	3.223999E-02	0.000000E+00
5.881818E+03	3.193046E-02	0.000000E+00
5.890909E+03	3.162594E-02	0.000000E+00
5.900000E+03	3.132535E-02	0.000000E+00
5.909091E+03	3.102951E-02	0.000000E+00
5.918182E+03	3.073835E-02	0.000000E+00
5.927273E+03	3.045126E-02	0.000000E+00
5.936364E+03	3.016862E-02	0.000000E+00
5.945455E+03	2.989035E-02	0.000000E+00
5.954545E+03	2.961636E-02	0.000000E+00
5.963636E+03	2.934658E-02	0.000000E+00
5.972727E+03	2.908142E-02	0.000000E+00
5.981818E+03	2.882038E-02	0.000000E+00
5.990909E+03	2.856338E-02	0.000000E+00
6.000000E+03	2.831086E-02	0.000000E+00
6.009091E+03	2.806279E-02	0.000000E+00
6.018182E+03	2.781864E-02	0.000000E+00
6.027273E+03	2.757890E-02	0.000000E+00
6.036364E+03	2.734303E-02	0.000000E+00
6.045455E+03	2.711194E-02	0.000000E+00
6.054545E+03	2.688470E-02	0.000000E+00
6.063636E+03	2.666129E-02	0.000000E+00
6.072727E+03	2.644213E-02	0.000000E+00
6.081818E+03	2.622721E-02	0.000000E+00
6.090909E+03	2.601605E-02	0.000000E+00
6.100000E+03	2.580865E-02	0.000000E+00
6.109091E+03	2.560543E-02	0.000000E+00
6.118182E+03	2.540592E-02	0.000000E+00
6.127273E+03	2.521057E-02	0.000000E+00
6.136364E+03	2.501844E-02	0.000000E+00
6.145455E+03	2.483043E-02	0.000000E+00
6.154545E+03	2.464561E-02	0.000000E+00
6.163636E+03	2.446486E-02	0.000000E+00
6.172727E+03	2.428728E-02	0.000000E+00
6.181818E+03	2.411329E-02	0.000000E+00
6.190909E+03	2.394288E-02	0.000000E+00
6.200000E+03	2.377558E-02	0.000000E+00
6.209091E+03	2.361180E-02	0.000000E+00
6.218182E+03	2.345110E-02	0.000000E+00
6.227273E+03	2.329391E-02	0.000000E+00
6.236364E+03	2.313931E-02	0.000000E+00
6.245455E+03	2.298816E-02	0.000000E+00
6.254545E+03	2.284002E-02	0.000000E+00
6.263636E+03	2.269485E-02	0.000000E+00
6.272727E+03	2.255221E-02	0.000000E+00
6.281818E+03	2.241295E-02	0.000000E+00
6.290909E+03	2.227574E-02	0.000000E+00
6.300000E+03	2.214186E-02	0.000000E+00
6.309091E+03	2.201042E-02	0.000000E+00
6.318182E+03	2.188142E-02	0.000000E+00
6.327273E+03	2.175525E-02	0.000000E+00
6.336364E+03	2.163149E-02	0.000000E+00
6.345455E+03	2.151007E-02	0.000000E+00
6.354545E+03	2.139102E-02	0.000000E+00
6.363636E+03	2.127429E-02	0.000000E+00
6.372727E+03	2.115988E-02	0.000000E+00
6.381818E+03	2.104735E-02	0.000000E+00
6.390909E+03	2.093749E-02	0.000000E+00
6.400000E+03	2.082907E-02	0.000000E+00
6.409091E+03	2.072330E-02	0.000000E+00
6.418182E+03	2.061890E-02	0.000000E+00
6.427273E+03	2.051670E-02	0.000000E+00
6.436364E+03	2.041626E-02	0.000000E+00
6.445455E+03	2.031757E-02	0.000000E+00
6.454545E+03	2.022101E-02	0.000000E+00
6.463636E+03	2.012577E-02	0.000000E+00
6.472727E+03	2.003221E-02	0.000000E+00
6.481818E+03	1.993991E-02	0.000000E+00
6.490909E+03	1.984929E-02	0.000000E+00
6.500000E+03	1.976030E-02	0.000000E+00
6.509091E+03	1.967253E-02	0.000000E+00
6.518182E+03	1.958637E-02	0.000000E+00
6.527273E+03	1.950102E-02	0.000000E+00
6.536364E+03	1.941724E-02	0.000000E+00
6.545455E+03	1.933462E-02	0.000000E+00
6.554545E+03	1.925277E-02	0.000000E+00
6.563636E+03	1.917204E-02	0.000000E+00
6.572727E+03	1.909244E-02	0.000000E+00
6.581818E+03	1.901357E-02	0.000000E+00
6.590909E+03	1.893541E-02	0.000000E+00
6.600000E+03	1.885794E-02	0.000000E+00
6.609091E+03	1.878117E-02	0.000000E+00
6.618182E+03	1.870507E-02	0.000000E+00
6.627273E+03	1.862886E-02	0.000000E+00
6.636364E+03	1.855332E-02	0.000000E+00
6.645455E+03	1.847803E-02	0.000000E+00
6.654545E+03	1.840264E-02	0.000000E+00
6.663636E+03	1.832751E-02	0.000000E+00
6.672727E+03	1.825184E-02	0.000000E+00
6.681818E+03	1.817569E-02	0.000000E+00
6.690909E+03	1.809901E-02	0.000000E+00
6.700000E+03	1.802142E-02	0.000000E+00
6.709091E+03	1.794335E-02	0.000000E+00
6.718182E+03	1.786363E-02	0.000000E+00
6.727273E+03	1.778301E-02	0.000000E+00
6.736364E+03	1.770077E-02	0.000000E+00
6.745455E+03	1.761730E-02	0.000000E+00
6.754545E+03	1.753221E-02	0.000000E+00
6.763636E+03	1.744552E-02	0.000000E+00
6.772727E+03	1.735760E-02	0.000000E+00
6.781818E+03	1.726811E-02	0.000000E+00
6.790909E+03	1.717817E-02	0.000000E+00
6.800000E+03	1.708702E-02	0.000000E+00
6.809091E+03	1.699542E-02	0.000000E+00
6.818182E+03	1.690301E-02	0.000000E+00
6.827273E+03	1.681088E-02	0.000000E+00
6.836364E+03	1.671866E-02	0.000000E+00
6.845455E+03	1.662639E-02	0.000000E+00
6.854545E+03	1.653438E-02	0.000000E+00
6.863636E+03	1.644266E-02	0.000000E+00
6.872727E+03	1.635195E-02	0.000000E+00
6.881818E+03	1.626152E-02	0.000000E+00
6.890909E+03	1.617172E-02	0.000000E+00
6.900000E+03	1.608292E-02	0.000000E+00
6.909091E+03	1.599474E-02	0.000000E+00
6.918182E+03	1.590755E-02	0.000000E+00
6.927273E+03	1.582097E-02	0.000000E+00
6.936364E+03	1.573573E-02	0.000000E+00
6.945455E+03	1.565110E-02	0.000000E+00
6.954545E+03	1.556778E-02	0.000000E+00
6.963636E+03	1.548506E-02	0.000000E+00
6.972727E+03	1.540365E-02	0.000000E+00
6.981818E+03	1.532284E-02	0.000000E+00
6.990909E+03	1.524332E-02	0.000000E+00
7.000000E+03	1.516474E-02	0.000000E+00
7.009091E+03	1.508710E-02	0.000000E+00
7.018182E+03	1.501038E-02	0.000000E+00
7.027273E+03	1.493459E-02	0.000000E+00
7.036364E+03	1.485973E-02	0.000000E+00
7.045455E+03	1.478544E-02	0.000000E+00
7.054545E+03	1.471241E-02	0.000000E+00
