#wls	flux	fluxerr
1.454545E+03	4.493453E-03	0.000000E+00
1.490909E+03	4.632027E-03	0.000000E+00
1.527273E+03	4.767770E-03	0.000000E+00
1.563636E+03	4.899617E-03	0.000000E+00
1.600000E+03	5.027644E-03	0.000000E+00
1.636364E+03	5.146893E-03	0.000000E+00
1.672727E+03	5.254029E-03	0.000000E+00
1.709091E+03	5.342844E-03	0.000000E+00
1.745455E+03	5.407760E-03	0.000000E+00
1.781818E+03	5.443416E-03	0.000000E+00
1.818182E+03	5.450957E-03	0.000000E+00
1.854545E+03	5.443049E-03	0.000000E+00
1.890909E+03	5.448794E-03	0.000000E+00
1.927273E+03	5.513542E-03	0.000000E+00
1.963636E+03	5.683053E-03	0.000000E+00
2.000000E+03	5.982929E-03	0.000000E+00
2.036364E+03	6.411693E-03	0.000000E+00
2.072727E+03	6.949865E-03	0.000000E+00
2.109091E+03	7.570436E-03	0.000000E+00
2.145455E+03	8.252839E-03	0.000000E+00
2.181818E+03	8.983701E-03	0.000000E+00
2.218182E+03	9.757742E-03	0.000000E+00
2.254545E+03	1.057472E-02	0.000000E+00
2.290909E+03	1.143731E-02	0.000000E+00
2.327273E+03	1.235102E-02	0.000000E+00
2.363636E+03	1.332217E-02	0.000000E+00
2.400000E+03	1.435524E-02	0.000000E+00
2.436364E+03	1.545832E-02	0.000000E+00
2.472727E+03	1.663671E-02	0.000000E+00
2.509091E+03	1.789635E-02	0.000000E+00
2.545455E+03	1.924168E-02	0.000000E+00
2.581818E+03	2.068017E-02	0.000000E+00
2.618182E+03	2.221946E-02	0.000000E+00
2.654545E+03	2.387221E-02	0.000000E+00
2.690909E+03	2.565567E-02	0.000000E+00
2.727273E+03	2.759021E-02	0.000000E+00
2.736364E+03	2.810006E-02	0.000000E+00
2.745455E+03	2.862081E-02	0.000000E+00
2.754545E+03	2.915341E-02	0.000000E+00
2.763636E+03	2.969829E-02	0.000000E+00
2.772727E+03	3.025758E-02	0.000000E+00
2.781818E+03	3.083268E-02	0.000000E+00
2.790909E+03	3.142342E-02	0.000000E+00
2.800000E+03	3.203051E-02	0.000000E+00
2.809091E+03	3.265381E-02	0.000000E+00
2.818182E+03	3.329493E-02	0.000000E+00
2.827273E+03	3.395206E-02	0.000000E+00
2.836364E+03	3.462772E-02	0.000000E+00
2.845455E+03	3.532014E-02	0.000000E+00
2.854545E+03	3.603186E-02	0.000000E+00
2.863636E+03	3.676114E-02	0.000000E+00
2.872727E+03	3.750972E-02	0.000000E+00
2.881818E+03	3.827848E-02	0.000000E+00
2.890909E+03	3.906657E-02	0.000000E+00
2.900000E+03	3.987580E-02	0.000000E+00
2.909091E+03	4.070534E-02	0.000000E+00
2.918182E+03	4.155615E-02	0.000000E+00
2.927273E+03	4.242918E-02	0.000000E+00
2.936364E+03	4.332456E-02	0.000000E+00
2.945455E+03	4.424325E-02	0.000000E+00
2.954545E+03	4.518541E-02	0.000000E+00
2.963636E+03	4.615114E-02	0.000000E+00
2.972727E+03	4.714150E-02	0.000000E+00
2.981818E+03	4.815665E-02	0.000000E+00
2.990909E+03	4.919673E-02	0.000000E+00
3.000000E+03	5.026282E-02	0.000000E+00
3.009091E+03	5.135512E-02	0.000000E+00
3.018182E+03	5.247473E-02	0.000000E+00
3.027273E+03	5.362001E-02	0.000000E+00
3.036364E+03	5.479298E-02	0.000000E+00
3.045455E+03	5.599204E-02	0.000000E+00
3.054545E+03	5.722016E-02	0.000000E+00
3.063636E+03	5.847479E-02	0.000000E+00
3.072727E+03	5.975614E-02	0.000000E+00
3.081818E+03	6.106630E-02	0.000000E+00
3.090909E+03	6.240273E-02	0.000000E+00
3.100000E+03	6.376562E-02	0.000000E+00
3.109091E+03	6.515522E-02	0.000000E+00
3.118182E+03	6.657082E-02	0.000000E+00
3.127273E+03	6.801170E-02	0.000000E+00
3.136364E+03	6.947617E-02	0.000000E+00
3.145455E+03	7.096447E-02	0.000000E+00
3.154545E+03	7.247394E-02	0.000000E+00
3.163636E+03	7.400576E-02	0.000000E+00
3.172727E+03	7.555530E-02	0.000000E+00
3.181818E+03	7.712374E-02	0.000000E+00
3.190909E+03	7.870735E-02	0.000000E+00
3.200000E+03	8.030437E-02	0.000000E+00
3.209091E+03	8.191201E-02	0.000000E+00
3.218182E+03	8.352942E-02	0.000000E+00
3.227273E+03	8.515181E-02	0.000000E+00
3.236364E+03	8.677731E-02	0.000000E+00
3.245455E+03	8.840299E-02	0.000000E+00
3.254545E+03	9.002692E-02	0.000000E+00
3.263636E+03	9.164516E-02	0.000000E+00
3.272727E+03	9.325570E-02	0.000000E+00
3.281818E+03	9.485554E-02	0.000000E+00
3.290909E+03	9.644260E-02	0.000000E+00
3.300000E+03	9.801480E-02	0.000000E+00
3.309091E+03	9.956903E-02	0.000000E+00
3.318182E+03	1.011032E-01	0.000000E+00
3.327273E+03	1.026160E-01	0.000000E+00
3.336364E+03	1.041055E-01	0.000000E+00
3.345455E+03	1.055723E-01	0.000000E+00
3.354545E+03	1.070123E-01	0.000000E+00
3.363636E+03	1.084273E-01	0.000000E+00
3.372727E+03	1.098150E-01	0.000000E+00
3.381818E+03	1.111764E-01	0.000000E+00
3.390909E+03	1.125110E-01	0.000000E+00
3.400000E+03	1.138178E-01	0.000000E+00
3.409091E+03	1.150975E-01	0.000000E+00
3.418182E+03	1.163498E-01	0.000000E+00
3.427273E+03	1.175756E-01	0.000000E+00
3.436364E+03	1.187746E-01	0.000000E+00
3.445455E+03	1.199477E-01	0.000000E+00
3.454545E+03	1.210946E-01	0.000000E+00
3.463636E+03	1.222172E-01	0.000000E+00
3.472727E+03	1.233151E-01	0.000000E+00
3.481818E+03	1.243894E-01	0.000000E+00
3.490909E+03	1.254407E-01	0.000000E+00
3.500000E+03	1.264677E-01	0.000000E+00
3.509091E+03	1.274746E-01	0.000000E+00
3.518182E+03	1.284588E-01	0.000000E+00
3.527273E+03	1.294213E-01	0.000000E+00
3.536364E+03	1.303650E-01	0.000000E+00
3.545455E+03	1.312875E-01	0.000000E+00
3.554545E+03	1.321919E-01	0.000000E+00
3.563636E+03	1.330767E-01	0.000000E+00
3.572727E+03	1.339428E-01	0.000000E+00
3.581818E+03	1.347922E-01	0.000000E+00
3.590909E+03	1.356236E-01	0.000000E+00
3.600000E+03	1.364377E-01	0.000000E+00
3.609091E+03	1.372354E-01	0.000000E+00
3.618182E+03	1.380154E-01	0.000000E+00
3.627273E+03	1.387808E-01	0.000000E+00
3.636364E+03	1.395289E-01	0.000000E+00
3.645455E+03	1.402619E-01	0.000000E+00
3.654545E+03	1.409794E-01	0.000000E+00
3.663636E+03	1.416812E-01	0.000000E+00
3.672727E+03	1.423681E-01	0.000000E+00
3.681818E+03	1.430388E-01	0.000000E+00
3.690909E+03	1.436940E-01	0.000000E+00
3.700000E+03	1.443334E-01	0.000000E+00
3.709091E+03	1.449580E-01	0.000000E+00
3.718182E+03	1.455663E-01	0.000000E+00
3.727273E+03	1.461590E-01	0.000000E+00
3.736364E+03	1.467360E-01	0.000000E+00
3.745455E+03	1.472969E-01	0.000000E+00
3.754545E+03	1.478414E-01	0.000000E+00
3.763636E+03	1.483690E-01	0.000000E+00
3.772727E+03	1.488797E-01	0.000000E+00
3.781818E+03	1.493741E-01	0.000000E+00
3.790909E+03	1.498507E-01	0.000000E+00
3.800000E+03	1.503104E-01	0.000000E+00
3.809091E+03	1.507516E-01	0.000000E+00
3.818182E+03	1.511765E-01	0.000000E+00
3.827273E+03	1.515823E-01	0.000000E+00
3.836364E+03	1.519721E-01	0.000000E+00
3.845455E+03	1.523433E-01	0.000000E+00
3.854545E+03	1.526968E-01	0.000000E+00
3.863636E+03	1.530345E-01	0.000000E+00
3.872727E+03	1.533550E-01	0.000000E+00
3.881818E+03	1.536591E-01	0.000000E+00
3.890909E+03	1.539491E-01	0.000000E+00
3.900000E+03	1.542258E-01	0.000000E+00
3.909091E+03	1.544902E-01	0.000000E+00
3.918182E+03	1.547446E-01	0.000000E+00
3.927273E+03	1.549924E-01	0.000000E+00
3.936364E+03	1.552347E-01	0.000000E+00
3.945455E+03	1.554776E-01	0.000000E+00
3.954545E+03	1.557221E-01	0.000000E+00
3.963636E+03	1.559747E-01	0.000000E+00
3.972727E+03	1.562298E-01	0.000000E+00
3.981818E+03	1.564850E-01	0.000000E+00
3.990909E+03	1.567373E-01	0.000000E+00
4.000000E+03	1.569813E-01	0.000000E+00
4.009091E+03	1.572181E-01	0.000000E+00
4.018182E+03	1.574421E-01	0.000000E+00
4.027273E+03	1.576534E-01	0.000000E+00
4.036364E+03	1.578498E-01	0.000000E+00
4.045455E+03	1.580314E-01	0.000000E+00
4.054545E+03	1.581965E-01	0.000000E+00
4.063636E+03	1.583448E-01	0.000000E+00
4.072727E+03	1.584771E-01	0.000000E+00
4.081818E+03	1.585921E-01	0.000000E+00
4.090909E+03	1.586894E-01	0.000000E+00
4.100000E+03	1.587685E-01	0.000000E+00
4.109091E+03	1.588321E-01	0.000000E+00
4.118182E+03	1.588784E-01	0.000000E+00
4.127273E+03	1.589086E-01	0.000000E+00
4.136364E+03	1.589222E-01	0.000000E+00
4.145455E+03	1.589205E-01	0.000000E+00
4.154545E+03	1.589033E-01	0.000000E+00
4.163636E+03	1.588714E-01	0.000000E+00
4.172727E+03	1.588250E-01	0.000000E+00
4.181818E+03	1.587651E-01	0.000000E+00
4.190909E+03	1.586916E-01	0.000000E+00
4.200000E+03	1.586068E-01	0.000000E+00
4.209091E+03	1.585081E-01	0.000000E+00
4.218182E+03	1.583993E-01	0.000000E+00
4.227273E+03	1.582788E-01	0.000000E+00
4.236364E+03	1.581494E-01	0.000000E+00
4.245455E+03	1.580095E-01	0.000000E+00
4.254545E+03	1.578632E-01	0.000000E+00
4.263636E+03	1.577077E-01	0.000000E+00
4.272727E+03	1.575441E-01	0.000000E+00
4.281818E+03	1.573711E-01	0.000000E+00
4.290909E+03	1.571885E-01	0.000000E+00
4.300000E+03	1.569966E-01	0.000000E+00
4.309091E+03	1.567935E-01	0.000000E+00
4.318182E+03	1.565796E-01	0.000000E+00
4.327273E+03	1.563559E-01	0.000000E+00
4.336364E+03	1.561213E-01	0.000000E+00
4.345455E+03	1.558770E-01	0.000000E+00
4.354545E+03	1.556217E-01	0.000000E+00
4.363636E+03	1.553554E-01	0.000000E+00
4.372727E+03	1.550781E-01	0.000000E+00
4.381818E+03	1.547900E-01	0.000000E+00
4.390909E+03	1.544924E-01	0.000000E+00
4.400000E+03	1.541841E-01	0.000000E+00
4.409091E+03	1.538651E-01	0.000000E+00
4.418182E+03	1.535356E-01	0.000000E+00
4.427273E+03	1.531969E-01	0.000000E+00
4.436364E+03	1.528480E-01	0.000000E+00
4.445455E+03	1.524902E-01	0.000000E+00
4.454545E+03	1.521224E-01	0.000000E+00
4.463636E+03	1.517447E-01	0.000000E+00
4.472727E+03	1.513586E-01	0.000000E+00
4.481818E+03	1.509644E-01	0.000000E+00
4.490909E+03	1.505621E-01	0.000000E+00
4.500000E+03	1.501521E-01	0.000000E+00
4.509091E+03	1.497344E-01	0.000000E+00
4.518182E+03	1.493079E-01	0.000000E+00
4.527273E+03	1.488756E-01	0.000000E+00
4.536364E+03	1.484376E-01	0.000000E+00
4.545455E+03	1.479915E-01	0.000000E+00
4.554545E+03	1.475389E-01	0.000000E+00
4.563636E+03	1.470813E-01	0.000000E+00
4.572727E+03	1.466189E-01	0.000000E+00
4.581818E+03	1.461494E-01	0.000000E+00
4.590909E+03	1.456756E-01	0.000000E+00
4.600000E+03	1.451964E-01	0.000000E+00
4.609091E+03	1.447134E-01	0.000000E+00
4.618182E+03	1.442255E-01	0.000000E+00
4.627273E+03	1.437330E-01	0.000000E+00
4.636364E+03	1.432374E-01	0.000000E+00
4.645455E+03	1.427363E-01	0.000000E+00
4.654545E+03	1.422327E-01	0.000000E+00
4.663636E+03	1.417253E-01	0.000000E+00
4.672727E+03	1.412146E-01	0.000000E+00
4.681818E+03	1.407008E-01	0.000000E+00
4.690909E+03	1.401826E-01	0.000000E+00
4.700000E+03	1.396632E-01	0.000000E+00
4.709091E+03	1.391400E-01	0.000000E+00
4.718182E+03	1.386146E-01	0.000000E+00
4.727273E+03	1.380859E-01	0.000000E+00
4.736364E+03	1.375543E-01	0.000000E+00
4.745455E+03	1.370212E-01	0.000000E+00
4.754545E+03	1.364855E-01	0.000000E+00
4.763636E+03	1.359476E-01	0.000000E+00
4.772727E+03	1.354077E-01	0.000000E+00
4.781818E+03	1.348659E-01	0.000000E+00
4.790909E+03	1.343212E-01	0.000000E+00
4.800000E+03	1.337752E-01	0.000000E+00
4.809091E+03	1.332268E-01	0.000000E+00
4.818182E+03	1.326761E-01	0.000000E+00
4.827273E+03	1.321248E-01	0.000000E+00
4.836364E+03	1.315705E-01	0.000000E+00
4.845455E+03	1.310147E-01	0.000000E+00
4.854545E+03	1.304563E-01	0.000000E+00
4.863636E+03	1.298968E-01	0.000000E+00
4.872727E+03	1.293364E-01	0.000000E+00
4.881818E+03	1.287729E-01	0.000000E+00
4.890909E+03	1.282076E-01	0.000000E+00
4.900000E+03	1.276409E-01	0.000000E+00
4.909091E+03	1.270715E-01	0.000000E+00
4.918182E+03	1.264986E-01	0.000000E+00
4.927273E+03	1.259248E-01	0.000000E+00
4.936364E+03	1.253466E-01	0.000000E+00
4.945455E+03	1.247654E-01	0.000000E+00
4.954545E+03	1.241789E-01	0.000000E+00
4.963636E+03	1.235874E-01	0.000000E+00
4.972727E+03	1.229911E-01	0.000000E+00
4.981818E+03	1.223902E-01	0.000000E+00
4.990909E+03	1.217848E-01	0.000000E+00
5.000000E+03	1.211766E-01	0.000000E+00
5.009091E+03	1.205643E-01	0.000000E+00
5.018182E+03	1.199482E-01	0.000000E+00
5.027273E+03	1.193273E-01	0.000000E+00
5.036364E+03	1.187041E-01	0.000000E+00
5.045455E+03	1.180777E-01	0.000000E+00
5.054545E+03	1.174471E-01	0.000000E+00
5.063636E+03	1.168123E-01	0.000000E+00
5.072727E+03	1.161748E-01	0.000000E+00
5.081818E+03	1.155335E-01	0.000000E+00
5.090909E+03	1.148887E-01	0.000000E+00
5.100000E+03	1.142404E-01	0.000000E+00
5.109091E+03	1.135888E-01	0.000000E+00
5.118182E+03	1.129341E-01	0.000000E+00
5.127273E+03	1.122763E-01	0.000000E+00
5.136364E+03	1.116158E-01	0.000000E+00
5.145455E+03	1.109514E-01	0.000000E+00
5.154545E+03	1.102843E-01	0.000000E+00
5.163636E+03	1.096137E-01	0.000000E+00
5.172727E+03	1.089408E-01	0.000000E+00
5.181818E+03	1.082656E-01	0.000000E+00
5.190909E+03	1.075872E-01	0.000000E+00
5.200000E+03	1.069068E-01	0.000000E+00
5.209091E+03	1.062245E-01	0.000000E+00
5.218182E+03	1.055393E-01	0.000000E+00
5.227273E+03	1.048523E-01	0.000000E+00
5.236364E+03	1.041638E-01	0.000000E+00
5.245455E+03	1.034726E-01	0.000000E+00
5.254545E+03	1.027800E-01	0.000000E+00
5.263636E+03	1.020870E-01	0.000000E+00
5.272727E+03	1.013917E-01	0.000000E+00
5.281818E+03	1.006951E-01	0.000000E+00
5.290909E+03	9.999837E-02	0.000000E+00
5.300000E+03	9.930049E-02	0.000000E+00
5.309091E+03	9.860153E-02	0.000000E+00
5.318182E+03	9.790258E-02	0.000000E+00
5.327273E+03	9.720370E-02	0.000000E+00
5.336364E+03	9.650491E-02	0.000000E+00
5.345455E+03	9.580621E-02	0.000000E+00
5.354545E+03	9.510762E-02	0.000000E+00
5.363636E+03	9.441026E-02	0.000000E+00
5.372727E+03	9.371410E-02	0.000000E+00
5.381818E+03	9.301804E-02	0.000000E+00
5.390909E+03	9.232428E-02	0.000000E+00
5.400000E+03	9.163166E-02	0.000000E+00
5.409091E+03	9.094234E-02	0.000000E+00
5.418182E+03	9.025414E-02	0.000000E+00
5.427273E+03	8.956914E-02	0.000000E+00
5.436364E+03	8.888732E-02	0.000000E+00
5.445455E+03	8.820858E-02	0.000000E+00
5.454545E+03	8.753396E-02	0.000000E+00
5.463636E+03	8.686339E-02	0.000000E+00
5.472727E+03	8.619782E-02	0.000000E+00
5.481818E+03	8.553717E-02	0.000000E+00
5.490909E+03	8.488135E-02	0.000000E+00
5.500000E+03	8.423237E-02	0.000000E+00
5.509091E+03	8.359012E-02	0.000000E+00
5.518182E+03	8.295445E-02	0.000000E+00
5.527273E+03	8.232631E-02	0.000000E+00
5.536364E+03	8.170658E-02	0.000000E+00
5.545455E+03	8.109615E-02	0.000000E+00
5.554545E+03	8.049595E-02	0.000000E+00
5.563636E+03	7.990573E-02	0.000000E+00
5.572727E+03	7.932745E-02	0.000000E+00
5.581818E+03	7.876298E-02	0.000000E+00
5.590909E+03	7.821208E-02	0.000000E+00
5.600000E+03	7.767764E-02	0.000000E+00
5.609091E+03	7.715943E-02	0.000000E+00
5.618182E+03	7.665512E-02	0.000000E+00
5.627273E+03	7.616239E-02	0.000000E+00
5.636364E+03	7.568200E-02	0.000000E+00
5.645455E+03	7.521065E-02	0.000000E+00
5.654545E+03	7.474905E-02	0.000000E+00
5.663636E+03	7.429594E-02	0.000000E+00
5.672727E+03	7.385000E-02	0.000000E+00
5.681818E+03	7.341197E-02	0.000000E+00
5.690909E+03	7.297952E-02	0.000000E+00
5.700000E+03	7.255336E-02	0.000000E+00
5.709091E+03	7.213215E-02	0.000000E+00
5.718182E+03	7.171662E-02	0.000000E+00
5.727273E+03	7.130539E-02	0.000000E+00
5.736364E+03	7.089713E-02	0.000000E+00
5.745455E+03	7.049148E-02	0.000000E+00
5.754545E+03	7.008916E-02	0.000000E+00
5.763636E+03	6.968775E-02	0.000000E+00
5.772727E+03	6.928693E-02	0.000000E+00
5.781818E+03	6.888535E-02	0.000000E+00
5.790909E+03	6.848170E-02	0.000000E+00
5.800000E+03	6.807563E-02	0.000000E+00
5.809091E+03	6.766388E-02	0.000000E+00
5.818182E+03	6.724715E-02	0.000000E+00
5.827273E+03	6.682423E-02	0.000000E+00
5.836364E+03	6.639793E-02	0.000000E+00
5.845455E+03	6.596709E-02	0.000000E+00
5.854545E+03	6.553470E-02	0.000000E+00
5.863636E+03	6.509882E-02	0.000000E+00
5.872727E+03	6.466260E-02	0.000000E+00
5.881818E+03	6.422340E-02	0.000000E+00
5.890909E+03	6.378449E-02	0.000000E+00
5.900000E+03	6.334432E-02	0.000000E+00
5.909091E+03	6.290425E-02	0.000000E+00
5.918182E+03	6.246377E-02	0.000000E+00
5.927273E+03	6.202324E-02	0.000000E+00
5.936364E+03	6.158309E-02	0.000000E+00
5.945455E+03	6.114371E-02	0.000000E+00
5.954545E+03	6.070548E-02	0.000000E+00
5.963636E+03	6.026781E-02	0.000000E+00
5.972727E+03	5.983104E-02	0.000000E+00
5.981818E+03	5.939551E-02	0.000000E+00
5.990909E+03	5.896058E-02	0.000000E+00
6.000000E+03	5.852841E-02	0.000000E+00
6.009091E+03	5.809649E-02	0.000000E+00
6.018182E+03	5.766691E-02	0.000000E+00
6.027273E+03	5.723898E-02	0.000000E+00
6.036364E+03	5.681291E-02	0.000000E+00
6.045455E+03	5.638798E-02	0.000000E+00
6.054545E+03	5.596621E-02	0.000000E+00
6.063636E+03	5.554592E-02	0.000000E+00
6.072727E+03	5.512729E-02	0.000000E+00
6.081818E+03	5.471131E-02	0.000000E+00
6.090909E+03	5.429815E-02	0.000000E+00
6.100000E+03	5.388694E-02	0.000000E+00
6.109091E+03	5.347872E-02	0.000000E+00
6.118182E+03	5.307266E-02	0.000000E+00
6.127273E+03	5.266883E-02	0.000000E+00
6.136364E+03	5.226816E-02	0.000000E+00
6.145455E+03	5.186981E-02	0.000000E+00
6.154545E+03	5.147381E-02	0.000000E+00
6.163636E+03	5.108108E-02	0.000000E+00
6.172727E+03	5.069163E-02	0.000000E+00
6.181818E+03	5.030373E-02	0.000000E+00
6.190909E+03	4.991910E-02	0.000000E+00
6.200000E+03	4.953777E-02	0.000000E+00
6.209091E+03	4.915882E-02	0.000000E+00
6.218182E+03	4.878313E-02	0.000000E+00
6.227273E+03	4.840983E-02	0.000000E+00
6.236364E+03	4.803972E-02	0.000000E+00
6.245455E+03	4.767192E-02	0.000000E+00
6.254545E+03	4.730726E-02	0.000000E+00
6.263636E+03	4.694573E-02	0.000000E+00
6.272727E+03	4.658639E-02	0.000000E+00
6.281818E+03	4.623008E-02	0.000000E+00
6.290909E+03	4.587673E-02	0.000000E+00
6.300000E+03	4.552633E-02	0.000000E+00
6.309091E+03	4.517796E-02	0.000000E+00
6.318182E+03	4.483324E-02	0.000000E+00
6.327273E+03	4.449048E-02	0.000000E+00
6.336364E+03	4.415126E-02	0.000000E+00
6.345455E+03	4.381388E-02	0.000000E+00
6.354545E+03	4.347993E-02	0.000000E+00
6.363636E+03	4.314854E-02	0.000000E+00
6.372727E+03	4.281882E-02	0.000000E+00
6.381818E+03	4.249238E-02	0.000000E+00
6.390909E+03	4.216912E-02	0.000000E+00
6.400000E+03	4.184739E-02	0.000000E+00
6.409091E+03	4.152874E-02	0.000000E+00
6.418182E+03	4.121311E-02	0.000000E+00
6.427273E+03	4.089963E-02	0.000000E+00
6.436364E+03	4.058828E-02	0.000000E+00
6.445455E+03	4.028055E-02	0.000000E+00
6.454545E+03	3.997482E-02	0.000000E+00
6.463636E+03	3.967103E-02	0.000000E+00
6.472727E+03	3.937072E-02	0.000000E+00
6.481818E+03	3.907300E-02	0.000000E+00
6.490909E+03	3.877709E-02	0.000000E+00
6.500000E+03	3.848445E-02	0.000000E+00
6.509091E+03	3.819428E-02	0.000000E+00
6.518182E+03	3.790728E-02	0.000000E+00
6.527273E+03	3.762261E-02	0.000000E+00
6.536364E+03	3.734026E-02	0.000000E+00
6.545455E+03	3.706093E-02	0.000000E+00
6.554545E+03	3.678456E-02	0.000000E+00
6.563636E+03	3.651108E-02	0.000000E+00
6.572727E+03	3.624048E-02	0.000000E+00
6.581818E+03	3.597195E-02	0.000000E+00
6.590909E+03	3.570692E-02	0.000000E+00
6.600000E+03	3.544463E-02	0.000000E+00
6.609091E+03	3.518574E-02	0.000000E+00
6.618182E+03	3.492874E-02	0.000000E+00
6.627273E+03	3.467506E-02	0.000000E+00
6.636364E+03	3.442466E-02	0.000000E+00
6.645455E+03	3.417602E-02	0.000000E+00
6.654545E+03	3.393060E-02	0.000000E+00
6.663636E+03	3.368757E-02	0.000000E+00
6.672727E+03	3.344620E-02	0.000000E+00
6.681818E+03	3.320717E-02	0.000000E+00
6.690909E+03	3.296974E-02	0.000000E+00
6.700000E+03	3.273314E-02	0.000000E+00
6.709091E+03	3.249735E-02	0.000000E+00
6.718182E+03	3.226161E-02	0.000000E+00
6.727273E+03	3.202596E-02	0.000000E+00
6.736364E+03	3.178889E-02	0.000000E+00
6.745455E+03	3.154972E-02	0.000000E+00
6.754545E+03	3.130919E-02	0.000000E+00
6.763636E+03	3.106656E-02	0.000000E+00
6.772727E+03	3.082257E-02	0.000000E+00
6.781818E+03	3.057936E-02	0.000000E+00
6.790909E+03	3.033623E-02	0.000000E+00
6.800000E+03	3.009385E-02	0.000000E+00
6.809091E+03	2.985367E-02	0.000000E+00
6.818182E+03	2.961563E-02	0.000000E+00
6.827273E+03	2.937904E-02	0.000000E+00
6.836364E+03	2.914598E-02	0.000000E+00
6.845455E+03	2.891502E-02	0.000000E+00
6.854545E+03	2.868685E-02	0.000000E+00
6.863636E+03	2.846146E-02	0.000000E+00
6.872727E+03	2.823882E-02	0.000000E+00
6.881818E+03	2.801890E-02	0.000000E+00
6.890909E+03	2.780238E-02	0.000000E+00
6.900000E+03	2.758787E-02	0.000000E+00
6.909091E+03	2.737674E-02	0.000000E+00
6.918182E+03	2.716760E-02	0.000000E+00
6.927273E+03	2.696178E-02	0.000000E+00
6.936364E+03	2.675792E-02	0.000000E+00
6.945455E+03	2.655669E-02	0.000000E+00
6.954545E+03	2.635809E-02	0.000000E+00
6.963636E+03	2.616142E-02	0.000000E+00
6.972727E+03	2.596734E-02	0.000000E+00
6.981818E+03	2.577585E-02	0.000000E+00
6.990909E+03	2.558695E-02	0.000000E+00
7.000000E+03	2.539993E-02	0.000000E+00
7.009091E+03	2.521482E-02	0.000000E+00
7.018182E+03	2.503229E-02	0.000000E+00
7.027273E+03	2.485229E-02	0.000000E+00
7.036364E+03	2.467481E-02	0.000000E+00
7.045455E+03	2.449988E-02	0.000000E+00
7.054545E+03	2.432682E-02	0.000000E+00
