#wls	flux	fluxerr
1.454545E+03	3.172740E-03	1.095535E-04
1.490909E+03	3.220427E-03	1.110457E-04
1.527273E+03	3.262105E-03	1.123223E-04
1.563636E+03	3.297290E-03	1.133672E-04
1.600000E+03	3.325175E-03	1.141535E-04
1.636364E+03	3.344232E-03	1.146297E-04
1.672727E+03	3.351137E-03	1.146834E-04
1.709091E+03	3.343890E-03	1.142480E-04
1.745455E+03	3.318125E-03	1.131769E-04
1.781818E+03	3.272430E-03	1.114252E-04
1.818182E+03	3.208814E-03	1.090650E-04
1.854545E+03	3.135378E-03	1.063744E-04
1.890909E+03	3.068706E-03	1.039172E-04
1.927273E+03	3.033596E-03	1.025304E-04
1.963636E+03	3.051475E-03	1.029306E-04
2.000000E+03	3.130568E-03	1.053839E-04
2.036364E+03	3.264795E-03	1.096730E-04
2.072727E+03	3.436755E-03	1.152023E-04
2.109091E+03	3.629107E-03	1.213824E-04
2.145455E+03	3.828992E-03	1.277787E-04
2.181818E+03	4.027876E-03	1.341041E-04
2.218182E+03	4.223992E-03	1.402989E-04
2.254545E+03	4.415154E-03	1.462901E-04
2.290909E+03	4.603104E-03	1.521353E-04
2.327273E+03	4.789595E-03	1.578918E-04
2.363636E+03	4.975169E-03	1.635765E-04
2.400000E+03	5.163102E-03	1.692960E-04
2.436364E+03	5.354479E-03	1.750836E-04
2.472727E+03	5.550195E-03	1.809663E-04
2.509091E+03	5.753190E-03	1.870370E-04
2.545455E+03	5.963338E-03	1.932882E-04
2.581818E+03	6.183354E-03	1.998040E-04
2.618182E+03	6.414374E-03	2.066164E-04
2.654545E+03	6.657427E-03	2.137534E-04
2.690909E+03	6.914999E-03	2.212889E-04
2.727273E+03	7.187187E-03	2.292196E-04
2.736364E+03	7.257956E-03	2.312772E-04
2.745455E+03	7.329348E-03	2.333496E-04
2.754545E+03	7.402138E-03	2.354615E-04
2.763636E+03	7.476409E-03	2.376154E-04
2.772727E+03	7.551673E-03	2.397956E-04
2.781818E+03	7.629803E-03	2.420614E-04
2.790909E+03	7.708362E-03	2.443352E-04
2.800000E+03	7.789615E-03	2.466887E-04
2.809091E+03	7.872704E-03	2.490946E-04
2.818182E+03	7.956772E-03	2.515254E-04
2.827273E+03	8.043326E-03	2.540288E-04
2.836364E+03	8.130730E-03	2.565528E-04
2.845455E+03	8.219716E-03	2.591203E-04
2.854545E+03	8.311019E-03	2.617545E-04
2.863636E+03	8.403013E-03	2.644037E-04
2.872727E+03	8.497233E-03	2.671162E-04
2.881818E+03	8.592846E-03	2.698656E-04
2.890909E+03	8.689812E-03	2.726504E-04
2.900000E+03	8.788097E-03	2.754695E-04
2.909091E+03	8.888460E-03	2.783464E-04
2.918182E+03	8.990074E-03	2.812550E-04
2.927273E+03	9.092913E-03	2.841943E-04
2.936364E+03	9.197744E-03	2.871881E-04
2.945455E+03	9.304542E-03	2.902355E-04
2.954545E+03	9.412488E-03	2.933106E-04
2.963636E+03	9.522357E-03	2.964375E-04
2.972727E+03	9.633329E-03	2.995903E-04
2.981818E+03	9.746184E-03	3.027932E-04
2.990909E+03	9.860903E-03	3.060454E-04
3.000000E+03	9.977471E-03	3.093461E-04
3.009091E+03	1.009587E-02	3.126946E-04
3.018182E+03	1.021608E-02	3.160901E-04
3.027273E+03	1.033810E-02	3.195319E-04
3.036364E+03	1.046189E-02	3.230194E-04
3.045455E+03	1.058826E-02	3.265766E-04
3.054545E+03	1.071559E-02	3.301534E-04
3.063636E+03	1.084546E-02	3.337984E-04
3.072727E+03	1.097786E-02	3.375111E-04
3.081818E+03	1.111198E-02	3.412660E-04
3.090909E+03	1.124780E-02	3.450626E-04
3.100000E+03	1.138611E-02	3.489245E-04
3.109091E+03	1.152690E-02	3.528514E-04
3.118182E+03	1.166934E-02	3.568178E-04
3.127273E+03	1.181503E-02	3.608717E-04
3.136364E+03	1.196236E-02	3.649639E-04
3.145455E+03	1.211211E-02	3.691178E-04
3.154545E+03	1.226505E-02	3.733570E-04
3.163636E+03	1.242038E-02	3.776563E-04
3.172727E+03	1.257808E-02	3.820148E-04
3.181818E+03	1.273812E-02	3.864317E-04
3.190909E+03	1.290131E-02	3.909306E-04
3.200000E+03	1.306680E-02	3.954858E-04
3.209091E+03	1.323540E-02	4.001213E-04
3.218182E+03	1.340705E-02	4.048349E-04
3.227273E+03	1.358097E-02	4.096027E-04
3.236364E+03	1.375791E-02	4.144470E-04
3.245455E+03	1.393865E-02	4.193908E-04
3.254545E+03	1.412157E-02	4.243851E-04
3.263636E+03	1.430824E-02	4.294765E-04
3.272727E+03	1.449784E-02	4.346397E-04
3.281818E+03	1.469034E-02	4.398740E-04
3.290909E+03	1.488650E-02	4.452014E-04
3.300000E+03	1.508551E-02	4.505969E-04
3.309091E+03	1.528812E-02	4.560830E-04
3.318182E+03	1.549428E-02	4.616576E-04
3.327273E+03	1.570399E-02	4.673199E-04
3.336364E+03	1.591717E-02	4.730676E-04
3.345455E+03	1.613384E-02	4.789001E-04
3.354545E+03	1.635392E-02	4.848152E-04
3.363636E+03	1.657738E-02	4.908111E-04
3.372727E+03	1.680497E-02	4.969095E-04
3.381818E+03	1.703585E-02	5.030853E-04
3.390909E+03	1.727076E-02	5.093599E-04
3.400000E+03	1.750890E-02	5.157087E-04
3.409091E+03	1.775098E-02	5.221524E-04
3.418182E+03	1.799772E-02	5.287116E-04
3.427273E+03	1.824753E-02	5.353392E-04
3.436364E+03	1.850113E-02	5.420553E-04
3.445455E+03	1.875924E-02	5.488807E-04
3.454545E+03	1.902103E-02	5.557908E-04
3.463636E+03	1.928643E-02	5.627828E-04
3.472727E+03	1.955618E-02	5.698774E-04
3.481818E+03	1.982943E-02	5.770496E-04
3.490909E+03	2.010690E-02	5.843197E-04
3.500000E+03	2.038849E-02	5.916843E-04
3.509091E+03	2.067417E-02	5.991417E-04
3.518182E+03	2.096312E-02	6.066677E-04
3.527273E+03	2.125674E-02	6.143023E-04
3.536364E+03	2.155349E-02	6.220003E-04
3.545455E+03	2.185481E-02	6.298026E-04
3.554545E+03	2.215984E-02	6.376840E-04
3.563636E+03	2.246852E-02	6.456420E-04
3.572727E+03	2.278079E-02	6.536745E-04
3.581818E+03	2.309732E-02	6.617998E-04
3.590909E+03	2.341726E-02	6.699934E-04
3.600000E+03	2.374129E-02	6.782738E-04
3.609091E+03	2.406859E-02	6.866172E-04
3.618182E+03	2.439908E-02	6.950208E-04
3.627273E+03	2.473341E-02	7.035024E-04
3.636364E+03	2.507151E-02	7.120593E-04
3.645455E+03	2.541253E-02	7.206674E-04
3.654545E+03	2.575643E-02	7.293244E-04
3.663636E+03	2.610312E-02	7.380278E-04
3.672727E+03	2.645322E-02	7.467943E-04
3.681818E+03	2.680596E-02	7.556015E-04
3.690909E+03	2.716194E-02	7.644663E-04
3.700000E+03	2.751967E-02	7.733460E-04
3.709091E+03	2.788050E-02	7.822783E-04
3.718182E+03	2.824292E-02	7.912202E-04
3.727273E+03	2.860756E-02	8.001892E-04
3.736364E+03	2.897435E-02	8.091828E-04
3.745455E+03	2.934252E-02	8.181794E-04
3.754545E+03	2.971200E-02	8.271763E-04
3.763636E+03	3.008343E-02	8.361913E-04
3.772727E+03	3.045535E-02	8.451834E-04
3.781818E+03	3.082768E-02	8.541507E-04
3.790909E+03	3.120110E-02	8.631113E-04
3.800000E+03	3.157484E-02	8.720439E-04
3.809091E+03	3.194888E-02	8.809479E-04
3.818182E+03	3.232248E-02	8.898026E-04
3.827273E+03	3.269494E-02	8.985889E-04
3.836364E+03	3.306759E-02	9.073433E-04
3.845455E+03	3.343839E-02	9.160097E-04
3.854545E+03	3.380868E-02	9.246252E-04
3.863636E+03	3.417642E-02	9.331341E-04
3.872727E+03	3.454299E-02	9.415740E-04
3.881818E+03	3.490638E-02	9.498907E-04
3.890909E+03	3.526797E-02	9.581217E-04
3.900000E+03	3.562579E-02	9.662139E-04
3.909091E+03	3.598124E-02	9.742054E-04
3.918182E+03	3.633236E-02	9.820443E-04
3.927273E+03	3.667992E-02	9.897511E-04
3.936364E+03	3.702334E-02	9.973109E-04
3.945455E+03	3.736204E-02	1.004709E-03
3.954545E+03	3.769615E-02	1.011949E-03
3.963636E+03	3.802516E-02	1.019018E-03
3.972727E+03	3.834851E-02	1.025902E-03
3.981818E+03	3.866640E-02	1.032607E-03
3.990909E+03	3.897897E-02	1.039137E-03
4.000000E+03	3.928510E-02	1.045463E-03
4.009091E+03	3.958500E-02	1.051593E-03
4.018182E+03	3.987886E-02	1.057531E-03
4.027273E+03	4.016626E-02	1.063267E-03
4.036364E+03	4.044679E-02	1.068792E-03
4.045455E+03	4.072134E-02	1.074131E-03
4.054545E+03	4.098887E-02	1.079255E-03
4.063636E+03	4.124967E-02	1.084175E-03
4.072727E+03	4.150400E-02	1.088898E-03
4.081818E+03	4.175215E-02	1.093433E-03
4.090909E+03	4.199379E-02	1.097772E-03
4.100000E+03	4.222860E-02	1.101907E-03
4.109091E+03	4.245814E-02	1.105880E-03
4.118182E+03	4.268149E-02	1.109669E-03
4.127273E+03	4.289901E-02	1.113282E-03
4.136364E+03	4.311101E-02	1.116731E-03
4.145455E+03	4.331847E-02	1.120039E-03
4.154545E+03	4.352053E-02	1.123187E-03
4.163636E+03	4.371816E-02	1.126199E-03
4.172727E+03	4.391171E-02	1.129087E-03
4.181818E+03	4.410159E-02	1.131860E-03
4.190909E+03	4.428758E-02	1.134514E-03
4.200000E+03	4.447006E-02	1.137060E-03
4.209091E+03	4.465065E-02	1.139538E-03
4.218182E+03	4.482854E-02	1.141930E-03
4.227273E+03	4.500415E-02	1.144246E-03
4.236364E+03	4.517850E-02	1.146512E-03
4.245455E+03	4.535201E-02	1.148739E-03
4.254545E+03	4.552450E-02	1.150924E-03
4.263636E+03	4.569699E-02	1.153092E-03
4.272727E+03	4.586994E-02	1.155255E-03
4.281818E+03	4.604317E-02	1.157408E-03
4.290909E+03	4.621831E-02	1.159593E-03
4.300000E+03	4.639462E-02	1.161790E-03
4.309091E+03	4.657313E-02	1.164026E-03
4.318182E+03	4.675424E-02	1.166311E-03
4.327273E+03	4.693900E-02	1.168669E-03
4.336364E+03	4.712722E-02	1.171097E-03
4.345455E+03	4.731993E-02	1.173619E-03
4.354545E+03	4.751750E-02	1.176244E-03
4.363636E+03	4.771974E-02	1.178967E-03
4.372727E+03	4.792880E-02	1.181840E-03
4.381818E+03	4.814308E-02	1.184824E-03
4.390909E+03	4.836431E-02	1.187960E-03
4.400000E+03	4.859191E-02	1.191233E-03
4.409091E+03	4.882636E-02	1.194654E-03
4.418182E+03	4.906703E-02	1.198207E-03
4.427273E+03	4.931499E-02	1.201918E-03
4.436364E+03	4.956947E-02	1.205766E-03
4.445455E+03	4.983077E-02	1.209759E-03
4.454545E+03	5.009858E-02	1.213888E-03
4.463636E+03	5.037317E-02	1.218159E-03
4.472727E+03	5.065479E-02	1.222576E-03
4.481818E+03	5.094191E-02	1.227103E-03
4.490909E+03	5.123539E-02	1.231758E-03
4.500000E+03	5.153549E-02	1.236548E-03
4.509091E+03	5.184065E-02	1.241434E-03
4.518182E+03	5.215234E-02	1.246451E-03
4.527273E+03	5.246904E-02	1.251561E-03
4.536364E+03	5.279161E-02	1.256785E-03
4.545455E+03	5.311975E-02	1.262113E-03
4.554545E+03	5.345250E-02	1.267523E-03
4.563636E+03	5.379017E-02	1.273022E-03
4.572727E+03	5.413310E-02	1.278615E-03
4.581818E+03	5.448100E-02	1.284297E-03
4.590909E+03	5.483295E-02	1.290045E-03
4.600000E+03	5.518931E-02	1.295866E-03
4.609091E+03	5.554982E-02	1.301753E-03
4.618182E+03	5.591487E-02	1.307716E-03
4.627273E+03	5.628359E-02	1.313733E-03
4.636364E+03	5.665638E-02	1.319813E-03
4.645455E+03	5.703303E-02	1.325951E-03
4.654545E+03	5.741335E-02	1.332142E-03
4.663636E+03	5.779648E-02	1.338365E-03
4.672727E+03	5.818356E-02	1.344645E-03
4.681818E+03	5.857308E-02	1.350949E-03
4.690909E+03	5.896623E-02	1.357303E-03
4.700000E+03	5.936216E-02	1.363686E-03
4.709091E+03	5.976006E-02	1.370081E-03
4.718182E+03	6.016117E-02	1.376514E-03
4.727273E+03	6.056533E-02	1.382982E-03
4.736364E+03	6.097109E-02	1.389452E-03
4.745455E+03	6.137902E-02	1.395935E-03
4.754545E+03	6.178829E-02	1.402414E-03
4.763636E+03	6.220022E-02	1.408918E-03
4.772727E+03	6.261331E-02	1.415413E-03
4.781818E+03	6.302820E-02	1.421912E-03
4.790909E+03	6.344406E-02	1.428397E-03
4.800000E+03	6.386084E-02	1.434867E-03
4.809091E+03	6.427846E-02	1.441320E-03
4.818182E+03	6.469609E-02	1.447738E-03
4.827273E+03	6.511439E-02	1.454134E-03
4.836364E+03	6.553256E-02	1.460492E-03
4.845455E+03	6.595054E-02	1.466810E-03
4.854545E+03	6.636822E-02	1.473085E-03
4.863636E+03	6.678405E-02	1.479284E-03
4.872727E+03	6.719941E-02	1.485437E-03
4.881818E+03	6.761273E-02	1.491510E-03
4.890909E+03	6.802393E-02	1.497502E-03
4.900000E+03	6.843284E-02	1.503408E-03
4.909091E+03	6.883865E-02	1.509213E-03
4.918182E+03	6.924195E-02	1.514929E-03
4.927273E+03	6.964111E-02	1.520521E-03
4.936364E+03	7.003675E-02	1.526004E-03
4.945455E+03	7.042795E-02	1.531357E-03
4.954545E+03	7.081454E-02	1.536579E-03
4.963636E+03	7.119638E-02	1.541667E-03
4.972727E+03	7.157326E-02	1.546617E-03
4.981818E+03	7.194502E-02	1.551427E-03
4.990909E+03	7.231067E-02	1.556076E-03
5.000000E+03	7.267158E-02	1.560594E-03
5.009091E+03	7.302599E-02	1.564946E-03
5.018182E+03	7.337444E-02	1.569143E-03
5.027273E+03	7.371754E-02	1.573200E-03
5.036364E+03	7.405424E-02	1.577094E-03
5.045455E+03	7.438513E-02	1.580841E-03
5.054545E+03	7.470994E-02	1.584435E-03
5.063636E+03	7.502929E-02	1.587891E-03
5.072727E+03	7.534293E-02	1.591203E-03
5.081818E+03	7.565142E-02	1.594386E-03
5.090909E+03	7.595368E-02	1.597417E-03
5.100000E+03	7.625113E-02	1.600328E-03
5.109091E+03	7.654268E-02	1.603095E-03
5.118182E+03	7.682891E-02	1.605734E-03
5.127273E+03	7.711123E-02	1.608274E-03
5.136364E+03	7.738772E-02	1.610677E-03
5.145455E+03	7.765896E-02	1.612954E-03
5.154545E+03	7.792550E-02	1.615120E-03
5.163636E+03	7.818712E-02	1.617170E-03
5.172727E+03	7.844355E-02	1.619100E-03
5.181818E+03	7.869538E-02	1.620924E-03
5.190909E+03	7.894149E-02	1.622618E-03
5.200000E+03	7.918334E-02	1.624216E-03
5.209091E+03	7.941894E-02	1.625676E-03
5.218182E+03	7.964977E-02	1.627030E-03
5.227273E+03	7.987560E-02	1.628275E-03
5.236364E+03	8.009528E-02	1.629388E-03
5.245455E+03	8.031033E-02	1.630403E-03
5.254545E+03	8.051874E-02	1.631278E-03
5.263636E+03	8.072116E-02	1.632030E-03
5.272727E+03	8.091736E-02	1.632653E-03
5.281818E+03	8.110799E-02	1.633164E-03
5.290909E+03	8.129106E-02	1.633522E-03
5.300000E+03	8.146815E-02	1.633763E-03
5.309091E+03	8.163817E-02	1.633864E-03
5.318182E+03	8.180093E-02	1.633824E-03
5.327273E+03	8.195623E-02	1.633640E-03
5.336364E+03	8.210393E-02	1.633312E-03
5.345455E+03	8.224386E-02	1.632836E-03
5.354545E+03	8.237590E-02	1.632213E-03
5.363636E+03	8.249898E-02	1.631424E-03
5.372727E+03	8.261486E-02	1.630503E-03
5.381818E+03	8.272160E-02	1.629416E-03
5.390909E+03	8.281910E-02	1.628161E-03
5.400000E+03	8.290733E-02	1.626741E-03
5.409091E+03	8.298718E-02	1.625173E-03
5.418182E+03	8.305677E-02	1.623423E-03
5.427273E+03	8.311795E-02	1.621530E-03
5.436364E+03	8.316798E-02	1.619441E-03
5.445455E+03	8.320970E-02	1.617214E-03
5.454545E+03	8.324038E-02	1.614797E-03
5.463636E+03	8.326103E-02	1.612212E-03
5.472727E+03	8.327178E-02	1.609463E-03
5.481818E+03	8.327185E-02	1.606537E-03
5.490909E+03	8.326234E-02	1.603457E-03
5.500000E+03	8.324251E-02	1.600211E-03
5.509091E+03	8.321163E-02	1.596786E-03
5.518182E+03	8.317183E-02	1.593225E-03
5.527273E+03	8.312055E-02	1.589481E-03
5.536364E+03	8.305998E-02	1.585598E-03
5.545455E+03	8.298951E-02	1.581565E-03
5.554545E+03	8.290945E-02	1.577391E-03
5.563636E+03	8.281925E-02	1.573065E-03
5.572727E+03	8.272023E-02	1.568616E-03
5.581818E+03	8.261187E-02	1.564034E-03
5.590909E+03	8.249459E-02	1.559330E-03
5.600000E+03	8.236980E-02	1.554531E-03
5.609091E+03	8.223607E-02	1.549612E-03
5.618182E+03	8.209480E-02	1.544600E-03
5.627273E+03	8.194651E-02	1.539507E-03
5.636364E+03	8.179170E-02	1.534343E-03
5.645455E+03	8.163086E-02	1.529118E-03
5.654545E+03	8.146362E-02	1.523827E-03
5.663636E+03	8.129133E-02	1.518495E-03
5.672727E+03	8.111436E-02	1.513130E-03
5.681818E+03	8.093213E-02	1.507721E-03
5.690909E+03	8.074597E-02	1.502295E-03
5.700000E+03	8.055532E-02	1.496840E-03
5.709091E+03	8.036244E-02	1.491401E-03
5.718182E+03	8.016588E-02	1.485949E-03
5.727273E+03	7.996697E-02	1.480511E-03
5.736364E+03	7.976615E-02	1.475094E-03
5.745455E+03	7.956291E-02	1.469690E-03
5.754545E+03	7.935957E-02	1.464342E-03
5.763636E+03	7.915564E-02	1.459040E-03
5.772727E+03	7.895157E-02	1.453794E-03
5.781818E+03	7.874879E-02	1.448630E-03
5.790909E+03	7.854586E-02	1.443521E-03
5.800000E+03	7.834511E-02	1.438511E-03
5.809091E+03	7.814703E-02	1.433609E-03
5.818182E+03	7.795017E-02	1.428787E-03
5.827273E+03	7.775780E-02	1.424106E-03
5.836364E+03	7.756844E-02	1.419538E-03
5.845455E+03	7.738347E-02	1.415107E-03
5.854545E+03	7.720326E-02	1.410819E-03
5.863636E+03	7.702793E-02	1.406674E-03
5.872727E+03	7.685717E-02	1.402666E-03
5.881818E+03	7.669062E-02	1.398787E-03
5.890909E+03	7.652883E-02	1.395046E-03
5.900000E+03	7.637050E-02	1.391418E-03
5.909091E+03	7.621525E-02	1.387895E-03
5.918182E+03	7.606451E-02	1.384503E-03
5.927273E+03	7.591604E-02	1.381199E-03
5.936364E+03	7.577130E-02	1.378009E-03
5.945455E+03	7.562803E-02	1.374892E-03
5.954545E+03	7.548864E-02	1.371889E-03
5.963636E+03	7.535089E-02	1.368960E-03
5.972727E+03	7.521534E-02	1.366114E-03
5.981818E+03	7.508260E-02	1.363360E-03
5.990909E+03	7.495135E-02	1.360675E-03
6.000000E+03	7.482126E-02	1.358050E-03
6.009091E+03	7.469391E-02	1.355516E-03
6.018182E+03	7.456804E-02	1.353046E-03
6.027273E+03	7.444335E-02	1.350636E-03
6.036364E+03	7.432051E-02	1.348297E-03
6.045455E+03	7.419925E-02	1.346022E-03
6.054545E+03	7.407928E-02	1.343808E-03
6.063636E+03	7.396136E-02	1.341665E-03
6.072727E+03	7.384426E-02	1.339571E-03
6.081818E+03	7.372871E-02	1.337539E-03
6.090909E+03	7.361450E-02	1.335565E-03
6.100000E+03	7.350143E-02	1.333643E-03
6.109091E+03	7.339024E-02	1.331788E-03
6.118182E+03	7.328075E-02	1.329994E-03
6.127273E+03	7.317277E-02	1.328259E-03
6.136364E+03	7.306520E-02	1.326561E-03
6.145455E+03	7.295976E-02	1.324931E-03
6.154545E+03	7.285535E-02	1.323349E-03
6.163636E+03	7.275277E-02	1.321828E-03
6.172727E+03	7.265189E-02	1.320366E-03
6.181818E+03	7.255160E-02	1.318942E-03
6.190909E+03	7.245369E-02	1.317588E-03
6.200000E+03	7.235610E-02	1.316267E-03
6.209091E+03	7.226069E-02	1.315011E-03
6.218182E+03	7.216632E-02	1.313800E-03
6.227273E+03	7.207290E-02	1.312631E-03
6.236364E+03	7.198133E-02	1.311521E-03
6.245455E+03	7.189048E-02	1.310448E-03
6.254545E+03	7.180127E-02	1.309429E-03
6.263636E+03	7.171361E-02	1.308462E-03
6.272727E+03	7.162645E-02	1.307527E-03
6.281818E+03	7.154064E-02	1.306640E-03
6.290909E+03	7.145615E-02	1.305800E-03
6.300000E+03	7.137291E-02	1.305005E-03
6.309091E+03	7.128986E-02	1.304236E-03
6.318182E+03	7.120793E-02	1.303509E-03
6.327273E+03	7.112805E-02	1.302841E-03
6.336364E+03	7.104720E-02	1.302176E-03
6.345455E+03	7.096833E-02	1.301569E-03
6.354545E+03	7.089038E-02	1.301000E-03
6.363636E+03	7.081234E-02	1.300449E-03
6.372727E+03	7.073518E-02	1.299936E-03
6.381818E+03	7.065886E-02	1.299458E-03
6.390909E+03	7.058238E-02	1.298997E-03
6.400000E+03	7.050672E-02	1.298571E-03
6.409091E+03	7.043088E-02	1.298162E-03
6.418182E+03	7.035486E-02	1.297770E-03
6.427273E+03	7.027967E-02	1.297412E-03
6.436364E+03	7.020431E-02	1.297070E-03
6.445455E+03	7.012977E-02	1.296763E-03
6.454545E+03	7.005414E-02	1.296455E-03
6.463636E+03	6.997842E-02	1.296165E-03
6.472727E+03	6.990166E-02	1.295874E-03
6.481818E+03	6.982587E-02	1.295621E-03
6.490909E+03	6.974815E-02	1.295350E-03
6.500000E+03	6.967053E-02	1.295101E-03
6.509091E+03	6.959208E-02	1.294854E-03
6.518182E+03	6.951286E-02	1.294612E-03
6.527273E+03	6.943300E-02	1.294377E-03
6.536364E+03	6.935155E-02	1.294131E-03
6.545455E+03	6.926865E-02	1.293877E-03
6.554545E+03	6.918439E-02	1.293616E-03
6.563636E+03	6.909984E-02	1.293368E-03
6.572727E+03	6.901222E-02	1.293081E-03
6.581818E+03	6.892363E-02	1.292794E-03
6.590909E+03	6.883416E-02	1.292510E-03
6.600000E+03	6.874204E-02	1.292194E-03
6.609091E+03	6.864744E-02	1.291850E-03
6.618182E+03	6.855150E-02	1.291499E-03
6.627273E+03	6.845342E-02	1.291127E-03
6.636364E+03	6.835245E-02	1.290718E-03
6.645455E+03	6.824974E-02	1.290295E-03
6.654545E+03	6.814454E-02	1.289844E-03
6.663636E+03	6.803707E-02	1.289367E-03
6.672727E+03	6.792758E-02	1.288871E-03
6.681818E+03	6.781632E-02	1.288360E-03
6.690909E+03	6.770163E-02	1.287802E-03
6.700000E+03	6.758471E-02	1.287220E-03
6.709091E+03	6.746685E-02	1.286638E-03
6.718182E+03	6.734543E-02	1.286007E-03
6.727273E+03	6.722365E-02	1.285387E-03
6.736364E+03	6.709896E-02	1.284730E-03
6.745455E+03	6.697358E-02	1.284078E-03
6.754545E+03	6.684783E-02	1.283438E-03
6.763636E+03	6.672015E-02	1.282780E-03
6.772727E+03	6.659187E-02	1.282128E-03
6.781818E+03	6.646425E-02	1.281508E-03
6.790909E+03	6.633576E-02	1.280890E-03
6.800000E+03	6.620866E-02	1.280318E-03
6.809091E+03	6.608327E-02	1.279798E-03
6.818182E+03	6.595903E-02	1.279320E-03
6.827273E+03	6.583626E-02	1.278891E-03
6.836364E+03	6.571622E-02	1.278534E-03
6.845455E+03	6.559925E-02	1.278257E-03
6.854545E+03	6.548565E-02	1.278065E-03
6.863636E+03	6.537572E-02	1.277964E-03
6.872727E+03	6.526941E-02	1.277953E-03
6.881818E+03	6.516734E-02	1.278043E-03
6.890909E+03	6.506918E-02	1.278227E-03
6.900000E+03	6.497367E-02	1.278481E-03
6.909091E+03	6.488140E-02	1.278816E-03
6.918182E+03	6.479295E-02	1.279243E-03
6.927273E+03	6.470705E-02	1.279738E-03
6.936364E+03	6.462426E-02	1.280310E-03
6.945455E+03	6.454333E-02	1.280934E-03
6.954545E+03	6.446390E-02	1.281604E-03
6.963636E+03	6.438753E-02	1.282350E-03
6.972727E+03	6.431295E-02	1.283145E-03
6.981818E+03	6.423892E-02	1.283967E-03
6.990909E+03	6.416700E-02	1.284844E-03
7.000000E+03	6.409601E-02	1.285753E-03
7.009091E+03	6.402562E-02	1.286687E-03
7.018182E+03	6.395559E-02	1.287642E-03
7.027273E+03	6.388570E-02	1.288611E-03
7.036364E+03	6.381660E-02	1.289608E-03
7.045455E+03	6.374718E-02	1.290609E-03
7.054545E+03	6.367719E-02	1.291610E-03
