#wls	flux	fluxerr
1.454545E+03	2.606683E-03	3.001960E-04
1.490909E+03	2.656832E-03	3.055324E-04
1.527273E+03	2.702521E-03	3.103277E-04
1.563636E+03	2.742829E-03	3.144781E-04
1.600000E+03	2.777488E-03	3.179547E-04
1.636364E+03	2.804658E-03	3.205492E-04
1.672727E+03	2.821953E-03	3.219929E-04
1.709091E+03	2.826572E-03	3.219719E-04
1.745455E+03	2.816150E-03	3.202239E-04
1.781818E+03	2.788334E-03	3.164910E-04
1.818182E+03	2.744650E-03	3.109566E-04
1.854545E+03	2.691906E-03	3.044009E-04
1.890909E+03	2.644774E-03	2.984862E-04
1.927273E+03	2.623895E-03	2.955342E-04
1.963636E+03	2.648205E-03	2.976553E-04
2.000000E+03	2.726230E-03	3.057732E-04
2.036364E+03	2.851870E-03	3.191652E-04
2.072727E+03	3.011673E-03	3.362910E-04
2.109091E+03	3.189796E-03	3.553566E-04
2.145455E+03	3.374503E-03	3.750392E-04
2.181818E+03	3.559307E-03	3.946102E-04
2.218182E+03	3.740989E-03	4.137094E-04
2.254545E+03	3.918673E-03	4.322378E-04
2.290909E+03	4.093305E-03	4.502990E-04
2.327273E+03	4.265839E-03	4.679955E-04
2.363636E+03	4.437385E-03	4.854460E-04
2.400000E+03	4.609027E-03	5.027651E-04
2.436364E+03	4.783042E-03	5.201954E-04
2.472727E+03	4.959700E-03	5.377589E-04
2.509091E+03	5.141105E-03	5.556752E-04
2.545455E+03	5.326608E-03	5.738640E-04
2.581818E+03	5.518142E-03	5.925228E-04
2.618182E+03	5.716936E-03	6.117706E-04
2.654545E+03	5.922758E-03	6.315685E-04
2.690909E+03	6.137445E-03	6.520967E-04
2.727273E+03	6.361389E-03	6.733796E-04
2.736364E+03	6.418701E-03	6.788033E-04
2.745455E+03	6.476849E-03	6.843000E-04
2.754545E+03	6.535840E-03	6.898699E-04
2.763636E+03	6.595008E-03	6.954426E-04
2.772727E+03	6.656107E-03	7.012025E-04
2.781818E+03	6.717924E-03	7.070213E-04
2.790909E+03	6.780379E-03	7.128902E-04
2.800000E+03	6.844908E-03	7.189598E-04
2.809091E+03	6.909945E-03	7.250648E-04
2.818182E+03	6.976946E-03	7.313577E-04
2.827273E+03	7.044346E-03	7.376738E-04
2.836364E+03	7.112091E-03	7.440071E-04
2.845455E+03	7.181666E-03	7.505125E-04
2.854545E+03	7.252273E-03	7.571061E-04
2.863636E+03	7.323105E-03	7.637032E-04
2.872727E+03	7.394899E-03	7.703804E-04
2.881818E+03	7.468408E-03	7.772153E-04
2.890909E+03	7.542054E-03	7.840434E-04
2.900000E+03	7.616592E-03	7.909428E-04
2.909091E+03	7.692002E-03	7.979110E-04
2.918182E+03	7.768271E-03	8.049462E-04
2.927273E+03	7.844593E-03	8.119644E-04
2.936364E+03	7.922537E-03	8.191277E-04
2.945455E+03	8.001302E-03	8.263527E-04
2.954545E+03	8.080883E-03	8.336383E-04
2.963636E+03	8.160476E-03	8.409012E-04
2.972727E+03	8.241671E-03	8.483049E-04
2.981818E+03	8.323668E-03	8.557664E-04
2.990909E+03	8.405664E-03	8.632027E-04
3.000000E+03	8.489264E-03	8.707784E-04
3.009091E+03	8.573667E-03	8.784106E-04
3.018182E+03	8.658876E-03	8.860989E-04
3.027273E+03	8.744895E-03	8.938435E-04
3.036364E+03	8.831726E-03	9.016439E-04
3.045455E+03	8.919377E-03	9.095006E-04
3.054545E+03	9.007853E-03	9.174135E-04
3.063636E+03	9.097161E-03	9.253826E-04
3.072727E+03	9.188132E-03	9.334921E-04
3.081818E+03	9.279130E-03	9.415751E-04
3.090909E+03	9.371811E-03	9.497990E-04
3.100000E+03	9.465362E-03	9.580808E-04
3.109091E+03	9.559794E-03	9.664211E-04
3.118182E+03	9.655115E-03	9.748200E-04
3.127273E+03	9.752172E-03	9.833622E-04
3.136364E+03	9.849309E-03	9.918804E-04
3.145455E+03	9.948209E-03	1.000543E-03
3.154545E+03	1.004805E-02	1.009267E-03
3.163636E+03	1.014884E-02	1.018053E-03
3.172727E+03	1.025144E-02	1.026986E-03
3.181818E+03	1.035502E-02	1.035981E-03
3.190909E+03	1.045959E-02	1.045041E-03
3.200000E+03	1.056517E-02	1.054165E-03
3.209091E+03	1.067178E-02	1.063354E-03
3.218182E+03	1.078027E-02	1.072694E-03
3.227273E+03	1.088981E-02	1.082101E-03
3.236364E+03	1.100128E-02	1.091659E-03
3.245455E+03	1.111297E-02	1.101202E-03
3.254545E+03	1.122662E-02	1.110898E-03
3.263636E+03	1.134225E-02	1.120748E-03
3.272727E+03	1.145815E-02	1.130584E-03
3.281818E+03	1.157606E-02	1.140576E-03
3.290909E+03	1.169599E-02	1.150726E-03
3.300000E+03	1.181625E-02	1.160863E-03
3.309091E+03	1.193857E-02	1.171158E-03
3.318182E+03	1.206298E-02	1.181613E-03
3.327273E+03	1.218863E-02	1.192144E-03
3.336364E+03	1.231553E-02	1.202750E-03
3.345455E+03	1.244370E-02	1.213433E-03
3.354545E+03	1.257404E-02	1.224279E-03
3.363636E+03	1.270568E-02	1.235203E-03
3.372727E+03	1.283953E-02	1.246291E-03
3.381818E+03	1.297473E-02	1.257460E-03
3.390909E+03	1.311130E-02	1.268708E-03
3.400000E+03	1.325013E-02	1.280124E-03
3.409091E+03	1.339036E-02	1.291621E-03
3.418182E+03	1.353203E-02	1.303202E-03
3.427273E+03	1.367602E-02	1.314952E-03
3.436364E+03	1.382148E-02	1.326786E-03
3.445455E+03	1.396931E-02	1.338791E-03
3.454545E+03	1.411774E-02	1.350795E-03
3.463636E+03	1.426949E-02	1.363057E-03
3.472727E+03	1.442188E-02	1.375320E-03
3.481818E+03	1.457673E-02	1.387756E-03
3.490909E+03	1.473315E-02	1.400279E-03
3.500000E+03	1.489206E-02	1.412975E-03
3.509091E+03	1.505259E-02	1.425760E-03
3.518182E+03	1.521473E-02	1.438633E-03
3.527273E+03	1.537853E-02	1.451596E-03
3.536364E+03	1.554488E-02	1.464731E-03
3.545455E+03	1.571289E-02	1.477954E-03
3.554545E+03	1.588258E-02	1.491266E-03
3.563636E+03	1.605397E-02	1.504665E-03
3.572727E+03	1.622796E-02	1.518236E-03
3.581818E+03	1.640365E-02	1.531894E-03
3.590909E+03	1.658105E-02	1.545635E-03
3.600000E+03	1.676015E-02	1.559460E-03
3.609091E+03	1.694095E-02	1.573366E-03
3.618182E+03	1.712439E-02	1.587440E-03
3.627273E+03	1.730859E-02	1.601504E-03
3.636364E+03	1.749541E-02	1.615731E-03
3.645455E+03	1.768390E-02	1.630030E-03
3.654545E+03	1.787313E-02	1.644314E-03
3.663636E+03	1.806491E-02	1.658751E-03
3.672727E+03	1.825831E-02	1.673250E-03
3.681818E+03	1.845236E-02	1.687723E-03
3.690909E+03	1.864890E-02	1.702336E-03
3.700000E+03	1.884602E-02	1.716914E-03
3.709091E+03	1.904461E-02	1.731537E-03
3.718182E+03	1.924463E-02	1.746199E-03
3.727273E+03	1.944603E-02	1.760896E-03
3.736364E+03	1.964783E-02	1.775535E-03
3.745455E+03	1.985182E-02	1.790279E-03
3.754545E+03	2.005607E-02	1.804952E-03
3.763636E+03	2.026051E-02	1.819547E-03
3.772727E+03	2.046603E-02	1.834142E-03
3.781818E+03	2.067252E-02	1.848727E-03
3.790909E+03	2.087896E-02	1.863210E-03
3.800000E+03	2.108625E-02	1.877670E-03
3.809091E+03	2.129331E-02	1.892010E-03
3.818182E+03	2.150008E-02	1.906223E-03
3.827273E+03	2.170742E-02	1.920387E-03
3.836364E+03	2.191427E-02	1.934406E-03
3.845455E+03	2.212152E-02	1.948358E-03
3.854545E+03	2.232714E-02	1.962065E-03
3.863636E+03	2.253298E-02	1.975687E-03
3.872727E+03	2.273798E-02	1.989133E-03
3.881818E+03	2.294208E-02	2.002396E-03
3.890909E+03	2.314519E-02	2.015469E-03
3.900000E+03	2.334723E-02	2.028345E-03
3.909091E+03	2.354815E-02	2.041019E-03
3.918182E+03	2.374789E-02	2.053487E-03
3.927273E+03	2.394640E-02	2.065743E-03
3.936364E+03	2.414266E-02	2.077702E-03
3.945455E+03	2.433765E-02	2.089446E-03
3.954545E+03	2.453132E-02	2.100973E-03
3.963636E+03	2.472370E-02	2.112285E-03
3.972727E+03	2.491380E-02	2.123298E-03
3.981818E+03	2.510165E-02	2.134014E-03
3.990909E+03	2.528927E-02	2.144608E-03
4.000000E+03	2.547375E-02	2.154831E-03
4.009091E+03	2.565715E-02	2.164859E-03
4.018182E+03	2.583955E-02	2.174700E-03
4.027273E+03	2.601910E-02	2.184197E-03
4.036364E+03	2.619790E-02	2.193527E-03
4.045455E+03	2.637606E-02	2.202700E-03
4.054545E+03	2.655179E-02	2.211568E-03
4.063636E+03	2.672624E-02	2.220226E-03
4.072727E+03	2.690057E-02	2.228770E-03
4.081818E+03	2.707403E-02	2.237138E-03
4.090909E+03	2.724581E-02	2.245264E-03
4.100000E+03	2.741813E-02	2.253331E-03
4.109091E+03	2.758925E-02	2.261195E-03
4.118182E+03	2.776140E-02	2.269038E-03
4.127273E+03	2.793282E-02	2.276717E-03
4.136364E+03	2.810480E-02	2.284335E-03
4.145455E+03	2.827760E-02	2.291913E-03
4.154545E+03	2.845048E-02	2.299391E-03
4.163636E+03	2.862572E-02	2.306951E-03
4.172727E+03	2.880157E-02	2.314450E-03
4.181818E+03	2.897833E-02	2.321911E-03
4.190909E+03	2.915724E-02	2.329434E-03
4.200000E+03	2.933855E-02	2.337035E-03
4.209091E+03	2.952152E-02	2.344653E-03
4.218182E+03	2.970740E-02	2.352385E-03
4.227273E+03	2.989541E-02	2.360169E-03
4.236364E+03	3.008673E-02	2.368094E-03
4.245455E+03	3.028060E-02	2.376097E-03
4.254545E+03	3.047818E-02	2.384267E-03
4.263636E+03	3.067862E-02	2.392536E-03
4.272727E+03	3.088307E-02	2.400989E-03
4.281818E+03	3.108964E-02	2.409476E-03
4.290909E+03	3.130039E-02	2.418155E-03
4.300000E+03	3.151543E-02	2.427029E-03
4.309091E+03	3.173376E-02	2.436020E-03
4.318182E+03	3.195541E-02	2.445126E-03
4.327273E+03	3.218029E-02	2.454337E-03
4.336364E+03	3.240941E-02	2.463727E-03
4.345455E+03	3.264163E-02	2.473206E-03
4.354545E+03	3.287683E-02	2.482762E-03
4.363636E+03	3.311484E-02	2.492378E-03
4.372727E+03	3.335650E-02	2.502116E-03
4.381818E+03	3.360053E-02	2.511877E-03
4.390909E+03	3.384666E-02	2.521637E-03
4.400000E+03	3.409458E-02	2.531373E-03
4.409091E+03	3.434500E-02	2.541133E-03
4.418182E+03	3.459650E-02	2.550811E-03
4.427273E+03	3.484867E-02	2.560376E-03
4.436364E+03	3.510104E-02	2.569791E-03
4.445455E+03	3.535425E-02	2.579103E-03
4.454545E+03	3.560562E-02	2.588117E-03
4.463636E+03	3.585678E-02	2.596949E-03
4.472727E+03	3.610611E-02	2.605485E-03
4.481818E+03	3.635418E-02	2.613765E-03
4.490909E+03	3.659820E-02	2.621590E-03
4.500000E+03	3.683981E-02	2.629079E-03
4.509091E+03	3.707733E-02	2.636116E-03
4.518182E+03	3.731129E-02	2.642740E-03
4.527273E+03	3.753896E-02	2.648760E-03
4.536364E+03	3.776197E-02	2.654296E-03
4.545455E+03	3.797874E-02	2.659241E-03
4.554545E+03	3.818988E-02	2.663641E-03
4.563636E+03	3.839270E-02	2.667314E-03
4.572727E+03	3.858903E-02	2.670394E-03
4.581818E+03	3.877853E-02	2.672862E-03
4.590909E+03	3.895860E-02	2.674544E-03
4.600000E+03	3.913126E-02	2.675586E-03
4.609091E+03	3.929518E-02	2.675904E-03
4.618182E+03	3.945134E-02	2.675571E-03
4.627273E+03	3.959854E-02	2.674512E-03
4.636364E+03	3.973675E-02	2.672732E-03
4.645455E+03	3.986719E-02	2.670323E-03
4.654545E+03	3.998772E-02	2.667145E-03
4.663636E+03	4.010194E-02	2.663447E-03
4.672727E+03	4.020669E-02	2.659026E-03
4.681818E+03	4.030573E-02	2.654137E-03
4.690909E+03	4.039601E-02	2.648585E-03
4.700000E+03	4.048031E-02	2.642559E-03
4.709091E+03	4.055796E-02	2.636021E-03
4.718182E+03	4.063068E-02	2.629089E-03
4.727273E+03	4.069794E-02	2.621731E-03
4.736364E+03	4.076155E-02	2.614071E-03
4.745455E+03	4.082104E-02	2.606080E-03
4.754545E+03	4.087716E-02	2.597810E-03
4.763636E+03	4.093177E-02	2.589384E-03
4.772727E+03	4.098567E-02	2.580852E-03
4.781818E+03	4.103848E-02	2.572191E-03
4.790909E+03	4.109218E-02	2.563527E-03
4.800000E+03	4.114640E-02	2.554836E-03
4.809091E+03	4.120194E-02	2.546168E-03
4.818182E+03	4.126072E-02	2.537640E-03
4.827273E+03	4.132356E-02	2.529300E-03
4.836364E+03	4.139004E-02	2.521120E-03
4.845455E+03	4.146206E-02	2.513210E-03
4.854545E+03	4.153920E-02	2.505543E-03
4.863636E+03	4.162327E-02	2.498223E-03
4.872727E+03	4.171494E-02	2.491284E-03
4.881818E+03	4.181368E-02	2.484688E-03
4.890909E+03	4.192007E-02	2.478465E-03
4.900000E+03	4.203697E-02	2.472774E-03
4.909091E+03	4.216254E-02	2.467503E-03
4.918182E+03	4.229729E-02	2.462670E-03
4.927273E+03	4.244392E-02	2.458427E-03
4.936364E+03	4.260049E-02	2.454652E-03
4.945455E+03	4.276731E-02	2.451353E-03
4.954545E+03	4.294704E-02	2.448674E-03
4.963636E+03	4.313753E-02	2.446483E-03
4.972727E+03	4.333899E-02	2.444782E-03
4.981818E+03	4.355393E-02	2.443703E-03
4.990909E+03	4.378009E-02	2.443108E-03
5.000000E+03	4.401869E-02	2.443058E-03
5.009091E+03	4.426978E-02	2.443543E-03
5.018182E+03	4.453332E-02	2.444552E-03
5.027273E+03	4.480803E-02	2.446003E-03
5.036364E+03	4.509502E-02	2.447951E-03
5.045455E+03	4.539413E-02	2.450374E-03
5.054545E+03	4.570515E-02	2.453254E-03
5.063636E+03	4.602790E-02	2.456570E-03
5.072727E+03	4.636083E-02	2.460231E-03
5.081818E+03	4.670613E-02	2.464347E-03
5.090909E+03	4.706095E-02	2.468758E-03
5.100000E+03	4.742616E-02	2.473501E-03
5.109091E+03	4.780134E-02	2.478548E-03
5.118182E+03	4.818733E-02	2.483937E-03
5.127273E+03	4.858105E-02	2.489502E-03
5.136364E+03	4.898326E-02	2.495275E-03
5.145455E+03	4.939338E-02	2.501225E-03
5.154545E+03	4.981085E-02	2.507317E-03
5.163636E+03	5.023498E-02	2.513514E-03
5.172727E+03	5.066515E-02	2.519782E-03
5.181818E+03	5.110062E-02	2.526083E-03
5.190909E+03	5.154068E-02	2.532380E-03
5.200000E+03	5.198596E-02	2.538703E-03
5.209091E+03	5.243286E-02	2.544878E-03
5.218182E+03	5.288340E-02	2.551003E-03
5.227273E+03	5.333386E-02	2.556903E-03
5.236364E+03	5.378624E-02	2.562677E-03
5.245455E+03	5.423824E-02	2.568219E-03
5.254545E+03	5.468889E-02	2.573489E-03
5.263636E+03	5.513731E-02	2.578451E-03
5.272727E+03	5.558405E-02	2.583140E-03
5.281818E+03	5.602666E-02	2.587449E-03
5.290909E+03	5.646417E-02	2.591343E-03
5.300000E+03	5.689560E-02	2.594787E-03
5.309091E+03	5.732001E-02	2.597751E-03
5.318182E+03	5.773799E-02	2.600274E-03
5.327273E+03	5.814705E-02	2.602257E-03
5.336364E+03	5.854624E-02	2.603672E-03
5.345455E+03	5.893622E-02	2.604564E-03
5.354545E+03	5.931453E-02	2.604840E-03
5.363636E+03	5.968028E-02	2.604478E-03
5.372727E+03	6.003426E-02	2.603532E-03
5.381818E+03	6.037405E-02	2.601914E-03
5.390909E+03	6.069887E-02	2.599611E-03
5.400000E+03	6.100965E-02	2.596683E-03
5.409091E+03	6.130408E-02	2.593052E-03
5.418182E+03	6.158321E-02	2.588784E-03
5.427273E+03	6.184480E-02	2.583806E-03
5.436364E+03	6.208832E-02	2.578120E-03
5.445455E+03	6.231504E-02	2.571800E-03
5.454545E+03	6.252286E-02	2.564782E-03
5.463636E+03	6.271320E-02	2.557147E-03
5.472727E+03	6.288407E-02	2.548838E-03
5.481818E+03	6.303706E-02	2.539942E-03
5.490909E+03	6.317027E-02	2.530405E-03
5.500000E+03	6.328545E-02	2.520321E-03
5.509091E+03	6.338086E-02	2.509642E-03
5.518182E+03	6.345833E-02	2.498464E-03
5.527273E+03	6.351629E-02	2.486746E-03
5.536364E+03	6.355670E-02	2.474588E-03
5.545455E+03	6.357811E-02	2.461954E-03
5.554545E+03	6.358260E-02	2.448944E-03
5.563636E+03	6.357062E-02	2.435597E-03
5.572727E+03	6.354080E-02	2.421878E-03
5.581818E+03	6.349365E-02	2.407826E-03
5.590909E+03	6.343332E-02	2.393617E-03
5.600000E+03	6.335500E-02	2.379085E-03
5.609091E+03	6.326468E-02	2.364472E-03
5.618182E+03	6.315945E-02	2.349684E-03
5.627273E+03	6.304179E-02	2.334829E-03
5.636364E+03	6.291059E-02	2.319878E-03
5.645455E+03	6.276842E-02	2.304940E-03
5.654545E+03	6.261601E-02	2.290053E-03
5.663636E+03	6.245238E-02	2.275191E-03
5.672727E+03	6.228014E-02	2.260456E-03
5.681818E+03	6.210013E-02	2.245885E-03
5.690909E+03	6.191141E-02	2.231451E-03
5.700000E+03	6.171657E-02	2.217251E-03
5.709091E+03	6.151644E-02	2.203318E-03
5.718182E+03	6.131175E-02	2.189684E-03
5.727273E+03	6.110155E-02	2.176316E-03
5.736364E+03	6.088832E-02	2.163305E-03
5.745455E+03	6.067275E-02	2.150677E-03
5.754545E+03	6.045375E-02	2.138395E-03
5.763636E+03	6.023544E-02	2.126606E-03
5.772727E+03	6.001493E-02	2.115205E-03
5.781818E+03	5.979448E-02	2.104275E-03
5.790909E+03	5.957464E-02	2.093832E-03
5.800000E+03	5.935584E-02	2.083890E-03
5.809091E+03	5.913683E-02	2.074406E-03
5.818182E+03	5.891972E-02	2.065450E-03
5.827273E+03	5.870655E-02	2.057093E-03
5.836364E+03	5.849426E-02	2.049222E-03
5.845455E+03	5.828482E-02	2.041897E-03
5.854545E+03	5.807848E-02	2.035115E-03
5.863636E+03	5.787548E-02	2.028873E-03
5.872727E+03	5.767435E-02	2.023109E-03
5.881818E+03	5.747865E-02	2.017936E-03
5.890909E+03	5.728685E-02	2.013290E-03
5.900000E+03	5.709745E-02	2.009106E-03
5.909091E+03	5.691392E-02	2.005497E-03
5.918182E+03	5.673467E-02	2.002395E-03
5.927273E+03	5.655817E-02	1.999736E-03
5.936364E+03	5.638779E-02	1.997629E-03
5.945455E+03	5.622192E-02	1.996007E-03
5.954545E+03	5.605892E-02	1.994801E-03
5.963636E+03	5.590212E-02	1.994121E-03
5.972727E+03	5.574985E-02	1.993896E-03
5.981818E+03	5.560210E-02	1.994119E-03
5.990909E+03	5.545882E-02	1.994777E-03
6.000000E+03	5.531999E-02	1.995862E-03
6.009091E+03	5.518715E-02	1.997420E-03
6.018182E+03	5.505696E-02	1.999322E-03
6.027273E+03	5.493097E-02	2.001617E-03
6.036364E+03	5.481072E-02	2.004351E-03
6.045455E+03	5.469445E-02	2.007455E-03
6.054545E+03	5.458205E-02	2.010916E-03
6.063636E+03	5.447342E-02	2.014723E-03
6.072727E+03	5.437004E-02	2.018924E-03
6.081818E+03	5.426849E-02	2.023386E-03
6.090909E+03	5.417188E-02	2.028217E-03
6.100000E+03	5.407845E-02	2.033345E-03
6.109091E+03	5.398965E-02	2.038818E-03
6.118182E+03	5.390205E-02	2.044503E-03
6.127273E+03	5.381875E-02	2.050508E-03
6.136364E+03	5.373793E-02	2.056760E-03
6.145455E+03	5.365942E-02	2.063246E-03
6.154545E+03	5.358464E-02	2.070016E-03
6.163636E+03	5.351180E-02	2.076996E-03
6.172727E+03	5.344068E-02	2.084170E-03
6.181818E+03	5.337110E-02	2.091528E-03
6.190909E+03	5.330447E-02	2.099118E-03
6.200000E+03	5.323898E-02	2.106866E-03
6.209091E+03	5.317605E-02	2.114822E-03
6.218182E+03	5.311223E-02	2.122846E-03
6.227273E+03	5.305055E-02	2.131051E-03
6.236364E+03	5.298918E-02	2.139362E-03
6.245455E+03	5.292953E-02	2.147829E-03
6.254545E+03	5.286981E-02	2.156376E-03
6.263636E+03	5.280978E-02	2.164989E-03
6.272727E+03	5.274924E-02	2.173655E-03
6.281818E+03	5.268963E-02	2.182428E-03
6.290909E+03	5.262911E-02	2.191228E-03
6.300000E+03	5.256912E-02	2.200111E-03
6.309091E+03	5.250620E-02	2.208927E-03
6.318182E+03	5.244343E-02	2.217801E-03
6.327273E+03	5.238063E-02	2.226722E-03
6.336364E+03	5.231440E-02	2.235541E-03
6.345455E+03	5.224779E-02	2.244383E-03
6.354545E+03	5.217905E-02	2.253169E-03
6.363636E+03	5.210966E-02	2.261959E-03
6.372727E+03	5.203625E-02	2.270602E-03
6.381818E+03	5.196194E-02	2.279230E-03
6.390909E+03	5.188500E-02	2.287762E-03
6.400000E+03	5.180701E-02	2.296265E-03
6.409091E+03	5.172625E-02	2.304658E-03
6.418182E+03	5.164107E-02	2.312863E-03
6.427273E+03	5.155631E-02	2.321092E-03
6.436364E+03	5.146712E-02	2.329125E-03
6.445455E+03	5.137512E-02	2.337029E-03
6.454545E+03	5.128198E-02	2.344877E-03
6.463636E+03	5.118613E-02	2.352594E-03
6.472727E+03	5.108770E-02	2.360183E-03
6.481818E+03	5.098675E-02	2.367642E-03
6.490909E+03	5.088504E-02	2.375050E-03
6.500000E+03	5.077950E-02	2.382261E-03
6.509091E+03	5.067352E-02	2.389431E-03
6.518182E+03	5.056408E-02	2.396415E-03
6.527273E+03	5.045456E-02	2.403369E-03
6.536364E+03	5.034359E-02	2.410229E-03
6.545455E+03	5.023139E-02	2.417001E-03
6.554545E+03	5.011821E-02	2.423695E-03
6.563636E+03	5.000427E-02	2.430321E-03
6.572727E+03	4.988984E-02	2.436891E-03
6.581818E+03	4.977515E-02	2.443414E-03
6.590909E+03	4.966044E-02	2.449902E-03
6.600000E+03	4.954599E-02	2.456367E-03
6.609091E+03	4.943200E-02	2.462820E-03
6.618182E+03	4.931713E-02	2.469192E-03
6.627273E+03	4.920480E-02	2.475654E-03
6.636364E+03	4.909359E-02	2.482137E-03
6.645455E+03	4.898213E-02	2.488571E-03
6.654545E+03	4.887380E-02	2.495128E-03
6.663636E+03	4.876556E-02	2.501654E-03
6.672727E+03	4.865919E-02	2.508241E-03
6.681818E+03	4.855478E-02	2.514894E-03
6.690909E+03	4.845248E-02	2.521623E-03
6.700000E+03	4.835237E-02	2.528433E-03
6.709091E+03	4.825297E-02	2.535247E-03
6.718182E+03	4.815590E-02	2.542153E-03
6.727273E+03	4.806123E-02	2.549154E-03
6.736364E+03	4.796892E-02	2.556253E-03
6.745455E+03	4.787747E-02	2.563368E-03
6.754545E+03	4.778841E-02	2.570584E-03
6.763636E+03	4.770168E-02	2.577900E-03
6.772727E+03	4.761572E-02	2.585231E-03
6.781818E+03	4.753352E-02	2.592743E-03
6.790909E+03	4.745038E-02	2.600181E-03
6.800000E+03	4.737086E-02	2.607795E-03
6.809091E+03	4.729171E-02	2.615409E-03
6.818182E+03	4.721443E-02	2.623106E-03
6.827273E+03	4.713731E-02	2.630792E-03
6.836364E+03	4.706178E-02	2.638550E-03
6.845455E+03	4.698617E-02	2.646283E-03
6.854545E+03	4.691191E-02	2.654073E-03
6.863636E+03	4.683894E-02	2.661914E-03
6.872727E+03	4.676557E-02	2.669711E-03
6.881818E+03	4.669333E-02	2.677550E-03
6.890909E+03	4.662060E-02	2.685336E-03
6.900000E+03	4.654888E-02	2.693155E-03
6.909091E+03	4.647660E-02	2.700916E-03
6.918182E+03	4.640371E-02	2.708614E-03
6.927273E+03	4.633331E-02	2.716428E-03
6.936364E+03	4.626069E-02	2.724084E-03
6.945455E+03	4.618893E-02	2.731759E-03
6.954545E+03	4.611798E-02	2.739451E-03
6.963636E+03	4.604630E-02	2.747067E-03
6.972727E+03	4.597536E-02	2.754693E-03
6.981818E+03	4.590207E-02	2.762144E-03
6.990909E+03	4.583103E-02	2.769694E-03
7.000000E+03	4.575910E-02	2.777154E-03
7.009091E+03	4.568623E-02	2.784520E-03
7.018182E+03	4.561245E-02	2.791790E-03
7.027273E+03	4.553921E-02	2.799053E-03
7.036364E+03	4.546495E-02	2.806212E-03
7.045455E+03	4.539118E-02	2.813360E-03
7.054545E+03	4.531634E-02	2.820397E-03
