#wls	flux	fluxerr
1.454545E+03	2.182282E-03	3.254329E-04
1.490909E+03	2.228009E-03	3.317916E-04
1.527273E+03	2.269935E-03	3.375534E-04
1.563636E+03	2.307668E-03	3.426615E-04
1.600000E+03	2.340576E-03	3.470239E-04
1.636364E+03	2.367089E-03	3.504104E-04
1.672727E+03	2.385575E-03	3.525836E-04
1.709091E+03	2.393234E-03	3.531351E-04
1.745455E+03	2.388027E-03	3.517720E-04
1.781818E+03	2.367915E-03	3.482038E-04
1.818182E+03	2.334152E-03	3.426260E-04
1.854545E+03	2.292502E-03	3.358944E-04
1.890909E+03	2.255100E-03	3.297901E-04
1.927273E+03	2.239994E-03	3.269446E-04
1.963636E+03	2.263840E-03	3.297650E-04
2.000000E+03	2.333001E-03	3.391411E-04
2.036364E+03	2.443153E-03	3.544031E-04
2.072727E+03	2.582536E-03	3.738079E-04
2.109091E+03	2.737627E-03	3.953708E-04
2.145455E+03	2.898382E-03	4.176252E-04
2.181818E+03	3.059267E-03	4.397651E-04
2.218182E+03	3.217048E-03	4.613220E-04
2.254545E+03	3.371463E-03	4.822567E-04
2.290909E+03	3.522876E-03	5.026197E-04
2.327273E+03	3.672131E-03	5.225297E-04
2.363636E+03	3.820228E-03	5.421261E-04
2.400000E+03	3.968168E-03	5.615464E-04
2.436364E+03	4.117471E-03	5.810004E-04
2.472727E+03	4.268404E-03	6.005183E-04
2.509091E+03	4.421707E-03	6.201962E-04
2.545455E+03	4.578682E-03	6.402074E-04
2.581818E+03	4.739968E-03	6.606298E-04
2.618182E+03	4.905474E-03	6.814386E-04
2.654545E+03	5.077071E-03	7.028804E-04
2.690909E+03	5.253913E-03	7.248224E-04
2.727273E+03	5.437877E-03	7.475077E-04
2.736364E+03	5.485379E-03	7.533478E-04
2.745455E+03	5.532420E-03	7.591084E-04
2.754545E+03	5.580449E-03	7.649882E-04
2.763636E+03	5.629545E-03	7.709975E-04
2.772727E+03	5.678472E-03	7.769668E-04
2.781818E+03	5.728935E-03	7.831290E-04
2.790909E+03	5.780138E-03	7.893746E-04
2.800000E+03	5.832025E-03	7.956956E-04
2.809091E+03	5.885292E-03	8.021865E-04
2.818182E+03	5.939150E-03	8.087390E-04
2.827273E+03	5.993556E-03	8.153470E-04
2.836364E+03	6.048468E-03	8.220044E-04
2.845455E+03	6.104619E-03	8.288103E-04
2.854545E+03	6.161217E-03	8.356567E-04
2.863636E+03	6.219009E-03	8.426444E-04
2.872727E+03	6.276423E-03	8.495599E-04
2.881818E+03	6.334990E-03	8.566104E-04
2.890909E+03	6.393915E-03	8.636877E-04
2.900000E+03	6.453974E-03	8.708962E-04
2.909091E+03	6.514368E-03	8.781277E-04
2.918182E+03	6.575082E-03	8.853797E-04
2.927273E+03	6.636108E-03	8.926509E-04
2.936364E+03	6.698246E-03	9.000485E-04
2.945455E+03	6.760689E-03	9.074633E-04
2.954545E+03	6.823430E-03	9.148944E-04
2.963636E+03	6.887292E-03	9.224514E-04
2.972727E+03	6.951457E-03	9.300243E-04
2.981818E+03	7.015924E-03	9.376126E-04
2.990909E+03	7.081533E-03	9.453281E-04
3.000000E+03	7.147455E-03	9.530597E-04
3.009091E+03	7.213697E-03	9.608078E-04
3.018182E+03	7.280265E-03	9.685728E-04
3.027273E+03	7.348014E-03	9.764683E-04
3.036364E+03	7.416108E-03	9.843823E-04
3.045455E+03	7.485418E-03	9.924299E-04
3.054545E+03	7.554233E-03	1.000384E-03
3.063636E+03	7.624288E-03	1.008474E-03
3.072727E+03	7.695608E-03	1.016702E-03
3.081818E+03	7.766460E-03	1.024839E-03
3.090909E+03	7.838607E-03	1.033117E-03
3.100000E+03	7.912075E-03	1.041539E-03
3.109091E+03	7.985106E-03	1.049872E-03
3.118182E+03	8.059493E-03	1.058353E-03
3.127273E+03	8.134362E-03	1.066865E-03
3.136364E+03	8.210632E-03	1.075529E-03
3.145455E+03	8.287421E-03	1.084229E-03
3.154545E+03	8.364747E-03	1.092965E-03
3.163636E+03	8.442622E-03	1.101739E-03
3.172727E+03	8.521985E-03	1.110674E-03
3.181818E+03	8.601941E-03	1.119650E-03
3.190909E+03	8.682504E-03	1.128671E-03
3.200000E+03	8.764628E-03	1.137858E-03
3.209091E+03	8.847403E-03	1.147094E-03
3.218182E+03	8.930846E-03	1.156379E-03
3.227273E+03	9.015925E-03	1.165838E-03
3.236364E+03	9.101716E-03	1.175350E-03
3.245455E+03	9.188239E-03	1.184919E-03
3.254545E+03	9.276477E-03	1.194668E-03
3.263636E+03	9.364522E-03	1.204352E-03
3.272727E+03	9.454326E-03	1.214222E-03
3.281818E+03	9.545927E-03	1.224281E-03
3.290909E+03	9.637388E-03	1.234280E-03
3.297736E+03	1.036414E-02	1.325951E-03
3.303009E+03	1.072651E-02	1.371184E-03
3.308281E+03	1.126884E-02	1.439323E-03
3.313553E+03	1.130769E-02	1.443088E-03
3.319704E+03	1.119480E-02	1.427295E-03
3.325855E+03	1.130277E-02	1.439655E-03
3.331126E+03	1.145728E-02	1.458111E-03
3.336398E+03	1.155592E-02	1.469424E-03
3.341671E+03	1.128992E-02	1.434385E-03
3.346943E+03	1.124572E-02	1.427555E-03
3.353094E+03	1.042162E-02	1.321625E-03
3.359245E+03	9.301988E-03	1.178457E-03
3.364516E+03	8.764746E-03	1.109438E-03
3.369788E+03	8.637713E-03	1.092413E-03
3.375061E+03	8.729394E-03	1.103049E-03
3.380333E+03	9.069151E-03	1.144981E-03
3.386484E+03	9.682720E-03	1.221195E-03
3.392635E+03	9.894175E-03	1.246583E-03
3.397906E+03	1.060300E-02	1.334708E-03
3.403179E+03	1.090981E-02	1.372110E-03
3.408451E+03	1.094314E-02	1.375075E-03
3.413723E+03	1.113496E-02	1.397926E-03
3.419874E+03	1.143657E-02	1.434286E-03
3.426025E+03	1.209826E-02	1.515671E-03
3.431297E+03	1.250845E-02	1.565639E-03
3.436570E+03	1.262889E-02	1.579273E-03
3.441842E+03	1.285845E-02	1.606510E-03
3.447115E+03	1.301233E-02	1.624242E-03
3.453265E+03	1.306532E-02	1.629101E-03
3.459416E+03	1.283851E-02	1.599090E-03
3.464688E+03	1.275902E-02	1.587710E-03
3.469961E+03	1.288633E-02	1.602053E-03
3.475234E+03	1.254876E-02	1.558621E-03
3.480505E+03	1.206185E-02	1.496732E-03
3.486657E+03	1.203823E-02	1.492151E-03
3.492808E+03	1.209782E-02	1.497874E-03
3.498081E+03	1.196400E-02	1.479890E-03
3.503353E+03	1.184865E-02	1.464216E-03
3.508625E+03	1.164508E-02	1.437672E-03
3.513898E+03	1.163135E-02	1.434589E-03
3.519171E+03	1.181038E-02	1.455254E-03
3.525322E+03	1.212790E-02	1.492678E-03
3.531473E+03	1.200518E-02	1.475885E-03
3.536745E+03	1.212829E-02	1.489552E-03
3.542018E+03	1.217693E-02	1.494047E-03
3.547291E+03	1.234511E-02	1.513178E-03
3.552564E+03	1.273061E-02	1.558874E-03
3.558715E+03	1.305896E-02	1.597214E-03
3.564866E+03	1.331315E-02	1.626392E-03
3.570139E+03	1.361702E-02	1.661833E-03
3.575412E+03	1.380879E-02	1.683526E-03
3.580685E+03	1.377539E-02	1.677743E-03
3.585957E+03	1.365820E-02	1.661769E-03
3.592109E+03	1.368238E-02	1.662715E-03
3.598261E+03	1.365743E-02	1.657684E-03
3.603534E+03	1.351261E-02	1.638405E-03
3.608806E+03	1.325767E-02	1.605820E-03
3.614080E+03	1.304783E-02	1.578750E-03
3.619353E+03	1.279435E-02	1.546455E-03
3.625505E+03	1.277132E-02	1.541771E-03
3.631656E+03	1.285783E-02	1.550296E-03
3.636929E+03	1.284805E-02	1.547469E-03
3.642203E+03	1.316454E-02	1.583893E-03
3.647475E+03	1.356270E-02	1.630046E-03
3.652748E+03	1.370755E-02	1.645679E-03
3.658901E+03	1.392329E-02	1.669469E-03
3.665053E+03	1.442934E-02	1.727951E-03
3.670325E+03	1.498066E-02	1.792013E-03
3.675599E+03	1.529985E-02	1.828187E-03
3.680872E+03	1.526456E-02	1.821961E-03
3.686145E+03	1.529893E-02	1.824043E-03
3.692298E+03	1.551115E-02	1.846948E-03
3.698450E+03	1.591493E-02	1.892559E-03
3.703724E+03	1.606233E-02	1.907945E-03
3.708997E+03	1.582255E-02	1.877347E-03
3.714270E+03	1.583027E-02	1.876139E-03
3.719544E+03	1.581673E-02	1.872406E-03
3.725696E+03	1.584486E-02	1.873240E-03
3.731849E+03	1.612767E-02	1.904126E-03
3.737123E+03	1.618308E-02	1.908467E-03
3.742396E+03	1.605385E-02	1.891039E-03
3.747670E+03	1.598250E-02	1.880450E-03
3.752944E+03	1.585907E-02	1.863751E-03
3.759096E+03	1.573144E-02	1.846227E-03
3.765249E+03	1.562810E-02	1.831583E-03
3.770523E+03	1.543821E-02	1.807190E-03
3.775796E+03	1.517405E-02	1.774160E-03
3.781070E+03	1.503267E-02	1.755535E-03
3.786345E+03	1.469357E-02	1.713881E-03
3.792497E+03	1.397815E-02	1.628148E-03
3.798650E+03	1.333302E-02	1.550816E-03
3.803925E+03	1.267526E-02	1.472520E-03
3.809198E+03	1.197093E-02	1.389003E-03
3.814473E+03	1.164385E-02	1.349398E-03
3.819746E+03	1.159991E-02	1.342655E-03
3.825900E+03	1.164965E-02	1.346472E-03
3.832053E+03	1.178976E-02	1.360694E-03
3.837327E+03	1.228205E-02	1.415746E-03
3.842602E+03	1.283548E-02	1.477689E-03
3.847876E+03	1.333893E-02	1.533720E-03
3.853151E+03	1.422217E-02	1.633214E-03
3.858425E+03	1.544916E-02	1.771870E-03
3.864578E+03	1.692960E-02	1.938781E-03
3.870732E+03	1.839595E-02	2.103567E-03
3.876006E+03	1.984213E-02	2.266024E-03
3.881281E+03	2.093506E-02	2.387757E-03
3.886556E+03	2.132412E-02	2.428982E-03
3.891831E+03	2.178415E-02	2.478157E-03
3.897985E+03	2.237318E-02	2.541288E-03
3.904138E+03	2.263616E-02	2.567223E-03
3.909414E+03	2.289175E-02	2.592788E-03
3.914688E+03	2.310073E-02	2.612994E-03
3.919963E+03	2.298044E-02	2.595933E-03
3.925238E+03	2.311602E-02	2.607763E-03
3.931392E+03	2.378815E-02	2.679391E-03
3.937546E+03	2.402087E-02	2.701351E-03
3.942822E+03	2.462716E-02	2.765785E-03
3.948096E+03	2.541420E-02	2.850296E-03
3.953372E+03	2.623728E-02	2.938592E-03
3.958647E+03	2.712966E-02	3.034375E-03
3.964802E+03	2.773029E-02	3.096573E-03
3.970956E+03	2.823241E-02	3.147556E-03
3.976232E+03	2.863165E-02	3.187631E-03
3.981507E+03	2.878271E-02	3.199978E-03
3.986783E+03	2.868017E-02	3.184110E-03
3.992058E+03	2.909826E-02	3.225981E-03
3.998213E+03	2.931618E-02	3.244782E-03
4.004368E+03	2.904449E-02	3.209384E-03
4.009644E+03	2.850068E-02	3.144800E-03
4.014920E+03	2.840533E-02	3.129788E-03
4.020195E+03	2.832575E-02	3.116529E-03
4.025472E+03	2.773359E-02	3.046968E-03
4.031626E+03	2.779938E-02	3.049026E-03
4.037782E+03	2.823638E-02	3.091688E-03
4.043058E+03	2.834998E-02	3.099579E-03
4.048334E+03	2.809363E-02	3.067033E-03
4.053610E+03	2.813189E-02	3.066673E-03
4.058886E+03	2.785241E-02	3.031701E-03
4.065042E+03	2.738675E-02	2.975833E-03
4.071198E+03	2.686385E-02	2.913915E-03
4.076475E+03	2.660011E-02	2.880967E-03
4.081751E+03	2.620865E-02	2.834281E-03
4.087027E+03	2.612443E-02	2.820887E-03
4.092304E+03	2.618364E-02	2.822974E-03
4.097580E+03	2.572615E-02	2.769407E-03
4.103736E+03	2.524392E-02	2.712624E-03
4.109893E+03	2.499371E-02	2.680899E-03
4.115169E+03	2.434435E-02	2.607196E-03
4.120446E+03	2.426926E-02	2.595105E-03
4.125723E+03	2.384360E-02	2.545602E-03
4.131000E+03	2.346753E-02	2.501515E-03
4.137156E+03	2.275761E-02	2.421376E-03
4.143314E+03	2.220406E-02	2.358109E-03
4.148590E+03	2.181406E-02	2.313000E-03
4.153867E+03	2.117894E-02	2.242064E-03
4.159145E+03	2.021165E-02	2.136227E-03
4.164422E+03	1.916925E-02	2.022784E-03
4.170579E+03	1.846255E-02	1.944528E-03
4.176736E+03	1.776261E-02	1.867254E-03
4.182014E+03	1.683300E-02	1.766637E-03
4.187291E+03	1.616770E-02	1.694025E-03
4.192569E+03	1.635874E-02	1.711215E-03
4.197846E+03	1.670778E-02	1.744831E-03
4.204004E+03	1.689317E-02	1.760767E-03
4.210162E+03	1.781709E-02	1.853443E-03
4.215439E+03	1.862993E-02	1.934745E-03
4.220717E+03	1.914929E-02	1.985326E-03
4.225995E+03	1.957061E-02	2.025569E-03
4.231274E+03	2.044786E-02	2.112764E-03
4.237432E+03	2.127992E-02	2.194352E-03
4.243589E+03	2.194495E-02	2.258396E-03
4.248868E+03	2.222436E-02	2.283204E-03
4.254146E+03	2.309188E-02	2.368218E-03
4.259425E+03	2.360126E-02	2.416247E-03
4.264703E+03	2.403846E-02	2.456707E-03
4.269982E+03	2.434524E-02	2.483694E-03
4.276140E+03	2.417577E-02	2.461334E-03
4.282298E+03	2.396935E-02	2.435276E-03
4.287577E+03	2.369767E-02	2.403389E-03
4.292856E+03	2.313405E-02	2.342036E-03
4.298135E+03	2.293616E-02	2.317835E-03
4.303415E+03	2.250605E-02	2.270271E-03
4.309573E+03	2.196964E-02	2.211482E-03
4.315732E+03	2.138535E-02	2.148100E-03
4.321012E+03	2.131396E-02	2.137016E-03
4.326291E+03	2.156046E-02	2.157764E-03
4.331570E+03	2.171518E-02	2.169244E-03
4.336849E+03	2.171416E-02	2.165129E-03
4.343009E+03	2.194257E-02	2.183158E-03
4.349168E+03	2.217300E-02	2.201278E-03
4.354448E+03	2.245799E-02	2.225387E-03
4.359728E+03	2.248094E-02	2.223462E-03
4.365007E+03	2.290630E-02	2.261245E-03
4.370287E+03	2.364572E-02	2.329802E-03
4.376447E+03	2.410613E-02	2.369876E-03
4.382607E+03	2.485093E-02	2.437631E-03
4.387888E+03	2.494321E-02	2.441966E-03
4.393168E+03	2.373017E-02	2.318713E-03
4.398448E+03	2.293487E-02	2.236647E-03
4.403728E+03	2.245326E-02	2.185407E-03
4.409009E+03	2.217933E-02	2.154513E-03
4.415170E+03	2.248456E-02	2.179147E-03
4.421330E+03	2.268331E-02	2.193336E-03
4.426611E+03	2.289469E-02	2.209375E-03
4.431892E+03	2.343968E-02	2.257452E-03
4.437173E+03	2.358210E-02	2.266617E-03
4.442454E+03	2.392566E-02	2.295010E-03
4.448615E+03	2.441262E-02	2.336198E-03
4.454776E+03	2.468369E-02	2.356540E-03
4.460057E+03	2.547110E-02	2.426751E-03
4.465338E+03	2.612295E-02	2.483754E-03
4.470620E+03	2.669024E-02	2.532469E-03
4.475901E+03	2.761775E-02	2.615059E-03
4.482063E+03	2.818023E-02	2.661857E-03
4.488225E+03	2.847100E-02	2.682777E-03
4.493506E+03	2.922186E-02	2.747758E-03
4.498788E+03	3.014037E-02	2.828162E-03
4.504070E+03	3.079555E-02	2.883532E-03
4.509352E+03	3.146886E-02	2.940324E-03
4.515515E+03	3.258091E-02	3.036659E-03
4.521676E+03	3.353457E-02	3.117734E-03
4.526959E+03	3.450793E-02	3.201323E-03
4.532241E+03	3.550165E-02	3.286393E-03
4.537524E+03	3.663146E-02	3.383621E-03
4.542806E+03	3.775941E-02	3.480208E-03
4.548088E+03	3.891661E-02	3.579016E-03
4.554252E+03	4.016692E-02	3.684529E-03
4.560415E+03	4.157516E-02	3.803882E-03
4.565697E+03	4.200967E-02	3.835109E-03
4.570980E+03	4.175429E-02	3.803301E-03
4.576264E+03	4.219113E-02	3.834491E-03
4.581546E+03	4.246520E-02	3.850729E-03
4.587710E+03	4.254653E-02	3.847946E-03
4.593874E+03	4.315865E-02	3.892980E-03
4.599157E+03	4.369674E-02	3.932536E-03
4.604441E+03	4.426513E-02	3.974575E-03
4.609724E+03	4.498772E-02	4.030177E-03
4.615007E+03	4.550530E-02	4.067140E-03
4.621172E+03	4.613382E-02	4.112170E-03
4.627336E+03	4.667234E-02	4.148870E-03
4.632620E+03	4.698208E-02	4.166636E-03
4.637905E+03	4.712059E-02	4.169103E-03
4.643188E+03	4.710324E-02	4.157740E-03
4.648473E+03	4.695078E-02	4.134466E-03
4.653756E+03	4.665763E-02	4.098881E-03
4.659922E+03	4.585142E-02	4.016831E-03
4.666087E+03	4.508591E-02	3.938709E-03
4.671372E+03	4.451958E-02	3.879858E-03
4.676656E+03	4.341916E-02	3.774795E-03
4.681941E+03	4.172186E-02	3.618417E-03
4.687225E+03	4.004149E-02	3.464206E-03
4.693392E+03	3.882873E-02	3.349675E-03
4.699557E+03	3.738266E-02	3.215659E-03
4.704843E+03	3.661358E-02	3.141708E-03
4.710128E+03	3.602187E-02	3.083254E-03
4.715413E+03	3.525240E-02	3.009864E-03
4.720698E+03	3.453665E-02	2.941365E-03
4.726865E+03	3.435331E-02	2.917164E-03
4.733032E+03	3.416427E-02	2.892554E-03
4.738317E+03	3.412530E-02	2.881918E-03
4.743603E+03	3.400456E-02	2.864400E-03
4.748889E+03	3.404876E-02	2.860779E-03
4.754175E+03	3.418894E-02	2.865174E-03
4.759461E+03	3.404642E-02	2.845865E-03
4.765628E+03	3.377922E-02	2.814993E-03
4.771795E+03	3.356849E-02	2.788934E-03
4.777082E+03	3.312370E-02	2.744781E-03
4.782368E+03	3.264078E-02	2.697660E-03
4.787655E+03	3.203040E-02	2.640233E-03
4.792942E+03	3.121730E-02	2.566398E-03
4.799110E+03	3.052080E-02	2.501356E-03
4.805278E+03	2.981955E-02	2.436269E-03
4.810565E+03	2.902268E-02	2.364803E-03
4.815853E+03	2.813336E-02	2.286166E-03
4.821140E+03	2.761026E-02	2.237591E-03
4.826427E+03	2.715099E-02	2.194398E-03
4.831715E+03	2.681491E-02	2.161328E-03
4.837884E+03	2.664638E-02	2.140887E-03
4.844053E+03	2.685499E-02	2.150728E-03
4.849340E+03	2.725698E-02	2.176895E-03
4.854628E+03	2.743806E-02	2.185283E-03
4.859916E+03	2.757249E-02	2.189879E-03
4.865205E+03	2.778450E-02	2.200553E-03
4.871374E+03	2.826114E-02	2.230980E-03
4.877544E+03	2.860843E-02	2.250974E-03
4.882832E+03	2.918067E-02	2.289503E-03
4.888120E+03	2.954395E-02	2.311423E-03
4.893409E+03	2.967982E-02	2.315432E-03
4.898698E+03	3.006726E-02	2.338945E-03
4.903986E+03	3.035372E-02	2.354447E-03
4.910157E+03	3.017442E-02	2.332665E-03
4.916328E+03	3.005096E-02	2.315272E-03
4.921617E+03	2.976820E-02	2.286816E-03
4.926906E+03	2.963568E-02	2.269990E-03
4.932195E+03	2.950836E-02	2.253617E-03
4.937485E+03	2.939901E-02	2.238663E-03
4.943656E+03	2.932875E-02	2.225622E-03
4.949828E+03	2.931291E-02	2.216728E-03
4.955118E+03	2.935594E-02	2.213375E-03
4.960408E+03	2.946819E-02	2.215201E-03
4.965698E+03	2.922865E-02	2.190608E-03
4.970988E+03	2.934081E-02	2.192400E-03
4.976279E+03	3.028169E-02	2.255872E-03
4.982451E+03	3.010887E-02	2.235071E-03
4.988624E+03	3.056080E-02	2.260568E-03
4.993915E+03	3.177282E-02	2.343043E-03
4.999205E+03	3.229999E-02	2.374621E-03
5.004495E+03	3.246704E-02	2.379562E-03
5.009787E+03	3.277342E-02	2.394606E-03
5.015960E+03	3.276794E-02	2.385559E-03
5.022133E+03	3.264496E-02	2.367991E-03
5.027425E+03	3.274621E-02	2.367925E-03
5.032716E+03	3.239574E-02	2.335250E-03
5.038008E+03	3.166073E-02	2.275101E-03
5.043300E+03	3.099470E-02	2.220226E-03
5.048591E+03	3.004269E-02	2.145232E-03
5.054765E+03	2.866702E-02	2.039431E-03
5.060939E+03	2.730422E-02	1.935270E-03
5.066232E+03	2.599981E-02	1.836932E-03
5.071525E+03	2.517703E-02	1.773105E-03
5.076816E+03	2.493819E-02	1.750644E-03
5.082109E+03	2.452548E-02	1.716127E-03
5.088285E+03	2.436386E-02	1.698391E-03
5.094459E+03	2.427774E-02	1.685988E-03
5.099752E+03	2.496785E-02	1.728275E-03
5.105045E+03	2.605098E-02	1.797367E-03
5.110339E+03	2.701673E-02	1.857901E-03
5.115632E+03	2.810016E-02	1.926071E-03
5.120925E+03	2.901045E-02	1.981927E-03
5.127101E+03	3.036758E-02	2.066664E-03
5.133277E+03	3.165393E-02	2.145896E-03
5.138571E+03	3.262136E-02	2.204147E-03
5.143865E+03	3.292839E-02	2.217495E-03
5.149159E+03	3.376168E-02	2.266035E-03
5.154454E+03	3.486544E-02	2.332300E-03
5.160631E+03	3.454241E-02	2.301664E-03
5.166807E+03	3.456334E-02	2.294041E-03
5.172102E+03	3.508793E-02	2.321020E-03
5.177396E+03	3.486931E-02	2.298779E-03
5.182692E+03	3.486856E-02	2.290959E-03
5.187986E+03	3.516438E-02	2.302571E-03
5.193282E+03	3.566018E-02	2.327111E-03
5.199460E+03	3.617438E-02	2.351304E-03
5.205637E+03	3.633773E-02	2.352534E-03
5.210933E+03	3.609981E-02	2.329152E-03
5.216229E+03	3.571565E-02	2.296484E-03
5.221525E+03	3.596368E-02	2.304512E-03
5.226821E+03	3.595531E-02	2.296070E-03
5.232116E+03	3.584943E-02	2.281444E-03
5.238295E+03	3.568067E-02	2.261591E-03
5.244475E+03	3.589614E-02	2.266102E-03
5.249771E+03	3.616699E-02	2.275323E-03
5.255067E+03	3.687925E-02	2.312117E-03
5.260365E+03	3.774427E-02	2.358164E-03
5.265661E+03	3.893141E-02	2.423915E-03
5.271841E+03	3.977304E-02	2.466308E-03
5.278021E+03	4.110280E-02	2.538457E-03
5.283318E+03	4.216325E-02	2.594912E-03
5.288615E+03	4.334703E-02	2.658503E-03
5.293914E+03	4.477865E-02	2.736764E-03
5.299211E+03	4.568935E-02	2.782721E-03
5.304509E+03	4.710999E-02	2.859270E-03
5.310690E+03	4.815632E-02	2.910925E-03
5.316871E+03	4.913188E-02	2.957853E-03
5.322169E+03	4.943209E-02	2.965581E-03
5.327467E+03	4.955295E-02	2.962500E-03
5.332766E+03	4.981182E-02	2.967630E-03
5.338065E+03	4.947690E-02	2.937441E-03
5.343364E+03	4.876312E-02	2.885016E-03
5.349545E+03	4.803512E-02	2.830452E-03
5.355728E+03	4.787638E-02	2.809700E-03
5.361027E+03	4.789004E-02	2.800778E-03
5.366326E+03	4.818799E-02	2.808464E-03
5.371625E+03	4.942306E-02	2.870505E-03
5.376925E+03	5.034602E-02	2.914034E-03
5.383108E+03	5.068482E-02	2.921875E-03
5.389292E+03	5.116247E-02	2.937602E-03
5.394592E+03	5.118447E-02	2.928801E-03
5.399892E+03	5.228240E-02	2.981402E-03
5.405193E+03	5.309394E-02	3.017357E-03
5.410493E+03	5.366821E-02	3.039624E-03
5.415794E+03	5.345669E-02	3.017376E-03
5.421978E+03	5.322763E-02	2.992602E-03
5.428162E+03	5.249324E-02	2.939722E-03
5.433464E+03	5.222142E-02	2.914686E-03
5.438765E+03	5.237449E-02	2.913458E-03
5.444065E+03	5.212505E-02	2.889927E-03
5.449367E+03	5.172832E-02	2.858419E-03
5.454669E+03	5.157551E-02	2.840564E-03
5.460855E+03	5.104580E-02	2.800614E-03
5.467040E+03	5.108108E-02	2.791869E-03
5.472342E+03	5.143213E-02	2.801923E-03
5.477645E+03	5.182160E-02	2.814015E-03
5.482947E+03	5.261113E-02	2.847707E-03
5.488249E+03	5.388158E-02	2.907158E-03
5.493552E+03	5.556076E-02	2.988240E-03
5.499738E+03	5.688845E-02	3.048400E-03
5.505925E+03	5.840880E-02	3.118453E-03
5.511228E+03	6.017768E-02	3.202928E-03
5.516532E+03	6.131673E-02	3.253505E-03
5.521835E+03	6.291700E-02	3.328220E-03
5.527139E+03	6.352401E-02	3.350153E-03
5.532443E+03	6.407375E-02	3.368999E-03
5.538631E+03	6.396877E-02	3.351815E-03
5.544818E+03	6.325620E-02	3.303114E-03
5.550123E+03	6.284472E-02	3.272083E-03
5.555427E+03	6.168465E-02	3.202439E-03
5.560732E+03	5.992141E-02	3.102043E-03
5.566036E+03	5.827030E-02	3.008078E-03
5.572225E+03	5.672519E-02	2.918826E-03
5.578415E+03	5.569096E-02	2.856458E-03
5.583720E+03	5.430185E-02	2.777690E-03
5.589025E+03	5.308896E-02	2.708417E-03
5.594330E+03	5.175169E-02	2.633263E-03
