#wls	flux	fluxerr
1.454545E+03	1.914754E-03	5.983866E-05
1.490909E+03	1.960472E-03	6.126246E-05
1.527273E+03	2.003104E-03	6.258948E-05
1.563636E+03	2.042649E-03	6.381970E-05
1.600000E+03	2.078185E-03	6.492428E-05
1.636364E+03	2.108291E-03	6.585891E-05
1.672727E+03	2.131491E-03	6.657747E-05
1.709091E+03	2.144836E-03	6.698795E-05
1.745455E+03	2.146813E-03	6.704316E-05
1.781818E+03	2.135854E-03	6.669424E-05
1.818182E+03	2.111875E-03	6.593870E-05
1.854545E+03	2.080764E-03	6.496045E-05
1.890909E+03	2.053493E-03	6.410210E-05
1.927273E+03	2.046620E-03	6.388042E-05
1.963636E+03	2.074944E-03	6.475707E-05
2.000000E+03	2.145356E-03	6.694671E-05
2.036364E+03	2.253966E-03	7.032743E-05
2.072727E+03	2.390312E-03	7.457243E-05
2.109091E+03	2.542540E-03	7.931154E-05
2.145455E+03	2.700628E-03	8.423191E-05
2.181818E+03	2.859954E-03	8.918932E-05
2.218182E+03	3.017504E-03	9.408972E-05
2.254545E+03	3.173125E-03	9.892827E-05
2.290909E+03	3.326644E-03	1.036996E-04
2.327273E+03	3.478854E-03	1.084283E-04
2.363636E+03	3.631337E-03	1.131637E-04
2.400000E+03	3.784503E-03	1.179185E-04
2.436364E+03	3.939286E-03	1.227217E-04
2.472727E+03	4.097238E-03	1.276216E-04
2.509091E+03	4.258512E-03	1.326228E-04
2.545455E+03	4.424585E-03	1.377713E-04
2.581818E+03	4.595449E-03	1.430665E-04
2.618182E+03	4.771754E-03	1.485286E-04
2.654545E+03	4.954121E-03	1.541767E-04
2.690909E+03	5.144006E-03	1.600560E-04
2.727273E+03	5.342091E-03	1.661875E-04
2.736364E+03	5.392390E-03	1.677440E-04
2.745455E+03	5.443187E-03	1.693159E-04
2.754545E+03	5.495401E-03	1.709316E-04
2.763636E+03	5.547294E-03	1.725371E-04
2.772727E+03	5.599995E-03	1.741676E-04
2.781818E+03	5.654673E-03	1.758593E-04
2.790909E+03	5.709417E-03	1.775529E-04
2.800000E+03	5.766049E-03	1.793049E-04
2.809091E+03	5.822632E-03	1.810552E-04
2.818182E+03	5.881032E-03	1.828618E-04
2.827273E+03	5.940262E-03	1.846939E-04
2.836364E+03	5.999306E-03	1.865200E-04
2.845455E+03	6.060092E-03	1.884001E-04
2.854545E+03	6.120617E-03	1.902717E-04
2.863636E+03	6.182853E-03	1.921963E-04
2.872727E+03	6.245789E-03	1.941424E-04
2.881818E+03	6.308375E-03	1.960773E-04
2.890909E+03	6.372647E-03	1.980644E-04
2.900000E+03	6.437574E-03	2.000715E-04
2.909091E+03	6.502087E-03	2.020655E-04
2.918182E+03	6.568288E-03	2.041117E-04
2.927273E+03	6.635119E-03	2.061772E-04
2.936364E+03	6.702581E-03	2.082620E-04
2.945455E+03	6.769569E-03	2.103318E-04
2.954545E+03	6.838275E-03	2.124546E-04
2.963636E+03	6.907610E-03	2.145967E-04
2.972727E+03	6.977576E-03	2.167581E-04
2.981818E+03	7.048181E-03	2.189391E-04
2.990909E+03	7.119428E-03	2.211396E-04
3.000000E+03	7.191327E-03	2.233601E-04
3.009091E+03	7.262709E-03	2.255642E-04
3.018182E+03	7.335922E-03	2.278248E-04
3.027273E+03	7.409814E-03	2.301062E-04
3.036364E+03	7.484395E-03	2.324087E-04
3.045455E+03	7.559678E-03	2.347326E-04
3.054545E+03	7.635675E-03	2.370783E-04
3.063636E+03	7.712400E-03	2.394463E-04
3.072727E+03	7.789867E-03	2.418370E-04
3.081818E+03	7.868091E-03	2.442508E-04
3.090909E+03	7.947086E-03	2.466881E-04
3.100000E+03	8.026869E-03	2.491496E-04
3.109091E+03	8.107458E-03	2.516357E-04
3.118182E+03	8.188865E-03	2.541468E-04
3.127273E+03	8.272435E-03	2.567246E-04
3.136364E+03	8.355547E-03	2.592878E-04
3.145455E+03	8.439532E-03	2.618777E-04
3.154545E+03	8.524407E-03	2.644948E-04
3.163636E+03	8.610189E-03	2.671396E-04
3.172727E+03	8.696897E-03	2.698127E-04
3.181818E+03	8.784550E-03	2.725148E-04
3.190909E+03	8.873162E-03	2.752461E-04
3.200000E+03	8.964182E-03	2.780517E-04
3.209091E+03	9.054787E-03	2.808440E-04
3.218182E+03	9.146410E-03	2.836674E-04
3.227273E+03	9.239066E-03	2.865223E-04
3.236364E+03	9.332777E-03	2.894096E-04
3.245455E+03	9.429050E-03	2.923757E-04
3.254545E+03	9.524933E-03	2.953293E-04
3.263636E+03	9.621923E-03	2.983168E-04
3.272727E+03	9.720037E-03	3.013386E-04
3.281818E+03	9.820841E-03	3.044432E-04
3.290909E+03	9.921269E-03	3.075358E-04
3.300000E+03	1.002287E-02	3.106641E-04
3.309091E+03	1.012726E-02	3.138783E-04
3.318182E+03	1.023127E-02	3.170804E-04
3.327273E+03	1.033651E-02	3.203199E-04
3.336364E+03	1.044299E-02	3.235972E-04
3.345455E+03	1.055238E-02	3.269641E-04
3.354545E+03	1.066140E-02	3.303190E-04
3.363636E+03	1.077170E-02	3.337130E-04
3.372727E+03	1.088500E-02	3.371993E-04
3.381818E+03	1.099792E-02	3.406733E-04
3.390909E+03	1.111216E-02	3.441877E-04
3.400000E+03	1.122949E-02	3.477970E-04
3.409091E+03	1.134643E-02	3.513936E-04
3.418182E+03	1.146472E-02	3.550316E-04
3.427273E+03	1.158619E-02	3.587671E-04
3.436364E+03	1.170725E-02	3.624892E-04
3.445455E+03	1.182969E-02	3.662536E-04
3.454545E+03	1.195538E-02	3.701179E-04
3.463636E+03	1.208063E-02	3.739679E-04
3.472727E+03	1.220729E-02	3.778608E-04
3.481818E+03	1.233727E-02	3.818558E-04
3.490909E+03	1.246678E-02	3.858354E-04
3.500000E+03	1.259771E-02	3.898583E-04
3.509091E+03	1.273203E-02	3.939854E-04
3.518182E+03	1.286582E-02	3.980956E-04
3.527273E+03	1.300105E-02	4.022492E-04
3.536364E+03	1.313973E-02	4.065089E-04
3.545455E+03	1.327783E-02	4.107499E-04
3.554545E+03	1.341736E-02	4.150342E-04
3.563636E+03	1.356039E-02	4.194261E-04
3.572727E+03	1.370278E-02	4.237973E-04
3.581818E+03	1.384658E-02	4.282114E-04
3.590909E+03	1.399393E-02	4.327345E-04
3.600000E+03	1.414055E-02	4.372339E-04
3.609091E+03	1.428857E-02	4.417759E-04
3.618182E+03	1.444017E-02	4.464278E-04
3.627273E+03	1.459095E-02	4.510531E-04
3.636364E+03	1.474309E-02	4.557201E-04
3.645455E+03	1.489885E-02	4.604976E-04
3.654545E+03	1.505368E-02	4.652457E-04
3.663636E+03	1.520982E-02	4.700333E-04
3.672727E+03	1.536725E-02	4.748597E-04
3.681818E+03	1.552832E-02	4.797978E-04
3.690909E+03	1.568830E-02	4.847012E-04
3.700000E+03	1.584952E-02	4.896419E-04
3.709091E+03	1.601194E-02	4.946188E-04
3.718182E+03	1.617799E-02	4.997068E-04
3.727273E+03	1.634277E-02	5.047546E-04
3.736364E+03	1.650869E-02	5.098363E-04
3.745455E+03	1.667570E-02	5.149511E-04
3.754545E+03	1.684378E-02	5.200976E-04
3.763636E+03	1.701548E-02	5.253550E-04
3.772727E+03	1.718563E-02	5.305632E-04
3.781818E+03	1.735676E-02	5.358009E-04
3.790909E+03	1.752882E-02	5.410662E-04
3.800000E+03	1.770177E-02	5.463579E-04
3.809091E+03	1.787559E-02	5.516751E-04
3.818182E+03	1.805024E-02	5.570171E-04
3.827273E+03	1.822840E-02	5.624662E-04
3.836364E+03	1.840459E-02	5.678533E-04
3.845455E+03	1.858147E-02	5.732608E-04
3.854545E+03	1.875899E-02	5.786870E-04
3.863636E+03	1.893714E-02	5.841312E-04
3.872727E+03	1.911583E-02	5.895910E-04
3.881818E+03	1.929504E-02	5.950657E-04
3.890909E+03	1.947472E-02	6.005538E-04
3.900000E+03	1.965479E-02	6.060528E-04
3.909091E+03	1.983525E-02	6.115623E-04
3.918182E+03	2.001600E-02	6.170800E-04
3.927273E+03	2.019701E-02	6.226042E-04
3.936364E+03	2.037520E-02	6.280405E-04
3.945455E+03	2.055653E-02	6.335724E-04
3.954545E+03	2.073797E-02	6.391064E-04
3.963636E+03	2.091943E-02	6.446398E-04
3.972727E+03	2.110088E-02	6.501718E-04
3.981818E+03	2.128225E-02	6.557003E-04
3.990909E+03	2.146030E-02	6.611248E-04
4.000000E+03	2.164131E-02	6.666398E-04
4.009091E+03	2.182206E-02	6.721453E-04
4.018182E+03	2.200250E-02	6.776401E-04
4.027273E+03	2.217927E-02	6.830208E-04
4.036364E+03	2.235887E-02	6.884873E-04
4.045455E+03	2.253797E-02	6.939369E-04
4.054545E+03	2.271313E-02	6.992646E-04
4.063636E+03	2.289100E-02	7.046742E-04
4.072727E+03	2.306818E-02	7.100611E-04
4.081818E+03	2.324117E-02	7.153181E-04
4.090909E+03	2.341673E-02	7.206532E-04
4.100000E+03	2.358794E-02	7.258528E-04
4.109091E+03	2.376164E-02	7.311281E-04
4.118182E+03	2.393080E-02	7.362625E-04
4.127273E+03	2.410236E-02	7.414696E-04
4.136364E+03	2.426922E-02	7.465306E-04
4.145455E+03	2.443838E-02	7.516615E-04
4.154545E+03	2.460265E-02	7.566407E-04
4.163636E+03	2.476551E-02	7.615757E-04
4.172727E+03	2.493056E-02	7.665765E-04
4.181818E+03	2.509044E-02	7.714174E-04
4.190909E+03	2.524873E-02	7.762081E-04
4.200000E+03	2.540906E-02	7.810604E-04
4.209091E+03	2.556394E-02	7.857442E-04
4.218182E+03	2.571703E-02	7.903720E-04
4.227273E+03	2.586824E-02	7.949407E-04
4.236364E+03	2.601751E-02	7.994488E-04
4.245455E+03	2.616859E-02	8.040114E-04
4.254545E+03	2.631381E-02	8.083929E-04
4.263636E+03	2.645691E-02	8.127080E-04
4.272727E+03	2.659779E-02	8.169540E-04
4.281818E+03	2.673640E-02	8.211295E-04
4.290909E+03	2.687270E-02	8.252331E-04
4.300000E+03	2.700661E-02	8.292619E-04
4.309091E+03	2.713806E-02	8.332147E-04
4.318182E+03	2.726702E-02	8.370898E-04
4.327273E+03	2.738945E-02	8.407634E-04
4.336364E+03	2.751320E-02	8.444768E-04
4.345455E+03	2.763429E-02	8.481077E-04
4.354545E+03	2.775265E-02	8.516538E-04
4.363636E+03	2.786825E-02	8.551144E-04
4.372727E+03	2.797698E-02	8.583633E-04
4.381818E+03	2.808687E-02	8.616471E-04
4.390909E+03	2.819385E-02	8.648408E-04
4.400000E+03	2.829380E-02	8.678181E-04
4.409091E+03	2.839483E-02	8.708278E-04
4.418182E+03	2.849285E-02	8.737443E-04
4.427273E+03	2.858370E-02	8.764405E-04
4.436364E+03	2.867557E-02	8.791672E-04
4.445455E+03	2.876021E-02	8.816713E-04
4.454545E+03	2.884584E-02	8.842056E-04
4.463636E+03	2.892416E-02	8.865148E-04
4.472727E+03	2.900346E-02	8.888538E-04
4.481818E+03	2.907541E-02	8.909665E-04
4.490909E+03	2.914416E-02	8.929810E-04
4.500000E+03	2.921389E-02	8.950249E-04
4.509091E+03	2.927622E-02	8.968418E-04
4.518182E+03	2.933536E-02	8.985602E-04
4.527273E+03	2.939130E-02	9.001803E-04
4.536364E+03	2.944407E-02	9.017028E-04
4.545455E+03	2.949790E-02	9.032575E-04
4.554545E+03	2.954439E-02	9.045869E-04
4.563636E+03	2.958776E-02	9.058208E-04
4.572727E+03	2.962807E-02	9.069603E-04
4.581818E+03	2.966534E-02	9.080066E-04
4.590909E+03	2.969963E-02	9.089614E-04
4.600000E+03	2.973098E-02	9.098258E-04
4.609091E+03	2.975942E-02	9.106011E-04
4.618182E+03	2.978503E-02	9.112898E-04
4.627273E+03	2.980787E-02	9.118932E-04
4.636364E+03	2.982374E-02	9.122834E-04
4.645455E+03	2.984121E-02	9.127225E-04
4.654545E+03	2.985613E-02	9.130832E-04
4.663636E+03	2.986852E-02	9.133668E-04
4.672727E+03	2.987425E-02	9.134465E-04
4.681818E+03	2.988189E-02	9.135846E-04
4.690909E+03	2.988729E-02	9.136541E-04
4.700000E+03	2.988626E-02	9.135269E-04
4.709091E+03	2.988740E-02	9.134661E-04
4.718182E+03	2.988231E-02	9.132153E-04
4.727273E+03	2.987957E-02	9.130360E-04
4.736364E+03	2.987078E-02	9.126719E-04
4.745455E+03	2.986452E-02	9.123853E-04
4.754545E+03	2.985243E-02	9.119208E-04
4.763636E+03	2.984305E-02	9.115390E-04
4.772727E+03	2.982804E-02	9.109854E-04
4.781818E+03	2.981171E-02	9.103917E-04
4.790909E+03	2.979838E-02	9.098898E-04
4.800000E+03	2.977972E-02	9.092251E-04
4.809091E+03	2.976004E-02	9.085296E-04
4.818182E+03	2.973944E-02	9.078061E-04
4.827273E+03	2.971800E-02	9.070574E-04
4.836364E+03	2.969582E-02	9.062862E-04
4.845455E+03	2.967717E-02	9.056232E-04
4.854545E+03	2.965379E-02	9.048158E-04
4.863636E+03	2.962993E-02	9.039941E-04
4.872727E+03	2.960567E-02	9.031604E-04
4.881818E+03	2.958111E-02	9.023180E-04
4.890909E+03	2.955633E-02	9.014689E-04
4.900000E+03	2.952722E-02	9.004883E-04
4.909091E+03	2.950220E-02	8.996329E-04
4.918182E+03	2.947718E-02	8.987775E-04
4.927273E+03	2.945220E-02	8.979236E-04
4.936364E+03	2.942735E-02	8.970741E-04
4.945455E+03	2.940267E-02	8.962300E-04
4.954545E+03	2.937407E-02	8.952671E-04
4.963636E+03	2.934989E-02	8.944391E-04
4.972727E+03	2.932606E-02	8.936219E-04
4.981818E+03	2.929846E-02	8.926902E-04
4.990909E+03	2.927539E-02	8.918972E-04
5.000000E+03	2.924865E-02	8.909925E-04
5.009091E+03	2.922652E-02	8.902287E-04
5.018182E+03	2.920078E-02	8.893551E-04
5.027273E+03	2.917965E-02	8.886227E-04
5.036364E+03	2.915500E-02	8.877830E-04
5.045455E+03	2.913499E-02	8.870852E-04
5.054545E+03	2.911147E-02	8.862812E-04
5.063636E+03	2.908852E-02	8.854948E-04
5.072727E+03	2.907025E-02	8.848512E-04
5.081818E+03	2.904850E-02	8.841019E-04
5.090909E+03	2.902732E-02	8.833706E-04
5.100000E+03	2.901080E-02	8.827816E-04
5.109091E+03	2.899078E-02	8.820864E-04
5.118182E+03	2.897132E-02	8.814085E-04
5.127273E+03	2.895241E-02	8.807479E-04
5.136364E+03	2.893402E-02	8.801038E-04
5.145455E+03	2.891614E-02	8.794753E-04
5.154545E+03	2.889873E-02	8.788620E-04
5.163636E+03	2.888180E-02	8.782635E-04
5.172727E+03	2.886530E-02	8.776785E-04
5.181818E+03	2.884920E-02	8.771061E-04
5.190909E+03	2.883346E-02	8.765453E-04
5.200000E+03	2.881808E-02	8.759959E-04
5.209091E+03	2.880301E-02	8.754563E-04
5.218182E+03	2.878820E-02	8.749254E-04
5.227273E+03	2.877364E-02	8.744022E-04
5.236364E+03	2.875927E-02	8.738857E-04
5.245455E+03	2.874509E-02	8.733752E-04
5.254545E+03	2.872701E-02	8.727468E-04
5.263636E+03	2.871304E-02	8.722439E-04
5.272727E+03	2.869912E-02	8.717432E-04
5.281818E+03	2.868123E-02	8.711223E-04
5.290909E+03	2.866732E-02	8.706230E-04
5.300000E+03	2.865338E-02	8.701232E-04
5.309091E+03	2.863533E-02	8.694993E-04
5.318182E+03	2.862118E-02	8.689945E-04
5.327273E+03	2.860287E-02	8.683641E-04
5.336364E+03	2.858840E-02	8.678509E-04
5.345455E+03	2.856972E-02	8.672103E-04
5.354545E+03	2.855478E-02	8.666843E-04
5.363636E+03	2.853560E-02	8.660298E-04
5.372727E+03	2.852012E-02	8.654886E-04
5.381818E+03	2.850034E-02	8.648176E-04
5.390909E+03	2.848423E-02	8.642586E-04
5.400000E+03	2.846377E-02	8.635683E-04
5.409091E+03	2.844297E-02	8.628683E-04
5.418182E+03	2.842576E-02	8.622782E-04
5.427273E+03	2.840418E-02	8.615563E-04
5.436364E+03	2.838221E-02	8.608234E-04
5.445455E+03	2.835984E-02	8.600791E-04
5.454545E+03	2.834104E-02	8.594435E-04
5.463636E+03	2.831785E-02	8.586761E-04
5.472727E+03	2.829426E-02	8.578973E-04
5.481818E+03	2.827028E-02	8.571072E-04
5.490909E+03	2.824589E-02	8.563059E-04
5.500000E+03	2.822112E-02	8.554939E-04
5.509091E+03	2.819599E-02	8.546716E-04
5.518182E+03	2.817442E-02	8.539582E-04
5.527273E+03	2.814857E-02	8.531161E-04
5.536364E+03	2.812237E-02	8.522643E-04
5.545455E+03	2.809587E-02	8.514044E-04
5.554545E+03	2.806908E-02	8.505364E-04
5.563636E+03	2.803810E-02	8.495425E-04
5.572727E+03	2.801080E-02	8.486611E-04
5.581818E+03	2.798328E-02	8.477742E-04
5.590909E+03	2.795556E-02	8.468821E-04
5.600000E+03	2.792770E-02	8.459865E-04
5.609091E+03	2.789968E-02	8.450873E-04
5.618182E+03	2.787155E-02	8.441860E-04
5.627273E+03	2.784335E-02	8.432831E-04
5.636364E+03	2.781120E-02	8.422620E-04
5.645455E+03	2.778292E-02	8.413590E-04
5.654545E+03	2.775462E-02	8.404564E-04
5.663636E+03	2.772633E-02	8.395553E-04
5.672727E+03	2.769420E-02	8.385387E-04
5.681818E+03	2.766597E-02	8.376415E-04
5.690909E+03	2.763781E-02	8.367472E-04
5.700000E+03	2.760583E-02	8.357384E-04
5.709091E+03	2.757780E-02	8.348500E-04
5.718182E+03	2.754598E-02	8.338481E-04
5.727273E+03	2.751810E-02	8.329662E-04
5.736364E+03	2.749032E-02	8.320884E-04
5.745455E+03	2.745878E-02	8.310978E-04
5.754545E+03	2.743119E-02	8.302275E-04
5.763636E+03	2.739987E-02	8.292455E-04
5.772727E+03	2.737249E-02	8.283838E-04
5.781818E+03	2.734141E-02	8.274108E-04
5.790909E+03	2.731426E-02	8.265578E-04
5.800000E+03	2.728343E-02	8.255944E-04
5.809091E+03	2.725274E-02	8.246360E-04
5.818182E+03	2.722598E-02	8.237973E-04
5.827273E+03	2.719556E-02	8.228491E-04
5.836364E+03	2.716907E-02	8.220208E-04
5.845455E+03	2.713894E-02	8.210828E-04
5.854545E+03	2.710895E-02	8.201505E-04
5.863636E+03	2.708291E-02	8.193382E-04
5.872727E+03	2.705323E-02	8.184166E-04
5.881818E+03	2.702369E-02	8.175002E-04
5.890909E+03	2.699432E-02	8.165899E-04
5.900000E+03	2.696889E-02	8.157995E-04
5.909091E+03	2.693983E-02	8.149001E-04
5.918182E+03	2.691092E-02	8.140065E-04
5.927273E+03	2.688218E-02	8.131185E-04
5.936364E+03	2.685737E-02	8.123501E-04
5.945455E+03	2.682894E-02	8.114731E-04
5.954545E+03	2.680065E-02	8.106013E-04
5.963636E+03	2.677253E-02	8.097353E-04
5.972727E+03	2.674456E-02	8.088746E-04
5.981818E+03	2.671673E-02	8.080191E-04
5.990909E+03	2.668906E-02	8.071688E-04
6.000000E+03	2.666151E-02	8.063234E-04
6.009091E+03	2.663409E-02	8.054823E-04
6.018182E+03	2.661052E-02	8.047588E-04
6.027273E+03	2.658335E-02	8.039268E-04
6.036364E+03	2.655628E-02	8.030987E-04
6.045455E+03	2.652933E-02	8.022749E-04
6.054545E+03	2.650244E-02	8.014539E-04
6.063636E+03	2.647194E-02	8.005242E-04
6.072727E+03	2.644523E-02	7.997099E-04
6.081818E+03	2.641859E-02	7.988985E-04
6.090909E+03	2.639200E-02	7.980894E-04
6.100000E+03	2.636547E-02	7.972826E-04
6.109091E+03	2.633896E-02	7.964773E-04
6.118182E+03	2.631247E-02	7.956733E-04
6.127273E+03	2.628599E-02	7.948702E-04
6.136364E+03	2.625952E-02	7.940680E-04
6.145455E+03	2.622935E-02	7.931547E-04
6.154545E+03	2.620283E-02	7.923527E-04
6.163636E+03	2.617628E-02	7.915501E-04
6.172727E+03	2.614968E-02	7.907469E-04
6.181818E+03	2.612302E-02	7.899426E-04
6.190909E+03	2.609263E-02	7.890258E-04
6.200000E+03	2.606580E-02	7.882177E-04
6.209091E+03	2.603890E-02	7.874079E-04
6.218182E+03	2.601187E-02	7.865950E-04
6.227273E+03	2.598106E-02	7.856685E-04
6.236364E+03	2.595380E-02	7.848497E-04
6.245455E+03	2.592637E-02	7.840268E-04
6.254545E+03	2.589515E-02	7.830896E-04
6.263636E+03	2.586742E-02	7.822588E-04
6.272727E+03	2.583950E-02	7.814228E-04
6.281818E+03	2.580778E-02	7.804724E-04
6.290909E+03	2.577949E-02	7.796264E-04
6.300000E+03	2.574737E-02	7.786654E-04
6.309091E+03	2.571869E-02	7.778090E-04
6.318182E+03	2.568617E-02	7.768368E-04
6.327273E+03	2.565703E-02	7.759679E-04
6.336364E+03	2.562768E-02	7.750931E-04
6.345455E+03	2.559449E-02	7.741024E-04
6.354545E+03	2.556466E-02	7.732146E-04
6.363636E+03	2.553100E-02	7.722112E-04
6.372727E+03	2.550071E-02	7.713101E-04
6.381818E+03	2.546656E-02	7.702934E-04
6.390909E+03	2.543217E-02	7.692697E-04
6.400000E+03	2.540115E-02	7.683485E-04
6.409091E+03	2.536627E-02	7.673114E-04
6.418182E+03	2.533475E-02	7.663763E-04
6.427273E+03	2.529941E-02	7.653263E-04
6.436364E+03	2.526383E-02	7.642698E-04
6.445455E+03	2.523159E-02	7.633148E-04
6.454545E+03	2.519556E-02	7.622457E-04
6.463636E+03	2.515931E-02	7.611706E-04
6.472727E+03	2.512640E-02	7.601972E-04
6.481818E+03	2.508973E-02	7.591104E-04
6.490909E+03	2.505285E-02	7.580181E-04
6.500000E+03	2.501932E-02	7.570276E-04
6.509091E+03	2.498207E-02	7.559251E-04
6.518182E+03	2.494464E-02	7.548180E-04
6.527273E+03	2.490706E-02	7.537067E-04
6.536364E+03	2.487285E-02	7.526980E-04
6.545455E+03	2.483496E-02	7.515785E-04
6.554545E+03	2.479695E-02	7.504558E-04
6.563636E+03	2.475883E-02	7.493305E-04
6.572727E+03	2.472058E-02	7.482021E-04
6.581818E+03	2.468226E-02	7.470720E-04
6.590909E+03	2.464737E-02	7.460462E-04
6.600000E+03	2.460889E-02	7.449123E-04
6.609091E+03	2.457037E-02	7.437777E-04
6.618182E+03	2.453182E-02	7.426431E-04
6.627273E+03	2.449325E-02	7.415082E-04
6.636364E+03	2.445465E-02	7.403732E-04
6.645455E+03	2.441608E-02	7.392396E-04
6.654545E+03	2.437752E-02	7.381068E-04
6.663636E+03	2.433900E-02	7.369758E-04
6.672727E+03	2.430055E-02	7.358473E-04
6.681818E+03	2.426215E-02	7.347211E-04
6.690909E+03	2.422382E-02	7.335978E-04
6.700000E+03	2.418559E-02	7.324778E-04
6.709091E+03	2.414747E-02	7.313618E-04
6.718182E+03	2.410946E-02	7.302497E-04
6.727273E+03	2.407159E-02	7.291425E-04
6.736364E+03	2.403386E-02	7.280403E-04
6.745455E+03	2.399630E-02	7.269435E-04
6.754545E+03	2.395546E-02	7.257483E-04
6.763636E+03	2.391825E-02	7.246633E-04
6.772727E+03	2.388122E-02	7.235844E-04
6.781818E+03	2.384439E-02	7.225124E-04
6.790909E+03	2.380778E-02	7.214474E-04
6.800000E+03	2.377138E-02	7.203895E-04
6.809091E+03	2.373181E-02	7.192359E-04
6.818182E+03	2.369586E-02	7.181930E-04
6.827273E+03	2.366016E-02	7.171581E-04
6.836364E+03	2.362469E-02	7.161307E-04
6.845455E+03	2.358609E-02	7.150092E-04
6.854545E+03	2.355111E-02	7.139979E-04
6.863636E+03	2.351638E-02	7.129946E-04
6.872727E+03	2.347852E-02	7.118969E-04
6.881818E+03	2.344424E-02	7.109086E-04
6.890909E+03	2.341017E-02	7.099273E-04
6.900000E+03	2.337296E-02	7.088509E-04
6.909091E+03	2.333928E-02	7.078824E-04
6.918182E+03	2.330243E-02	7.068182E-04
6.927273E+03	2.326910E-02	7.058609E-04
6.936364E+03	2.323589E-02	7.049080E-04
6.945455E+03	2.319945E-02	7.038576E-04
6.954545E+03	2.316646E-02	7.029122E-04
6.963636E+03	2.313022E-02	7.018686E-04
6.972727E+03	2.309738E-02	7.009286E-04
6.981818E+03	2.306125E-02	6.998892E-04
6.990909E+03	2.302847E-02	6.989519E-04
7.000000E+03	2.299237E-02	6.979141E-04
7.009091E+03	2.295625E-02	6.968762E-04
7.018182E+03	2.292340E-02	6.959378E-04
7.027273E+03	2.288719E-02	6.948977E-04
7.036364E+03	2.285421E-02	6.939561E-04
7.045455E+03	2.281781E-02	6.929110E-04
7.054545E+03	2.278130E-02	6.918627E-04
