#wls	flux	fluxerr
1.454545E+03	2.028095E-03	1.492858E-04
1.490909E+03	2.077313E-03	1.528040E-04
1.527273E+03	2.124124E-03	1.561373E-04
1.563636E+03	2.167028E-03	1.591754E-04
1.600000E+03	2.205781E-03	1.619011E-04
1.636364E+03	2.238877E-03	1.642041E-04
1.672727E+03	2.264743E-03	1.659700E-04
1.709091E+03	2.280225E-03	1.669689E-04
1.745455E+03	2.283708E-03	1.670842E-04
1.781818E+03	2.273095E-03	1.661648E-04
1.818182E+03	2.249069E-03	1.642633E-04
1.854545E+03	2.217086E-03	1.617804E-04
1.890909E+03	2.189225E-03	1.595982E-04
1.927273E+03	2.182771E-03	1.589751E-04
1.963636E+03	2.214316E-03	1.611136E-04
2.000000E+03	2.290493E-03	1.664875E-04
2.036364E+03	2.408022E-03	1.748482E-04
2.072727E+03	2.554518E-03	1.852872E-04
2.109091E+03	2.718155E-03	1.969399E-04
2.145455E+03	2.888724E-03	2.090624E-04
2.181818E+03	3.060325E-03	2.212254E-04
2.218182E+03	3.230772E-03	2.332694E-04
2.254545E+03	3.398201E-03	2.450592E-04
2.290909E+03	3.564116E-03	2.567026E-04
2.327273E+03	3.728130E-03	2.681712E-04
2.363636E+03	3.892543E-03	2.796293E-04
2.400000E+03	4.057762E-03	2.911047E-04
2.436364E+03	4.224768E-03	3.026663E-04
2.472727E+03	4.394460E-03	3.143765E-04
2.509091E+03	4.567663E-03	3.262920E-04
2.545455E+03	4.745125E-03	3.384638E-04
2.581818E+03	4.928400E-03	3.509995E-04
2.618182E+03	5.116441E-03	3.638216E-04
2.654545E+03	5.311609E-03	3.770942E-04
2.690909E+03	5.512663E-03	3.907255E-04
2.727273E+03	5.722042E-03	4.048843E-04
2.736364E+03	5.775858E-03	4.085178E-04
2.745455E+03	5.830183E-03	4.121832E-04
2.754545E+03	5.884004E-03	4.158087E-04
2.763636E+03	5.939429E-03	4.195433E-04
2.772727E+03	5.995687E-03	4.233322E-04
2.781818E+03	6.053032E-03	4.271934E-04
2.790909E+03	6.110342E-03	4.310477E-04
2.800000E+03	6.169670E-03	4.350395E-04
2.809091E+03	6.229916E-03	4.390914E-04
2.818182E+03	6.291031E-03	4.431995E-04
2.827273E+03	6.352975E-03	4.473612E-04
2.836364E+03	6.414598E-03	4.514952E-04
2.845455E+03	6.478075E-03	4.557546E-04
2.854545E+03	6.542277E-03	4.600599E-04
2.863636E+03	6.607176E-03	4.644089E-04
2.872727E+03	6.671595E-03	4.687188E-04
2.881818E+03	6.737807E-03	4.731493E-04
2.890909E+03	6.804652E-03	4.776187E-04
2.900000E+03	6.872117E-03	4.821260E-04
2.909091E+03	6.940185E-03	4.866699E-04
2.918182E+03	7.008846E-03	4.912497E-04
2.927273E+03	7.076872E-03	4.957791E-04
2.936364E+03	7.146685E-03	5.004279E-04
2.945455E+03	7.217068E-03	5.051107E-04
2.954545E+03	7.288023E-03	5.098274E-04
2.963636E+03	7.359546E-03	5.145777E-04
2.972727E+03	7.431636E-03	5.193615E-04
2.981818E+03	7.504297E-03	5.241788E-04
2.990909E+03	7.576225E-03	5.289387E-04
3.000000E+03	7.650019E-03	5.338224E-04
3.009091E+03	7.724396E-03	5.387403E-04
3.018182E+03	7.799358E-03	5.436924E-04
3.027273E+03	7.874914E-03	5.486792E-04
3.036364E+03	7.951071E-03	5.537011E-04
3.045455E+03	8.027839E-03	5.587587E-04
3.054545E+03	8.105225E-03	5.638524E-04
3.063636E+03	8.181836E-03	5.688851E-04
3.072727E+03	8.260477E-03	5.740520E-04
3.081818E+03	8.339769E-03	5.792570E-04
3.090909E+03	8.419723E-03	5.845006E-04
3.100000E+03	8.500349E-03	5.897834E-04
3.109091E+03	8.581662E-03	5.951065E-04
3.118182E+03	8.663672E-03	6.004704E-04
3.127273E+03	8.746394E-03	6.058759E-04
3.136364E+03	8.829840E-03	6.113238E-04
3.145455E+03	8.914021E-03	6.168148E-04
3.154545E+03	8.998954E-03	6.223498E-04
3.163636E+03	9.083095E-03	6.278221E-04
3.172727E+03	9.169553E-03	6.334464E-04
3.181818E+03	9.256799E-03	6.391169E-04
3.190909E+03	9.344850E-03	6.448346E-04
3.200000E+03	9.433715E-03	6.506000E-04
3.209091E+03	9.523409E-03	6.564140E-04
3.218182E+03	9.613946E-03	6.622774E-04
3.227273E+03	9.705338E-03	6.681909E-04
3.236364E+03	9.797597E-03	6.741552E-04
3.245455E+03	9.890735E-03	6.801709E-04
3.254545E+03	9.984767E-03	6.862388E-04
3.263636E+03	1.007970E-02	6.923596E-04
3.272727E+03	1.017555E-02	6.985340E-04
3.281818E+03	1.027233E-02	7.047624E-04
3.290909E+03	1.037004E-02	7.110455E-04
3.300000E+03	1.046871E-02	7.173840E-04
3.309091E+03	1.056833E-02	7.237782E-04
3.318182E+03	1.066892E-02	7.302288E-04
3.327273E+03	1.076866E-02	7.366110E-04
3.336364E+03	1.087120E-02	7.431746E-04
3.345455E+03	1.097474E-02	7.497959E-04
3.354545E+03	1.107928E-02	7.564752E-04
3.363636E+03	1.118483E-02	7.632130E-04
3.372727E+03	1.129140E-02	7.700095E-04
3.381818E+03	1.139900E-02	7.768651E-04
3.390909E+03	1.150763E-02	7.837800E-04
3.400000E+03	1.161729E-02	7.907543E-04
3.409091E+03	1.172800E-02	7.977883E-04
3.418182E+03	1.183976E-02	8.048820E-04
3.427273E+03	1.195257E-02	8.120355E-04
3.436364E+03	1.206643E-02	8.192489E-04
3.445455E+03	1.218135E-02	8.265223E-04
3.454545E+03	1.229733E-02	8.338554E-04
3.463636E+03	1.241437E-02	8.412483E-04
3.472727E+03	1.253247E-02	8.487008E-04
3.481818E+03	1.265163E-02	8.562127E-04
3.490909E+03	1.277185E-02	8.637838E-04
3.500000E+03	1.289313E-02	8.714138E-04
3.509091E+03	1.301547E-02	8.791024E-04
3.518182E+03	1.313887E-02	8.868493E-04
3.527273E+03	1.326107E-02	8.945028E-04
3.536364E+03	1.338655E-02	9.023634E-04
3.545455E+03	1.351306E-02	9.102808E-04
3.554545E+03	1.364061E-02	9.182544E-04
3.563636E+03	1.376919E-02	9.262834E-04
3.572727E+03	1.389879E-02	9.343674E-04
3.581818E+03	1.402940E-02	9.425054E-04
3.590909E+03	1.416102E-02	9.506967E-04
3.600000E+03	1.429363E-02	9.589406E-04
3.609091E+03	1.442722E-02	9.672359E-04
3.618182E+03	1.456179E-02	9.755818E-04
3.627273E+03	1.469731E-02	9.839772E-04
3.636364E+03	1.483378E-02	9.924211E-04
3.645455E+03	1.497119E-02	1.000912E-03
3.654545E+03	1.510696E-02	1.009280E-03
3.663636E+03	1.524616E-02	1.017861E-03
3.672727E+03	1.538623E-02	1.026485E-03
3.681818E+03	1.552717E-02	1.035152E-03
3.690909E+03	1.566895E-02	1.043859E-03
3.700000E+03	1.581156E-02	1.052606E-03
3.709091E+03	1.595497E-02	1.061390E-03
3.718182E+03	1.609916E-02	1.070210E-03
3.727273E+03	1.624413E-02	1.079066E-03
3.736364E+03	1.638981E-02	1.087953E-03
3.745455E+03	1.653344E-02	1.096688E-03
3.754545E+03	1.668048E-02	1.105633E-03
3.763636E+03	1.682819E-02	1.114605E-03
3.772727E+03	1.697654E-02	1.123604E-03
3.781818E+03	1.712548E-02	1.132625E-03
3.790909E+03	1.727499E-02	1.141667E-03
3.800000E+03	1.742503E-02	1.150728E-03
3.809091E+03	1.757265E-02	1.159611E-03
3.818182E+03	1.772365E-02	1.168702E-03
3.827273E+03	1.787509E-02	1.177804E-03
3.836364E+03	1.802694E-02	1.186916E-03
3.845455E+03	1.817916E-02	1.196035E-03
3.854545E+03	1.833170E-02	1.205159E-03
3.863636E+03	1.848146E-02	1.214083E-03
3.872727E+03	1.863452E-02	1.223206E-03
3.881818E+03	1.878780E-02	1.232326E-03
3.890909E+03	1.894127E-02	1.241442E-03
3.900000E+03	1.909484E-02	1.250547E-03
3.909091E+03	1.924532E-02	1.259432E-03
3.918182E+03	1.939902E-02	1.268511E-03
3.927273E+03	1.955271E-02	1.277572E-03
3.936364E+03	1.970636E-02	1.286613E-03
3.945455E+03	1.985661E-02	1.295415E-03
3.954545E+03	2.001001E-02	1.304405E-03
3.963636E+03	2.016321E-02	1.313365E-03
3.972727E+03	2.031617E-02	1.322292E-03
3.981818E+03	2.046544E-02	1.330963E-03
3.990909E+03	2.061776E-02	1.339814E-03
4.000000E+03	2.076970E-02	1.348623E-03
4.009091E+03	2.092116E-02	1.357385E-03
4.018182E+03	2.106866E-02	1.365872E-03
4.027273E+03	2.121907E-02	1.374532E-03
4.036364E+03	2.136888E-02	1.383136E-03
4.045455E+03	2.151446E-02	1.391450E-03
4.054545E+03	2.166286E-02	1.399930E-03
4.063636E+03	2.181050E-02	1.408344E-03
4.072727E+03	2.195367E-02	1.416453E-03
4.081818E+03	2.209955E-02	1.424721E-03
4.090909E+03	2.224451E-02	1.432914E-03
4.100000E+03	2.238474E-02	1.440786E-03
4.109091E+03	2.252761E-02	1.448813E-03
4.118182E+03	2.266559E-02	1.456510E-03
4.127273E+03	2.280612E-02	1.464356E-03
4.136364E+03	2.294540E-02	1.472105E-03
4.145455E+03	2.307956E-02	1.479512E-03
4.154545E+03	2.321616E-02	1.487061E-03
4.163636E+03	2.334747E-02	1.494256E-03
4.172727E+03	2.348112E-02	1.501588E-03
4.181818E+03	2.361323E-02	1.508806E-03
4.190909E+03	2.373980E-02	1.515657E-03
4.200000E+03	2.386861E-02	1.522637E-03
4.209091E+03	2.399171E-02	1.529240E-03
4.218182E+03	2.411696E-02	1.535967E-03
4.227273E+03	2.423636E-02	1.542309E-03
4.236364E+03	2.435783E-02	1.548770E-03
4.245455E+03	2.447328E-02	1.554836E-03
4.254545E+03	2.459070E-02	1.561016E-03
4.263636E+03	2.470195E-02	1.566793E-03
4.272727E+03	2.481511E-02	1.572680E-03
4.281818E+03	2.492193E-02	1.578155E-03
4.290909E+03	2.503059E-02	1.583735E-03
4.300000E+03	2.513276E-02	1.588895E-03
4.309091E+03	2.523666E-02	1.594155E-03
4.318182E+03	2.533396E-02	1.598989E-03
4.327273E+03	2.542873E-02	1.603654E-03
4.336364E+03	2.552510E-02	1.608412E-03
4.345455E+03	2.561467E-02	1.612732E-03
4.354545E+03	2.570579E-02	1.617144E-03
4.363636E+03	2.578996E-02	1.621110E-03
4.372727E+03	2.587135E-02	1.624895E-03
4.381818E+03	2.595420E-02	1.628765E-03
4.390909E+03	2.602994E-02	1.632183E-03
4.400000E+03	2.610277E-02	1.635414E-03
4.409091E+03	2.617698E-02	1.638725E-03
4.418182E+03	2.624395E-02	1.641579E-03
4.427273E+03	2.630793E-02	1.644242E-03
4.436364E+03	2.637326E-02	1.646985E-03
4.445455E+03	2.643128E-02	1.649268E-03
4.454545E+03	2.648629E-02	1.651362E-03
4.463636E+03	2.654266E-02	1.653537E-03
4.472727E+03	2.659171E-02	1.655254E-03
4.481818E+03	2.663779E-02	1.656785E-03
4.490909E+03	2.668092E-02	1.658131E-03
4.500000E+03	2.672551E-02	1.659567E-03
4.509091E+03	2.676282E-02	1.660550E-03
4.518182E+03	2.679727E-02	1.661354E-03
4.527273E+03	2.682886E-02	1.661983E-03
4.536364E+03	2.685763E-02	1.662436E-03
4.545455E+03	2.688804E-02	1.662991E-03
4.554545E+03	2.691131E-02	1.663106E-03
4.563636E+03	2.693187E-02	1.663054E-03
4.572727E+03	2.694977E-02	1.662840E-03
4.581818E+03	2.696504E-02	1.662464E-03
4.590909E+03	2.697772E-02	1.661932E-03
4.600000E+03	2.698786E-02	1.661245E-03
4.609091E+03	2.699991E-02	1.660678E-03
4.618182E+03	2.700510E-02	1.659693E-03
4.627273E+03	2.700788E-02	1.658562E-03
4.636364E+03	2.700829E-02	1.657289E-03
4.645455E+03	2.700640E-02	1.655879E-03
4.654545E+03	2.700224E-02	1.654334E-03
4.663636E+03	2.699586E-02	1.652656E-03
4.672727E+03	2.698732E-02	1.650852E-03
4.681818E+03	2.697666E-02	1.648922E-03
4.690909E+03	2.696394E-02	1.646870E-03
4.700000E+03	2.694921E-02	1.644702E-03
4.709091E+03	2.693251E-02	1.642419E-03
4.718182E+03	2.691392E-02	1.640026E-03
4.727273E+03	2.689346E-02	1.637525E-03
4.736364E+03	2.687119E-02	1.634920E-03
4.745455E+03	2.684719E-02	1.632216E-03
4.754545E+03	2.682148E-02	1.629415E-03
4.763636E+03	2.679412E-02	1.626520E-03
4.772727E+03	2.676518E-02	1.623536E-03
4.781818E+03	2.673470E-02	1.620465E-03
4.790909E+03	2.669839E-02	1.617049E-03
4.800000E+03	2.666498E-02	1.613817E-03
4.809091E+03	2.663020E-02	1.610509E-03
4.818182E+03	2.659410E-02	1.607129E-03
4.827273E+03	2.655672E-02	1.603679E-03
4.836364E+03	2.651810E-02	1.600164E-03
4.845455E+03	2.647832E-02	1.596586E-03
4.854545E+03	2.643309E-02	1.592688E-03
4.863636E+03	2.639111E-02	1.588996E-03
4.872727E+03	2.634811E-02	1.585250E-03
4.881818E+03	2.630412E-02	1.581454E-03
4.890909E+03	2.625921E-02	1.577612E-03
4.900000E+03	2.620915E-02	1.573470E-03
4.909091E+03	2.616252E-02	1.569544E-03
4.918182E+03	2.611511E-02	1.565580E-03
4.927273E+03	2.606695E-02	1.561582E-03
4.936364E+03	2.601385E-02	1.557297E-03
4.945455E+03	2.596436E-02	1.553238E-03
4.954545E+03	2.591425E-02	1.549153E-03
4.963636E+03	2.585936E-02	1.544792E-03
4.972727E+03	2.580815E-02	1.540662E-03
4.981818E+03	2.575647E-02	1.536514E-03
4.990909E+03	2.570017E-02	1.532101E-03
5.000000E+03	2.564765E-02	1.527925E-03
5.009091E+03	2.559476E-02	1.523737E-03
5.018182E+03	2.553739E-02	1.519294E-03
5.027273E+03	2.548388E-02	1.515092E-03
5.036364E+03	2.543014E-02	1.510887E-03
5.045455E+03	2.537204E-02	1.506434E-03
5.054545E+03	2.531789E-02	1.502228E-03
5.063636E+03	2.525950E-02	1.497782E-03
5.072727E+03	2.520510E-02	1.493583E-03
5.081818E+03	2.514654E-02	1.489151E-03
5.090909E+03	2.509200E-02	1.484968E-03
5.100000E+03	2.503341E-02	1.480558E-03
5.109091E+03	2.497887E-02	1.476399E-03
5.118182E+03	2.492439E-02	1.472256E-03
5.127273E+03	2.486595E-02	1.467891E-03
5.136364E+03	2.481165E-02	1.463783E-03
5.145455E+03	2.475346E-02	1.459458E-03
5.154545E+03	2.469544E-02	1.455156E-03
5.163636E+03	2.464163E-02	1.451114E-03
5.172727E+03	2.458404E-02	1.446863E-03
5.181818E+03	2.453068E-02	1.442874E-03
5.190909E+03	2.447361E-02	1.438679E-03
5.200000E+03	2.442080E-02	1.434747E-03
5.209091E+03	2.436436E-02	1.430616E-03
5.218182E+03	2.430826E-02	1.426517E-03
5.227273E+03	2.425649E-02	1.422686E-03
5.236364E+03	2.420115E-02	1.418659E-03
5.245455E+03	2.415016E-02	1.414901E-03
5.254545E+03	2.409569E-02	1.410952E-03
5.263636E+03	2.404169E-02	1.407044E-03
5.272727E+03	2.399207E-02	1.403406E-03
5.281818E+03	2.393907E-02	1.399584E-03
5.290909E+03	2.388658E-02	1.395806E-03
5.300000E+03	2.383851E-02	1.392300E-03
5.309091E+03	2.378716E-02	1.388616E-03
5.318182E+03	2.373639E-02	1.384981E-03
5.327273E+03	2.369006E-02	1.381619E-03
5.336364E+03	2.364054E-02	1.378085E-03
5.345455E+03	2.359166E-02	1.374602E-03
5.354545E+03	2.354345E-02	1.371174E-03
5.363636E+03	2.349975E-02	1.368022E-03
5.372727E+03	2.345295E-02	1.364704E-03
5.381818E+03	2.340687E-02	1.361444E-03
5.390909E+03	2.336155E-02	1.358242E-03
5.400000E+03	2.332078E-02	1.355320E-03
5.409091E+03	2.327701E-02	1.352238E-03
5.418182E+03	2.323405E-02	1.349219E-03
5.427273E+03	2.319190E-02	1.346261E-03
5.436364E+03	2.315061E-02	1.343369E-03
5.445455E+03	2.311019E-02	1.340542E-03
5.454545E+03	2.307438E-02	1.337999E-03
5.463636E+03	2.303573E-02	1.335307E-03
5.472727E+03	2.299799E-02	1.332682E-03
5.481818E+03	2.296119E-02	1.330129E-03
5.490909E+03	2.292533E-02	1.327645E-03
5.500000E+03	2.289045E-02	1.325234E-03
5.509091E+03	2.285656E-02	1.322897E-03
5.518182E+03	2.282365E-02	1.320632E-03
5.527273E+03	2.279548E-02	1.318658E-03
5.536364E+03	2.276461E-02	1.316545E-03
5.545455E+03	2.273482E-02	1.314510E-03
5.554545E+03	2.270607E-02	1.312552E-03
5.563636E+03	2.267841E-02	1.310674E-03
5.572727E+03	2.265184E-02	1.308876E-03
5.581818E+03	2.262636E-02	1.307158E-03
5.590909E+03	2.260200E-02	1.305521E-03
5.600000E+03	2.257876E-02	1.303967E-03
5.609091E+03	2.255665E-02	1.302495E-03
5.618182E+03	2.253569E-02	1.301107E-03
5.627273E+03	2.251587E-02	1.299803E-03
5.636364E+03	2.249723E-02	1.298585E-03
5.645455E+03	2.247973E-02	1.297450E-03
5.654545E+03	2.246339E-02	1.296399E-03
5.663636E+03	2.244820E-02	1.295433E-03
5.672727E+03	2.243414E-02	1.294549E-03
5.681818E+03	2.242124E-02	1.293748E-03
5.690909E+03	2.240944E-02	1.293028E-03
5.700000E+03	2.239877E-02	1.292388E-03
5.709091E+03	2.238918E-02	1.291828E-03
5.718182E+03	2.237706E-02	1.291137E-03
5.727273E+03	2.236964E-02	1.290734E-03
5.736364E+03	2.236326E-02	1.290405E-03
5.745455E+03	2.235791E-02	1.290152E-03
5.754545E+03	2.235357E-02	1.289973E-03
5.763636E+03	2.235024E-02	1.289866E-03
5.772727E+03	2.234790E-02	1.289832E-03
5.781818E+03	2.234651E-02	1.289866E-03
5.790909E+03	2.234244E-02	1.289761E-03
5.800000E+03	2.234290E-02	1.289932E-03
5.809091E+03	2.234429E-02	1.290170E-03
5.818182E+03	2.234655E-02	1.290473E-03
5.827273E+03	2.234967E-02	1.290839E-03
5.836364E+03	2.235365E-02	1.291268E-03
5.845455E+03	2.235481E-02	1.291548E-03
5.854545E+03	2.236043E-02	1.292098E-03
5.863636E+03	2.236682E-02	1.292707E-03
5.872727E+03	2.237399E-02	1.293373E-03
5.881818E+03	2.238193E-02	1.294097E-03
5.890909E+03	2.238698E-02	1.294667E-03
5.900000E+03	2.239638E-02	1.295501E-03
5.909091E+03	2.240650E-02	1.296388E-03
5.918182E+03	2.241732E-02	1.297329E-03
5.927273E+03	2.242517E-02	1.298110E-03
5.936364E+03	2.243734E-02	1.299154E-03
5.945455E+03	2.245016E-02	1.300246E-03
5.954545E+03	2.246364E-02	1.301389E-03
5.963636E+03	2.247409E-02	1.302368E-03
5.972727E+03	2.248879E-02	1.303605E-03
5.981818E+03	2.250409E-02	1.304888E-03
5.990909E+03	2.251635E-02	1.306006E-03
6.000000E+03	2.253280E-02	1.307379E-03
6.009091E+03	2.254984E-02	1.308797E-03
6.018182E+03	2.256375E-02	1.310044E-03
6.027273E+03	2.258185E-02	1.311546E-03
6.036364E+03	2.260049E-02	1.313089E-03
6.045455E+03	2.261595E-02	1.314459E-03
6.054545E+03	2.263558E-02	1.316082E-03
6.063636E+03	2.265570E-02	1.317743E-03
6.072727E+03	2.267258E-02	1.319227E-03
6.081818E+03	2.269361E-02	1.320963E-03
6.090909E+03	2.271139E-02	1.322520E-03
6.100000E+03	2.273327E-02	1.324325E-03
6.109091E+03	2.275556E-02	1.326165E-03
6.118182E+03	2.277457E-02	1.327823E-03
6.127273E+03	2.279765E-02	1.329729E-03
6.136364E+03	2.281740E-02	1.331450E-03
6.145455E+03	2.284119E-02	1.333417E-03
6.154545E+03	2.286534E-02	1.335415E-03
6.163636E+03	2.288610E-02	1.337224E-03
6.172727E+03	2.291088E-02	1.339278E-03
6.181818E+03	2.293225E-02	1.341142E-03
6.190909E+03	2.295761E-02	1.343248E-03
6.200000E+03	2.297952E-02	1.345162E-03
6.209091E+03	2.300542E-02	1.347319E-03
6.218182E+03	2.302780E-02	1.349280E-03
6.227273E+03	2.305417E-02	1.351482E-03
6.236364E+03	2.307699E-02	1.353486E-03
6.245455E+03	2.310376E-02	1.355731E-03
6.254545E+03	2.312694E-02	1.357774E-03
6.263636E+03	2.315406E-02	1.360057E-03
6.272727E+03	2.317755E-02	1.362135E-03
6.281818E+03	2.320495E-02	1.364453E-03
6.290909E+03	2.322868E-02	1.366563E-03
6.300000E+03	2.325629E-02	1.368911E-03
6.309091E+03	2.328020E-02	1.371049E-03
6.318182E+03	2.330797E-02	1.373423E-03
6.327273E+03	2.333200E-02	1.375585E-03
6.336364E+03	2.335985E-02	1.377981E-03
6.345455E+03	2.338391E-02	1.380162E-03
6.354545E+03	2.340798E-02	1.382351E-03
6.363636E+03	2.343583E-02	1.384773E-03
6.372727E+03	2.345982E-02	1.386974E-03
6.381818E+03	2.348759E-02	1.389407E-03
6.390909E+03	2.351144E-02	1.391617E-03
6.400000E+03	2.353520E-02	1.393829E-03
6.409091E+03	2.356269E-02	1.396270E-03
6.418182E+03	2.358619E-02	1.398483E-03
6.427273E+03	2.361338E-02	1.400923E-03
6.436364E+03	2.363655E-02	1.403133E-03
6.445455E+03	2.365952E-02	1.405338E-03
6.454545E+03	2.368612E-02	1.407767E-03
6.463636E+03	2.370864E-02	1.409961E-03
6.472727E+03	2.373088E-02	1.412146E-03
6.481818E+03	2.375671E-02	1.414553E-03
6.490909E+03	2.377835E-02	1.416718E-03
6.500000E+03	2.379966E-02	1.418871E-03
6.509091E+03	2.382450E-02	1.421242E-03
6.518182E+03	2.384506E-02	1.423365E-03
6.527273E+03	2.386520E-02	1.425471E-03
6.536364E+03	2.388882E-02	1.427793E-03
6.545455E+03	2.390806E-02	1.429860E-03
6.554545E+03	2.392681E-02	1.431905E-03
6.563636E+03	2.394896E-02	1.434161E-03
6.572727E+03	2.396665E-02	1.436157E-03
6.581818E+03	2.398376E-02	1.438126E-03
6.590909E+03	2.400025E-02	1.440065E-03
6.600000E+03	2.402002E-02	1.442207E-03
6.609091E+03	2.403521E-02	1.444082E-03
6.618182E+03	2.404969E-02	1.445921E-03
6.627273E+03	2.406343E-02	1.447723E-03
6.636364E+03	2.408032E-02	1.449722E-03
6.645455E+03	2.409248E-02	1.451442E-03
6.654545E+03	2.410379E-02	1.453118E-03
6.663636E+03	2.411423E-02	1.454749E-03
6.672727E+03	2.412375E-02	1.456330E-03
6.681818E+03	2.413624E-02	1.458098E-03
6.690909E+03	2.414381E-02	1.459575E-03
6.700000E+03	2.415034E-02	1.460996E-03
6.709091E+03	2.415579E-02	1.462358E-03
6.718182E+03	2.416013E-02	1.463658E-03
6.727273E+03	2.416727E-02	1.465135E-03
6.736364E+03	2.416927E-02	1.466306E-03
6.745455E+03	2.417002E-02	1.467408E-03
6.754545E+03	2.416950E-02	1.468439E-03
6.763636E+03	2.416765E-02	1.469394E-03
6.772727E+03	2.416445E-02	1.470273E-03
6.781818E+03	2.416379E-02	1.471313E-03
6.790909E+03	2.415774E-02	1.472030E-03
6.800000E+03	2.415021E-02	1.472663E-03
6.809091E+03	2.414114E-02	1.473207E-03
6.818182E+03	2.413052E-02	1.473661E-03
6.827273E+03	2.411830E-02	1.474023E-03
6.836364E+03	2.410448E-02	1.474291E-03
6.845455E+03	2.408900E-02	1.474464E-03
6.854545E+03	2.407185E-02	1.474538E-03
6.863636E+03	2.405302E-02	1.474514E-03
6.872727E+03	2.403645E-02	1.474633E-03
6.881818E+03	2.401429E-02	1.474412E-03
6.890909E+03	2.399046E-02	1.474092E-03
6.900000E+03	2.396500E-02	1.473675E-03
6.909091E+03	2.393792E-02	1.473161E-03
6.918182E+03	2.390927E-02	1.472553E-03
6.927273E+03	2.387907E-02	1.471851E-03
6.936364E+03	2.384734E-02	1.471057E-03
6.945455E+03	2.381412E-02	1.470172E-03
6.954545E+03	2.377947E-02	1.469200E-03
6.963636E+03	2.374339E-02	1.468140E-03
6.972727E+03	2.370594E-02	1.466996E-03
6.981818E+03	2.366712E-02	1.465768E-03
6.990909E+03	2.362701E-02	1.464460E-03
7.000000E+03	2.358563E-02	1.463072E-03
7.009091E+03	2.354299E-02	1.461606E-03
7.018182E+03	2.349914E-02	1.460064E-03
7.027273E+03	2.345412E-02	1.458448E-03
7.036364E+03	2.340793E-02	1.456758E-03
7.045455E+03	2.336064E-02	1.454998E-03
7.054545E+03	2.331228E-02	1.453168E-03
