#wls	flux	fluxerr
1.544402E+03	1.697751E-16	1.118260E-17
1.583012E+03	1.799026E-16	1.182327E-17
1.621622E+03	1.907015E-16	1.250426E-17
1.660232E+03	2.022123E-16	1.322777E-17
1.698842E+03	2.144863E-16	1.399666E-17
1.737452E+03	2.275324E-16	1.481100E-17
1.776062E+03	2.413490E-16	1.567010E-17
1.814672E+03	2.558975E-16	1.657090E-17
1.853282E+03	2.710816E-16	1.750660E-17
1.891892E+03	2.868044E-16	1.847039E-17
1.930502E+03	3.029948E-16	1.945720E-17
1.969112E+03	3.197151E-16	2.047050E-17
2.007722E+03	3.372941E-16	2.153073E-17
2.046332E+03	3.564963E-16	2.268575E-17
2.084942E+03	3.783752E-16	2.400114E-17
2.123552E+03	4.040154E-16	2.554349E-17
2.162162E+03	4.340497E-16	2.734990E-17
2.200772E+03	4.685252E-16	2.942005E-17
2.239382E+03	5.072442E-16	3.173809E-17
2.277992E+03	5.498489E-16	3.427826E-17
2.316602E+03	5.959375E-16	3.701221E-17
2.355212E+03	6.452103E-16	3.991820E-17
2.393822E+03	6.975127E-16	4.298357E-17
2.432432E+03	7.528448E-16	4.620522E-17
2.471042E+03	8.111989E-16	4.957944E-17
2.509653E+03	8.726361E-16	5.310661E-17
2.548263E+03	9.371103E-16	5.678044E-17
2.586873E+03	1.004436E-15	6.058619E-17
2.625483E+03	1.074416E-15	6.450838E-17
2.664093E+03	1.146637E-15	6.851899E-17
2.702703E+03	1.220544E-15	7.258173E-17
2.741313E+03	1.295391E-15	7.664964E-17
2.779923E+03	1.370324E-15	8.067025E-17
2.818533E+03	1.444625E-15	8.460003E-17
2.857143E+03	1.517909E-15	8.841590E-17
2.895753E+03	1.589859E-15	9.209906E-17
2.905405E+03	1.607581E-15	9.299582E-17
2.915058E+03	1.625246E-15	9.388581E-17
2.924710E+03	1.642759E-15	9.476357E-17
2.934363E+03	1.660141E-15	9.563027E-17
2.944015E+03	1.677461E-15	9.648997E-17
2.953668E+03	1.694636E-15	9.733786E-17
2.963320E+03	1.711718E-15	9.817688E-17
2.972973E+03	1.728679E-15	9.900554E-17
2.982625E+03	1.745497E-15	9.982256E-17
2.992278E+03	1.762146E-15	1.006265E-16
3.001931E+03	1.778676E-15	1.014200E-16
3.011583E+03	1.795023E-15	1.021998E-16
3.021236E+03	1.811201E-15	1.029665E-16
3.030888E+03	1.827202E-15	1.037197E-16
3.040541E+03	1.842953E-15	1.044553E-16
3.050193E+03	1.858534E-15	1.051780E-16
3.059846E+03	1.873949E-15	1.058879E-16
3.069498E+03	1.889104E-15	1.065797E-16
3.079151E+03	1.904071E-15	1.072576E-16
3.088803E+03	1.918792E-15	1.079183E-16
3.098456E+03	1.933271E-15	1.085621E-16
3.108108E+03	1.947483E-15	1.091877E-16
3.117761E+03	1.961369E-15	1.097919E-16
3.127413E+03	1.975003E-15	1.103788E-16
3.137066E+03	1.988263E-15	1.109416E-16
3.146718E+03	2.001223E-15	1.114847E-16
3.156371E+03	2.013860E-15	1.120067E-16
3.166023E+03	2.026087E-15	1.125029E-16
3.175676E+03	2.037980E-15	1.129777E-16
3.185328E+03	2.049454E-15	1.134264E-16
3.194981E+03	2.060522E-15	1.138498E-16
3.204633E+03	2.071166E-15	1.142471E-16
3.214286E+03	2.081401E-15	1.146191E-16
3.223938E+03	2.091177E-15	1.149634E-16
3.233591E+03	2.100483E-15	1.152792E-16
3.243243E+03	2.109304E-15	1.155660E-16
3.252896E+03	2.117659E-15	1.158250E-16
3.262548E+03	2.125507E-15	1.160539E-16
3.272201E+03	2.132840E-15	1.162526E-16
3.281853E+03	2.139651E-15	1.164208E-16
3.291506E+03	2.145906E-15	1.165567E-16
3.301158E+03	2.151604E-15	1.166605E-16
3.310811E+03	2.156741E-15	1.167322E-16
3.320463E+03	2.161292E-15	1.167704E-16
3.330116E+03	2.165258E-15	1.167756E-16
3.339768E+03	2.168618E-15	1.167466E-16
3.349421E+03	2.171353E-15	1.166827E-16
3.359073E+03	2.173448E-15	1.165832E-16
3.368726E+03	2.174865E-15	1.164463E-16
3.378378E+03	2.175619E-15	1.162730E-16
3.388031E+03	2.175679E-15	1.160619E-16
3.397683E+03	2.174994E-15	1.158104E-16
3.407336E+03	2.173497E-15	1.155152E-16
3.416988E+03	2.171194E-15	1.151768E-16
3.426641E+03	2.168030E-15	1.147926E-16
3.436293E+03	2.163907E-15	1.143578E-16
3.445946E+03	2.158805E-15	1.138715E-16
3.455598E+03	2.152688E-15	1.133322E-16
3.465251E+03	2.145503E-15	1.127373E-16
3.474903E+03	2.137183E-15	1.120837E-16
3.484556E+03	2.127753E-15	1.113731E-16
3.494208E+03	2.117195E-15	1.106048E-16
3.503861E+03	2.105501E-15	1.097790E-16
3.513514E+03	2.092758E-15	1.089003E-16
3.523166E+03	2.079000E-15	1.079710E-16
3.532819E+03	2.064275E-15	1.069938E-16
3.542471E+03	2.048652E-15	1.059726E-16
3.552124E+03	2.032197E-15	1.049112E-16
3.561776E+03	2.014958E-15	1.038123E-16
3.571429E+03	1.997033E-15	1.026812E-16
3.581081E+03	1.978448E-15	1.015194E-16
3.590734E+03	1.959279E-15	1.003312E-16
3.600386E+03	1.939616E-15	9.912122E-17
3.610039E+03	1.919464E-15	9.788999E-17
3.619691E+03	1.898940E-15	9.664360E-17
3.629344E+03	1.878044E-15	9.538222E-17
3.638996E+03	1.856871E-15	9.411079E-17
3.648649E+03	1.835465E-15	9.283163E-17
3.658301E+03	1.813865E-15	9.154687E-17
3.667954E+03	1.792126E-15	9.025931E-17
3.677606E+03	1.770286E-15	8.897092E-17
3.687259E+03	1.748390E-15	8.768406E-17
3.696911E+03	1.726486E-15	8.640112E-17
3.706564E+03	1.704603E-15	8.512358E-17
3.716216E+03	1.682779E-15	8.385339E-17
3.725869E+03	1.661052E-15	8.259242E-17
3.735521E+03	1.639445E-15	8.134182E-17
3.745174E+03	1.617991E-15	8.010316E-17
3.754826E+03	1.596721E-15	7.887793E-17
3.764479E+03	1.575649E-15	7.766685E-17
3.774131E+03	1.554802E-15	7.647117E-17
3.783784E+03	1.534194E-15	7.529150E-17
3.793436E+03	1.513857E-15	7.412939E-17
3.803089E+03	1.493802E-15	7.298529E-17
3.812741E+03	1.474046E-15	7.185996E-17
3.822394E+03	1.454585E-15	7.075310E-17
3.832046E+03	1.435458E-15	6.966655E-17
3.841699E+03	1.416655E-15	6.859977E-17
3.851351E+03	1.398192E-15	6.755335E-17
3.861004E+03	1.380070E-15	6.652728E-17
3.870656E+03	1.362310E-15	6.552247E-17
3.880309E+03	1.344900E-15	6.453832E-17
3.889961E+03	1.327861E-15	6.357561E-17
3.899614E+03	1.311180E-15	6.263367E-17
3.909266E+03	1.294874E-15	6.171324E-17
3.918919E+03	1.278930E-15	6.081353E-17
3.928571E+03	1.263354E-15	5.993474E-17
3.938224E+03	1.248151E-15	5.907703E-17
3.947876E+03	1.233326E-15	5.824049E-17
3.957529E+03	1.218865E-15	5.742432E-17
3.967181E+03	1.204770E-15	5.662855E-17
3.976834E+03	1.191036E-15	5.585285E-17
3.986486E+03	1.177665E-15	5.509721E-17
3.996139E+03	1.164661E-15	5.436164E-17
4.005792E+03	1.152008E-15	5.364532E-17
4.015444E+03	1.139716E-15	5.294864E-17
4.025097E+03	1.127771E-15	5.227078E-17
4.034749E+03	1.116172E-15	5.161166E-17
4.044402E+03	1.104923E-15	5.097133E-17
4.054054E+03	1.094007E-15	5.034887E-17
4.063707E+03	1.083426E-15	4.974428E-17
4.073359E+03	1.073171E-15	4.915712E-17
4.083012E+03	1.063253E-15	4.858770E-17
4.092664E+03	1.053647E-15	4.803486E-17
4.102317E+03	1.044363E-15	4.749889E-17
4.111969E+03	1.035385E-15	4.697900E-17
4.121622E+03	1.026723E-15	4.647555E-17
4.131274E+03	1.018352E-15	4.598731E-17
4.140927E+03	1.010275E-15	4.551430E-17
4.150579E+03	1.002490E-15	4.505645E-17
4.160232E+03	9.949766E-16	4.461263E-17
4.169884E+03	9.877430E-16	4.418321E-17
4.179537E+03	9.807593E-16	4.376673E-17
4.189189E+03	9.740337E-16	4.336351E-17
4.198842E+03	9.675303E-16	4.297186E-17
4.208494E+03	9.612484E-16	4.259171E-17
4.218147E+03	9.552141E-16	4.222413E-17
4.227799E+03	9.494261E-16	4.186900E-17
4.237452E+03	9.438937E-16	4.152665E-17
4.247104E+03	9.386182E-16	4.119708E-17
4.256757E+03	9.335834E-16	4.087950E-17
4.266409E+03	9.288072E-16	4.057463E-17
4.276062E+03	9.242735E-16	4.028168E-17
4.285714E+03	9.199843E-16	4.000069E-17
4.295367E+03	9.159322E-16	3.973127E-17
4.305019E+03	9.121186E-16	3.947341E-17
4.314672E+03	9.085294E-16	3.922643E-17
4.324324E+03	9.051733E-16	3.899066E-17
4.333977E+03	9.020347E-16	3.876537E-17
4.343629E+03	8.991093E-16	3.855030E-17
4.353282E+03	8.964040E-16	3.834571E-17
4.362934E+03	8.938985E-16	3.815068E-17
4.372587E+03	8.915924E-16	3.796513E-17
4.382239E+03	8.894878E-16	3.778911E-17
4.391892E+03	8.875708E-16	3.762197E-17
4.401544E+03	8.858417E-16	3.746371E-17
4.411197E+03	8.842874E-16	3.731370E-17
4.420849E+03	8.829074E-16	3.717190E-17
4.430502E+03	8.816966E-16	3.703806E-17
4.440154E+03	8.806474E-16	3.691181E-17
4.449807E+03	8.797454E-16	3.679253E-17
4.459459E+03	8.789994E-16	3.668056E-17
4.469112E+03	8.783868E-16	3.657492E-17
4.478764E+03	8.779082E-16	3.647562E-17
4.488417E+03	8.775574E-16	3.638238E-17
4.498069E+03	8.773192E-16	3.629454E-17
4.507722E+03	8.772013E-16	3.621242E-17
4.517375E+03	8.771812E-16	3.613507E-17
4.527027E+03	8.772601E-16	3.606251E-17
4.536680E+03	8.774455E-16	3.599507E-17
4.546332E+03	8.777215E-16	3.593207E-17
4.555985E+03	8.780900E-16	3.587358E-17
4.565637E+03	8.785513E-16	3.581961E-17
4.575290E+03	8.790983E-16	3.576986E-17
4.584942E+03	8.797239E-16	3.572404E-17
4.594595E+03	8.804375E-16	3.568253E-17
4.604247E+03	8.812170E-16	3.564443E-17
4.613900E+03	8.820726E-16	3.561016E-17
4.623552E+03	8.829980E-16	3.557946E-17
4.633205E+03	8.839793E-16	3.555178E-17
4.642857E+03	8.850293E-16	3.552762E-17
4.652510E+03	8.861349E-16	3.550648E-17
4.662162E+03	8.872922E-16	3.548821E-17
4.671815E+03	8.884971E-16	3.547263E-17
4.681467E+03	8.897462E-16	3.545962E-17
4.691120E+03	8.910518E-16	3.544963E-17
4.700772E+03	8.923839E-16	3.544145E-17
4.710425E+03	8.937540E-16	3.543553E-17
4.720077E+03	8.951468E-16	3.543123E-17
4.729730E+03	8.965622E-16	3.542854E-17
4.739382E+03	8.979832E-16	3.542676E-17
4.749035E+03	8.994035E-16	3.542565E-17
4.758687E+03	9.008222E-16	3.542516E-17
4.768340E+03	9.022145E-16	3.542428E-17
4.777992E+03	9.035842E-16	3.542318E-17
4.787645E+03	9.049225E-16	3.542150E-17
4.797297E+03	9.062248E-16	3.541904E-17
4.806950E+03	9.074772E-16	3.541527E-17
4.816602E+03	9.086749E-16	3.540999E-17
4.826255E+03	9.098210E-16	3.540331E-17
4.835907E+03	9.108952E-16	3.539445E-17
4.845560E+03	9.119109E-16	3.538392E-17
4.855212E+03	9.128469E-16	3.537090E-17
4.864865E+03	9.137002E-16	3.535527E-17
4.874517E+03	9.144762E-16	3.533723E-17
4.884170E+03	9.151640E-16	3.531638E-17
4.893822E+03	9.157615E-16	3.529262E-17
4.903475E+03	9.162566E-16	3.526549E-17
4.913127E+03	9.166567E-16	3.523527E-17
4.922780E+03	9.169594E-16	3.520188E-17
4.932432E+03	9.171458E-16	3.516458E-17
4.942085E+03	9.172241E-16	3.512370E-17
4.951737E+03	9.171917E-16	3.507913E-17
4.961390E+03	9.170481E-16	3.503085E-17
4.971042E+03	9.167838E-16	3.497852E-17
4.980695E+03	9.163974E-16	3.492206E-17
4.990347E+03	9.158803E-16	3.486116E-17
5.000000E+03	9.152483E-16	3.479643E-17
5.009653E+03	9.144860E-16	3.472727E-17
5.019305E+03	9.135909E-16	3.465359E-17
5.028958E+03	9.125657E-16	3.457550E-17
5.038610E+03	9.114176E-16	3.449328E-17
5.048263E+03	9.101303E-16	3.440630E-17
5.057915E+03	9.087047E-16	3.431461E-17
5.067568E+03	9.071594E-16	3.421890E-17
5.077220E+03	9.054691E-16	3.411824E-17
5.086873E+03	9.036534E-16	3.401335E-17
5.096525E+03	9.017046E-16	3.390395E-17
5.106178E+03	8.996238E-16	3.379008E-17
5.115830E+03	8.974235E-16	3.367221E-17
5.125483E+03	8.950864E-16	3.354970E-17
5.135135E+03	8.926250E-16	3.342302E-17
5.144788E+03	8.900415E-16	3.329224E-17
5.154440E+03	8.873376E-16	3.315745E-17
5.164093E+03	8.845261E-16	3.301910E-17
5.173745E+03	8.815921E-16	3.287665E-17
5.183398E+03	8.785474E-16	3.273054E-17
5.193050E+03	8.753953E-16	3.258089E-17
5.202703E+03	8.721305E-16	3.242751E-17
5.212355E+03	8.687741E-16	3.227117E-17
5.222008E+03	8.653206E-16	3.211169E-17
5.231660E+03	8.617655E-16	3.194888E-17
5.241313E+03	8.581125E-16	3.178289E-17
5.250965E+03	8.543742E-16	3.161418E-17
5.260618E+03	8.505376E-16	3.144227E-17
5.270270E+03	8.466154E-16	3.126764E-17
5.279923E+03	8.426118E-16	3.109043E-17
5.289575E+03	8.385141E-16	3.091019E-17
5.299228E+03	8.343271E-16	3.072707E-17
5.308880E+03	8.300634E-16	3.054157E-17
5.318533E+03	8.257192E-16	3.035352E-17
5.328185E+03	8.212910E-16	3.016281E-17
5.337838E+03	8.167751E-16	2.996931E-17
5.347490E+03	8.121929E-16	2.977379E-17
5.357143E+03	8.075244E-16	2.957553E-17
5.366795E+03	8.027826E-16	2.937501E-17
5.376448E+03	7.979645E-16	2.917211E-17
5.386100E+03	7.930748E-16	2.896701E-17
5.395753E+03	7.881185E-16	2.875990E-17
5.405405E+03	7.830925E-16	2.855067E-17
5.415058E+03	7.780097E-16	2.833978E-17
5.424710E+03	7.728669E-16	2.812713E-17
5.434363E+03	7.676612E-16	2.791261E-17
5.444015E+03	7.624132E-16	2.769697E-17
5.453668E+03	7.571197E-16	2.748009E-17
5.463320E+03	7.517777E-16	2.726187E-17
5.472973E+03	7.463995E-16	2.704276E-17
5.482625E+03	7.409976E-16	2.682322E-17
5.492278E+03	7.355609E-16	2.660282E-17
5.501931E+03	7.301016E-16	2.638204E-17
5.511583E+03	7.246316E-16	2.616128E-17
5.521236E+03	7.191475E-16	2.594044E-17
5.530888E+03	7.136611E-16	2.571993E-17
5.540541E+03	7.081686E-16	2.549962E-17
5.550193E+03	7.026816E-16	2.527992E-17
5.559846E+03	6.972040E-16	2.506098E-17
5.569498E+03	6.917467E-16	2.484318E-17
5.579151E+03	6.862986E-16	2.462613E-17
5.588803E+03	6.808853E-16	2.441074E-17
5.598456E+03	6.754953E-16	2.419660E-17
5.608108E+03	6.701394E-16	2.398408E-17
5.617761E+03	6.648204E-16	2.377331E-17
5.627413E+03	6.595416E-16	2.356437E-17
5.637066E+03	6.543131E-16	2.335764E-17
5.646718E+03	6.491376E-16	2.315320E-17
5.656371E+03	6.440176E-16	2.295115E-17
5.666023E+03	6.389487E-16	2.275131E-17
5.675676E+03	6.339476E-16	2.255429E-17
5.685328E+03	6.290095E-16	2.235991E-17
5.694981E+03	6.241434E-16	2.216848E-17
5.704633E+03	6.193447E-16	2.197984E-17
5.714286E+03	6.146221E-16	2.179428E-17
5.723938E+03	6.099775E-16	2.161189E-17
5.733591E+03	6.054126E-16	2.143269E-17
5.743243E+03	6.009288E-16	2.125676E-17
5.752896E+03	5.965277E-16	2.108413E-17
5.762548E+03	5.922172E-16	2.091507E-17
5.772201E+03	5.879848E-16	2.074916E-17
5.781853E+03	5.838450E-16	2.058688E-17
5.791506E+03	5.797917E-16	2.042803E-17
5.801158E+03	5.758254E-16	2.027261E-17
5.810811E+03	5.719534E-16	2.012088E-17
5.820463E+03	5.681621E-16	1.997235E-17
5.830116E+03	5.644649E-16	1.982749E-17
5.839768E+03	5.608480E-16	1.968582E-17
5.849421E+03	5.573175E-16	1.954755E-17
5.859073E+03	5.538726E-16	1.941263E-17
5.868726E+03	5.505053E-16	1.928080E-17
5.878378E+03	5.472141E-16	1.915199E-17
5.888031E+03	5.439973E-16	1.902614E-17
5.897683E+03	5.408526E-16	1.890318E-17
5.907336E+03	5.377776E-16	1.878301E-17
5.916988E+03	5.347692E-16	1.866553E-17
5.926641E+03	5.318244E-16	1.855063E-17
5.936293E+03	5.289392E-16	1.843817E-17
5.945946E+03	5.261163E-16	1.832824E-17
5.955598E+03	5.233579E-16	1.822093E-17
5.965251E+03	5.206657E-16	1.811628E-17
5.974903E+03	5.180343E-16	1.801412E-17
5.984556E+03	5.154577E-16	1.791423E-17
5.994208E+03	5.129232E-16	1.781617E-17
6.003861E+03	5.104237E-16	1.771971E-17
6.013514E+03	5.079522E-16	1.762459E-17
6.023166E+03	5.054941E-16	1.753032E-17
6.032819E+03	5.030481E-16	1.743685E-17
6.042471E+03	5.006191E-16	1.734435E-17
6.052124E+03	4.981916E-16	1.725230E-17
6.061776E+03	4.957628E-16	1.716060E-17
6.071429E+03	4.933368E-16	1.706939E-17
6.081081E+03	4.908968E-16	1.697809E-17
6.090734E+03	4.884534E-16	1.688706E-17
6.100386E+03	4.860034E-16	1.679617E-17
6.110039E+03	4.835297E-16	1.670483E-17
6.119691E+03	4.810425E-16	1.661339E-17
6.129344E+03	4.785383E-16	1.652170E-17
6.138996E+03	4.760070E-16	1.642942E-17
6.148649E+03	4.734449E-16	1.633642E-17
6.158301E+03	4.708634E-16	1.624306E-17
6.167954E+03	4.682459E-16	1.614879E-17
6.177606E+03	4.655908E-16	1.605353E-17
6.187259E+03	4.629042E-16	1.595748E-17
6.196911E+03	4.601593E-16	1.585972E-17
6.206564E+03	4.573376E-16	1.575961E-17
6.216216E+03	4.544300E-16	1.565681E-17
6.225869E+03	4.514294E-16	1.555109E-17
6.235521E+03	4.483248E-16	1.544206E-17
6.245174E+03	4.451205E-16	1.532985E-17
6.254826E+03	4.418160E-16	1.521444E-17
6.264479E+03	4.384187E-16	1.509610E-17
6.274131E+03	4.349303E-16	1.497485E-17
6.283784E+03	4.313594E-16	1.485101E-17
6.293436E+03	4.277153E-16	1.472487E-17
6.303089E+03	4.240001E-16	1.459650E-17
6.312741E+03	4.202298E-16	1.446645E-17
6.322394E+03	4.164127E-16	1.433500E-17
6.332046E+03	4.125509E-16	1.420221E-17
6.341699E+03	4.086589E-16	1.406858E-17
6.351351E+03	4.047376E-16	1.393412E-17
6.361004E+03	4.007943E-16	1.379908E-17
6.370656E+03	3.968420E-16	1.366392E-17
6.380309E+03	3.928743E-16	1.352839E-17
6.389961E+03	3.889159E-16	1.339334E-17
6.399614E+03	3.849531E-16	1.325830E-17
6.409266E+03	3.810034E-16	1.312386E-17
6.418919E+03	3.770648E-16	1.298994E-17
6.428571E+03	3.731416E-16	1.285670E-17
6.438224E+03	3.692434E-16	1.272445E-17
6.447876E+03	3.653673E-16	1.259310E-17
6.457529E+03	3.615162E-16	1.246273E-17
6.467181E+03	3.576929E-16	1.233344E-17
6.476834E+03	3.539056E-16	1.220551E-17
6.486486E+03	3.501444E-16	1.207859E-17
6.496139E+03	3.464230E-16	1.195315E-17
6.505792E+03	3.427370E-16	1.182904E-17
6.515444E+03	3.390877E-16	1.170630E-17
6.525097E+03	3.354764E-16	1.158496E-17
6.534749E+03	3.319040E-16	1.146507E-17
6.544402E+03	3.283772E-16	1.134684E-17
6.554054E+03	3.248849E-16	1.122989E-17
6.563707E+03	3.214338E-16	1.111445E-17
6.573359E+03	3.180242E-16	1.100053E-17
6.583012E+03	3.146564E-16	1.088815E-17
6.592664E+03	3.113308E-16	1.077730E-17
6.602317E+03	3.080476E-16	1.066799E-17
6.611969E+03	3.048069E-16	1.056023E-17
6.621622E+03	3.016032E-16	1.045383E-17
6.631274E+03	2.984423E-16	1.034898E-17
6.640927E+03	2.953241E-16	1.024569E-17
6.650579E+03	2.922430E-16	1.014375E-17
6.660232E+03	2.892045E-16	1.004336E-17
6.669884E+03	2.862086E-16	9.944506E-18
6.679537E+03	2.832497E-16	9.847010E-18
6.689189E+03	2.803277E-16	9.750861E-18
6.698842E+03	2.774478E-16	9.656243E-18
6.708494E+03	2.746047E-16	9.562963E-18
6.718147E+03	2.717982E-16	9.471021E-18
6.727799E+03	2.690331E-16	9.380585E-18
6.737452E+03	2.663042E-16	9.291470E-18
6.747104E+03	2.636114E-16	9.203671E-18
6.756757E+03	2.609494E-16	9.117008E-18
6.766409E+03	2.583279E-16	9.031820E-18
6.776062E+03	2.557417E-16	8.947924E-18
6.785714E+03	2.531907E-16	8.865315E-18
6.795367E+03	2.506694E-16	8.783804E-18
6.805019E+03	2.481826E-16	8.703559E-18
6.814672E+03	2.457252E-16	8.624400E-18
6.824324E+03	2.433064E-16	8.546655E-18
6.833977E+03	2.409115E-16	8.469803E-18
6.843629E+03	2.385497E-16	8.394171E-18
6.853282E+03	2.362159E-16	8.319577E-18
6.862934E+03	2.339145E-16	8.246177E-18
6.872587E+03	2.316354E-16	8.173621E-18
6.882239E+03	2.293878E-16	8.102227E-18
6.891892E+03	2.271618E-16	8.031652E-18
6.901544E+03	2.249616E-16	7.962042E-18
6.911197E+03	2.227869E-16	7.893382E-18
6.920849E+03	2.206370E-16	7.825657E-18
6.930502E+03	2.185069E-16	7.758681E-18
6.940154E+03	2.163960E-16	7.692440E-18
6.949807E+03	2.143085E-16	7.627076E-18
6.959459E+03	2.122392E-16	7.562411E-18
6.969112E+03	2.101921E-16	7.498584E-18
6.978764E+03	2.081578E-16	7.435259E-18
6.988417E+03	2.061447E-16	7.372734E-18
6.998069E+03	2.041476E-16	7.310829E-18
7.007722E+03	2.021663E-16	7.249528E-18
7.017375E+03	2.002001E-16	7.188810E-18
7.027027E+03	1.982486E-16	7.128659E-18
7.036680E+03	1.963113E-16	7.069059E-18
7.046332E+03	1.943922E-16	7.010144E-18
7.055985E+03	1.924821E-16	6.951593E-18
7.065637E+03	1.905937E-16	6.893855E-18
7.075290E+03	1.887221E-16	6.836758E-18
7.084942E+03	1.868630E-16	6.780139E-18
7.094595E+03	1.850286E-16	6.724447E-18
7.104247E+03	1.832104E-16	6.669370E-18
7.113900E+03	1.814209E-16	6.615358E-18
7.123552E+03	1.796554E-16	6.562250E-18
7.133205E+03	1.779184E-16	6.510203E-18
7.142857E+03	1.762137E-16	6.459367E-18
7.152510E+03	1.745416E-16	6.409747E-18
7.162162E+03	1.729103E-16	6.361651E-18
7.171815E+03	1.713243E-16	6.315247E-18
7.181467E+03	1.697796E-16	6.270397E-18
7.191120E+03	1.682770E-16	6.227128E-18
7.200772E+03	1.668171E-16	6.185460E-18
7.210425E+03	1.653967E-16	6.145280E-18
7.220077E+03	1.640129E-16	6.106474E-18
7.229730E+03	1.626630E-16	6.068942E-18
7.239382E+03	1.613483E-16	6.032732E-18
7.249035E+03	1.600663E-16	5.997748E-18
7.258687E+03	1.588145E-16	5.963899E-18
7.268340E+03	1.575981E-16	5.931374E-18
7.277992E+03	1.564101E-16	5.899915E-18
7.287645E+03	1.552509E-16	5.869528E-18
7.297297E+03	1.541201E-16	5.840207E-18
7.306950E+03	1.530166E-16	5.811906E-18
7.316602E+03	1.519390E-16	5.784569E-18
7.326255E+03	1.508817E-16	5.757986E-18
7.335907E+03	1.498427E-16	5.732079E-18
7.345560E+03	1.488242E-16	5.706928E-18
7.355212E+03	1.478205E-16	5.682312E-18
7.364865E+03	1.468339E-16	5.658321E-18
7.374517E+03	1.458555E-16	5.634605E-18
7.384170E+03	1.448916E-16	5.611409E-18
7.393822E+03	1.439375E-16	5.588543E-18
7.403475E+03	1.429923E-16	5.565975E-18
7.413127E+03	1.420554E-16	5.543674E-18
7.422780E+03	1.411298E-16	5.521756E-18
7.432432E+03	1.402114E-16	5.500060E-18
7.442085E+03	1.393001E-16	5.478570E-18
7.451737E+03	1.383990E-16	5.457416E-18
7.461390E+03	1.375080E-16	5.436586E-18
7.471042E+03	1.366234E-16	5.415930E-18
7.480695E+03	1.357486E-16	5.395585E-18
7.490347E+03	1.348836E-16	5.375548E-18
