#wls	flux	fluxerr
1.544402E+03	2.356989E-16	4.027927E-17
1.583012E+03	2.450332E-16	4.173576E-17
1.621622E+03	2.546922E-16	4.323279E-17
1.660232E+03	2.647286E-16	4.477818E-17
1.698842E+03	2.751424E-16	4.637063E-17
1.737452E+03	2.859536E-16	4.801223E-17
1.776062E+03	2.971050E-16	4.969200E-17
1.814672E+03	3.085016E-16	5.139275E-17
1.853282E+03	3.201715E-16	5.311793E-17
1.891892E+03	3.319911E-16	5.484584E-17
1.930502E+03	3.438818E-16	5.656244E-17
1.969112E+03	3.560366E-16	5.829838E-17
2.007722E+03	3.689219E-16	6.012827E-17
2.046332E+03	3.835481E-16	6.221344E-17
2.084942E+03	4.010248E-16	6.472789E-17
2.123552E+03	4.227540E-16	6.788871E-17
2.162162E+03	4.494805E-16	7.180293E-17
2.200772E+03	4.814476E-16	7.649474E-17
2.239382E+03	5.184711E-16	8.191926E-17
2.277992E+03	5.599158E-16	8.796070E-17
2.316602E+03	6.053873E-16	9.454245E-17
2.355212E+03	6.546081E-16	1.016069E-16
2.393822E+03	7.074142E-16	1.091146E-16
2.432432E+03	7.638643E-16	1.170599E-16
2.471042E+03	8.241006E-16	1.254494E-16
2.509653E+03	8.883992E-16	1.343086E-16
2.548263E+03	9.567378E-16	1.436164E-16
2.586873E+03	1.029465E-15	1.534064E-16
2.625483E+03	1.106690E-15	1.636745E-16
2.664093E+03	1.188570E-15	1.744226E-16
2.702703E+03	1.275321E-15	1.856593E-16
2.741313E+03	1.366830E-15	1.973441E-16
2.779923E+03	1.462725E-15	2.093991E-16
2.818533E+03	1.562054E-15	2.216654E-16
2.857143E+03	1.664453E-15	2.340701E-16
2.895753E+03	1.768801E-15	2.464372E-16
2.905405E+03	1.794958E-15	2.494885E-16
2.915058E+03	1.821320E-15	2.525479E-16
2.924710E+03	1.847724E-15	2.555925E-16
2.934363E+03	1.874153E-15	2.586195E-16
2.944015E+03	1.900598E-15	2.616280E-16
2.953668E+03	1.927053E-15	2.646166E-16
2.963320E+03	1.953488E-15	2.675812E-16
2.972973E+03	1.979874E-15	2.705177E-16
2.982625E+03	2.006327E-15	2.734419E-16
2.992278E+03	2.032670E-15	2.763293E-16
3.001931E+03	2.058867E-15	2.791754E-16
3.011583E+03	2.085037E-15	2.819958E-16
3.021236E+03	2.110994E-15	2.847657E-16
3.030888E+03	2.136873E-15	2.875033E-16
3.040541E+03	2.162584E-15	2.901962E-16
3.050193E+03	2.188014E-15	2.928296E-16
3.059846E+03	2.213271E-15	2.954180E-16
3.069498E+03	2.238466E-15	2.979762E-16
3.079151E+03	2.263244E-15	3.004570E-16
3.088803E+03	2.287866E-15	3.028954E-16
3.098456E+03	2.311978E-15	3.052446E-16
3.108108E+03	2.335992E-15	3.075592E-16
3.117761E+03	2.359549E-15	3.097923E-16
3.127413E+03	2.382600E-15	3.119376E-16
3.137066E+03	2.405400E-15	3.140291E-16
3.146718E+03	2.427588E-15	3.160196E-16
3.156371E+03	2.449419E-15	3.179432E-16
3.166023E+03	2.470681E-15	3.197726E-16
3.175676E+03	2.491476E-15	3.215213E-16
3.185328E+03	2.511589E-15	3.231623E-16
3.194981E+03	2.531118E-15	3.247088E-16
3.204633E+03	2.550156E-15	3.261733E-16
3.214286E+03	2.568488E-15	3.275288E-16
3.223938E+03	2.586209E-15	3.287881E-16
3.233591E+03	2.603253E-15	3.299435E-16
3.243243E+03	2.619559E-15	3.309880E-16
3.252896E+03	2.635211E-15	3.319330E-16
3.262548E+03	2.650143E-15	3.327709E-16
3.272201E+03	2.664288E-15	3.334940E-16
3.281853E+03	2.677724E-15	3.341131E-16
3.291506E+03	2.690379E-15	3.346199E-16
3.301158E+03	2.702468E-15	3.350419E-16
3.310811E+03	2.713626E-15	3.353348E-16
3.320463E+03	2.724060E-15	3.355251E-16
3.330116E+03	2.733832E-15	3.356211E-16
3.339768E+03	2.742850E-15	3.356127E-16
3.349421E+03	2.751168E-15	3.355071E-16
3.359073E+03	2.758829E-15	3.353102E-16
3.368726E+03	2.765600E-15	3.349950E-16
3.378378E+03	2.771921E-15	3.346154E-16
3.388031E+03	2.777418E-15	3.341270E-16
3.397683E+03	2.782249E-15	3.335499E-16
3.407336E+03	2.786302E-15	3.328715E-16
3.416988E+03	2.789720E-15	3.321098E-16
3.426641E+03	2.792263E-15	3.312371E-16
3.436293E+03	2.793824E-15	3.302419E-16
3.445946E+03	2.794182E-15	3.290993E-16
3.455598E+03	2.793365E-15	3.278145E-16
3.465251E+03	2.791060E-15	3.263521E-16
3.474903E+03	2.787317E-15	3.247201E-16
3.484556E+03	2.781972E-15	3.229012E-16
3.494208E+03	2.774990E-15	3.208936E-16
3.503861E+03	2.766149E-15	3.186739E-16
3.513514E+03	2.755667E-15	3.162695E-16
3.523166E+03	2.743268E-15	3.136512E-16
3.532819E+03	2.729113E-15	3.108400E-16
3.542471E+03	2.713185E-15	3.078362E-16
3.552124E+03	2.695589E-15	3.046542E-16
3.561776E+03	2.676270E-15	3.012900E-16
3.571429E+03	2.655558E-15	2.977833E-16
3.581081E+03	2.633443E-15	2.941347E-16
3.590734E+03	2.610111E-15	2.903670E-16
3.600386E+03	2.585678E-15	2.864947E-16
3.610039E+03	2.560355E-15	2.825430E-16
3.619691E+03	2.534283E-15	2.785285E-16
3.629344E+03	2.507755E-15	2.744845E-16
3.638996E+03	2.480842E-15	2.704194E-16
3.648649E+03	2.453757E-15	2.663571E-16
3.658301E+03	2.426707E-15	2.623205E-16
3.667954E+03	2.399882E-15	2.583299E-16
3.677606E+03	2.373330E-15	2.543904E-16
3.687259E+03	2.347341E-15	2.505327E-16
3.696911E+03	2.321866E-15	2.467510E-16
3.706564E+03	2.297097E-15	2.430651E-16
3.716216E+03	2.273077E-15	2.394786E-16
3.725869E+03	2.249893E-15	2.359998E-16
3.735521E+03	2.227608E-15	2.326343E-16
3.745174E+03	2.206216E-15	2.293802E-16
3.754826E+03	2.185695E-15	2.262342E-16
3.764479E+03	2.166108E-15	2.232019E-16
3.774131E+03	2.147406E-15	2.202768E-16
3.783784E+03	2.129523E-15	2.174511E-16
3.793436E+03	2.112432E-15	2.147211E-16
3.803089E+03	2.096092E-15	2.120817E-16
3.812741E+03	2.080410E-15	2.095225E-16
3.822394E+03	2.065285E-15	2.070326E-16
3.832046E+03	2.050695E-15	2.046092E-16
3.841699E+03	2.036526E-15	2.022403E-16
3.851351E+03	2.022704E-15	1.999180E-16
3.861004E+03	2.009114E-15	1.976307E-16
3.870656E+03	1.995643E-15	1.953672E-16
3.880309E+03	1.982222E-15	1.931206E-16
3.889961E+03	1.968825E-15	1.908883E-16
3.899614E+03	1.955319E-15	1.886579E-16
3.909266E+03	1.941622E-15	1.864214E-16
3.918919E+03	1.927771E-15	1.841829E-16
3.928571E+03	1.913668E-15	1.819335E-16
3.938224E+03	1.899266E-15	1.796691E-16
3.947876E+03	1.884596E-15	1.773931E-16
3.957529E+03	1.869629E-15	1.751033E-16
3.967181E+03	1.854376E-15	1.728014E-16
3.976834E+03	1.838852E-15	1.704891E-16
3.986486E+03	1.823012E-15	1.681628E-16
3.996139E+03	1.806905E-15	1.658276E-16
4.005792E+03	1.790548E-15	1.634855E-16
4.015444E+03	1.773928E-15	1.611357E-16
4.025097E+03	1.757030E-15	1.587774E-16
4.034749E+03	1.739925E-15	1.564174E-16
4.044402E+03	1.722568E-15	1.540522E-16
4.054054E+03	1.705004E-15	1.516860E-16
4.063707E+03	1.687223E-15	1.493185E-16
4.073359E+03	1.669272E-15	1.469542E-16
4.083012E+03	1.651131E-15	1.445916E-16
4.092664E+03	1.632910E-15	1.422406E-16
4.102317E+03	1.614601E-15	1.399009E-16
4.111969E+03	1.596278E-15	1.375788E-16
4.121622E+03	1.577974E-15	1.352773E-16
4.131274E+03	1.559820E-15	1.330077E-16
4.140927E+03	1.541833E-15	1.307712E-16
4.150579E+03	1.524125E-15	1.285772E-16
4.160232E+03	1.506764E-15	1.264308E-16
4.169884E+03	1.489857E-15	1.243409E-16
4.179537E+03	1.473418E-15	1.223079E-16
4.189189E+03	1.457590E-15	1.203430E-16
4.198842E+03	1.442416E-15	1.184490E-16
4.208494E+03	1.427930E-15	1.166279E-16
4.218147E+03	1.414221E-15	1.148860E-16
4.227799E+03	1.401320E-15	1.132249E-16
4.237452E+03	1.389226E-15	1.116436E-16
4.247104E+03	1.377988E-15	1.101448E-16
4.256757E+03	1.367581E-15	1.087257E-16
4.266409E+03	1.357990E-15	1.073839E-16
4.276062E+03	1.349229E-15	1.061197E-16
4.285714E+03	1.341225E-15	1.049264E-16
4.295367E+03	1.333941E-15	1.038002E-16
4.305019E+03	1.327300E-15	1.027343E-16
4.314672E+03	1.321222E-15	1.017220E-16
4.324324E+03	1.315629E-15	1.007566E-16
4.333977E+03	1.310450E-15	9.983229E-17
4.343629E+03	1.305615E-15	9.894334E-17
4.353282E+03	1.301065E-15	9.808495E-17
4.362934E+03	1.296744E-15	9.725290E-17
4.372587E+03	1.292594E-15	9.644248E-17
4.382239E+03	1.288578E-15	9.565106E-17
4.391892E+03	1.284689E-15	9.487798E-17
4.401544E+03	1.280894E-15	9.412090E-17
4.411197E+03	1.277202E-15	9.338038E-17
4.420849E+03	1.273611E-15	9.265647E-17
4.430502E+03	1.270115E-15	9.194856E-17
4.440154E+03	1.266755E-15	9.125975E-17
4.449807E+03	1.263516E-15	9.058900E-17
4.459459E+03	1.260464E-15	8.994086E-17
4.469112E+03	1.257588E-15	8.931465E-17
4.478764E+03	1.254923E-15	8.871278E-17
4.488417E+03	1.252518E-15	8.813859E-17
4.498069E+03	1.250373E-15	8.759204E-17
4.507722E+03	1.248527E-15	8.707568E-17
4.517375E+03	1.246998E-15	8.659066E-17
4.527027E+03	1.245780E-15	8.613644E-17
4.536680E+03	1.244889E-15	8.571398E-17
4.546332E+03	1.244326E-15	8.532332E-17
4.555985E+03	1.244071E-15	8.496291E-17
4.565637E+03	1.244092E-15	8.463044E-17
4.575290E+03	1.244389E-15	8.432599E-17
4.584942E+03	1.244910E-15	8.404600E-17
4.594595E+03	1.245629E-15	8.378868E-17
4.604247E+03	1.246498E-15	8.355091E-17
4.613900E+03	1.247472E-15	8.332966E-17
4.623552E+03	1.248515E-15	8.312278E-17
4.633205E+03	1.249556E-15	8.292565E-17
4.642857E+03	1.250517E-15	8.273320E-17
4.652510E+03	1.251353E-15	8.254227E-17
4.662162E+03	1.252028E-15	8.235041E-17
4.671815E+03	1.252487E-15	8.215392E-17
4.681467E+03	1.252706E-15	8.195126E-17
4.691120E+03	1.252674E-15	8.174159E-17
4.700772E+03	1.252369E-15	8.152333E-17
4.710425E+03	1.251790E-15	8.129644E-17
4.720077E+03	1.250947E-15	8.106135E-17
4.729730E+03	1.249850E-15	8.081870E-17
4.739382E+03	1.248498E-15	8.056824E-17
4.749035E+03	1.246930E-15	8.031236E-17
4.758687E+03	1.245130E-15	8.004986E-17
4.768340E+03	1.243136E-15	7.978301E-17
4.777992E+03	1.240930E-15	7.951049E-17
4.787645E+03	1.238548E-15	7.923435E-17
4.797297E+03	1.235982E-15	7.895388E-17
4.806950E+03	1.233237E-15	7.866927E-17
4.816602E+03	1.230331E-15	7.838135E-17
4.826255E+03	1.227263E-15	7.808989E-17
4.835907E+03	1.224032E-15	7.779463E-17
4.845560E+03	1.220625E-15	7.749443E-17
4.855212E+03	1.217061E-15	7.719031E-17
4.864865E+03	1.213309E-15	7.688011E-17
4.874517E+03	1.209386E-15	7.656466E-17
4.884170E+03	1.205286E-15	7.624329E-17
4.893822E+03	1.200987E-15	7.591447E-17
4.903475E+03	1.196498E-15	7.557847E-17
4.913127E+03	1.191811E-15	7.523465E-17
4.922780E+03	1.186926E-15	7.488270E-17
4.932432E+03	1.181842E-15	7.452240E-17
4.942085E+03	1.176551E-15	7.415301E-17
4.951737E+03	1.171095E-15	7.377692E-17
4.961390E+03	1.165444E-15	7.339210E-17
4.971042E+03	1.159636E-15	7.300061E-17
4.980695E+03	1.153665E-15	7.260202E-17
4.990347E+03	1.147557E-15	7.219768E-17
5.000000E+03	1.141311E-15	7.178727E-17
5.009653E+03	1.134949E-15	7.137206E-17
5.019305E+03	1.128467E-15	7.095159E-17
5.028958E+03	1.121883E-15	7.052686E-17
5.038610E+03	1.115203E-15	7.009790E-17
5.048263E+03	1.108415E-15	6.966399E-17
5.057915E+03	1.101531E-15	6.922554E-17
5.067568E+03	1.094544E-15	6.878212E-17
5.077220E+03	1.087438E-15	6.833241E-17
5.086873E+03	1.080215E-15	6.787649E-17
5.096525E+03	1.072864E-15	6.741345E-17
5.106178E+03	1.065372E-15	6.694239E-17
5.115830E+03	1.057716E-15	6.646175E-17
5.125483E+03	1.049882E-15	6.597053E-17
5.135135E+03	1.041873E-15	6.546873E-17
5.144788E+03	1.033668E-15	6.495496E-17
5.154440E+03	1.025271E-15	6.442940E-17
5.164093E+03	1.016670E-15	6.389120E-17
5.173745E+03	1.007879E-15	6.334108E-17
5.183398E+03	9.988943E-16	6.277880E-17
5.193050E+03	9.897183E-16	6.220438E-17
5.202703E+03	9.803879E-16	6.162009E-17
5.212355E+03	9.709131E-16	6.102649E-17
5.222008E+03	9.613089E-16	6.042447E-17
5.231660E+03	9.516187E-16	5.981671E-17
5.241313E+03	9.418521E-16	5.920375E-17
5.250965E+03	9.320449E-16	5.858781E-17
5.260618E+03	9.222147E-16	5.796997E-17
5.270270E+03	9.123952E-16	5.735231E-17
5.279923E+03	9.025990E-16	5.673560E-17
5.289575E+03	8.928553E-16	5.612165E-17
5.299228E+03	8.831705E-16	5.551086E-17
5.308880E+03	8.735595E-16	5.490415E-17
5.318533E+03	8.640395E-16	5.430261E-17
5.328185E+03	8.546203E-16	5.370682E-17
5.337838E+03	8.452890E-16	5.311600E-17
5.347490E+03	8.360752E-16	5.253200E-17
5.357143E+03	8.269751E-16	5.195459E-17
5.366795E+03	8.179825E-16	5.138340E-17
5.376448E+03	8.091176E-16	5.081970E-17
5.386100E+03	8.003684E-16	5.026275E-17
5.395753E+03	7.917643E-16	4.971442E-17
5.405405E+03	7.832955E-16	4.917411E-17
5.415058E+03	7.749777E-16	4.864283E-17
5.424710E+03	7.668194E-16	4.812113E-17
5.434363E+03	7.588302E-16	4.760963E-17
5.444015E+03	7.510196E-16	4.710897E-17
5.453668E+03	7.433973E-16	4.661976E-17
5.463320E+03	7.359800E-16	4.614308E-17
5.472973E+03	7.287683E-16	4.567899E-17
5.482625E+03	7.217837E-16	4.522887E-17
5.492278E+03	7.150097E-16	4.479169E-17
5.501931E+03	7.084712E-16	4.436907E-17
5.511583E+03	7.021621E-16	4.396063E-17
5.521236E+03	6.960743E-16	4.356588E-17
5.530888E+03	6.902180E-16	4.318551E-17
5.540541E+03	6.845729E-16	4.281826E-17
5.550193E+03	6.791438E-16	4.246446E-17
5.559846E+03	6.739118E-16	4.212296E-17
5.569498E+03	6.688624E-16	4.179288E-17
5.579151E+03	6.639784E-16	4.147317E-17
5.588803E+03	6.592406E-16	4.116267E-17
5.598456E+03	6.546342E-16	4.086049E-17
5.608108E+03	6.501301E-16	4.056485E-17
5.617761E+03	6.457049E-16	4.027432E-17
5.627413E+03	6.413350E-16	3.998746E-17
5.637066E+03	6.369973E-16	3.970290E-17
5.646718E+03	6.326701E-16	3.941930E-17
5.656371E+03	6.283330E-16	3.913545E-17
5.666023E+03	6.239681E-16	3.885028E-17
5.675676E+03	6.195601E-16	3.856287E-17
5.685328E+03	6.150902E-16	3.827211E-17
5.694981E+03	6.105553E-16	3.797785E-17
5.704633E+03	6.059488E-16	3.767972E-17
5.714286E+03	6.012552E-16	3.737681E-17
5.723938E+03	5.964859E-16	3.706988E-17
5.733591E+03	5.916370E-16	3.675872E-17
5.743243E+03	5.867067E-16	3.644326E-17
5.752896E+03	5.817073E-16	3.612432E-17
5.762548E+03	5.766407E-16	3.580205E-17
5.772201E+03	5.715224E-16	3.547745E-17
5.781853E+03	5.663513E-16	3.515047E-17
5.791506E+03	5.611444E-16	3.482223E-17
5.801158E+03	5.559140E-16	3.449349E-17
5.810811E+03	5.506723E-16	3.416506E-17
5.820463E+03	5.454206E-16	3.383703E-17
5.830116E+03	5.401827E-16	3.351091E-17
5.839768E+03	5.349591E-16	3.318676E-17
5.849421E+03	5.297724E-16	3.286598E-17
5.859073E+03	5.246219E-16	3.254855E-17
5.868726E+03	5.195275E-16	3.223573E-17
5.878378E+03	5.144861E-16	3.192734E-17
5.888031E+03	5.095092E-16	3.162409E-17
5.897683E+03	5.046061E-16	3.132653E-17
5.907336E+03	4.997792E-16	3.103470E-17
5.916988E+03	4.950289E-16	3.074855E-17
5.926641E+03	4.903543E-16	3.046797E-17
5.936293E+03	4.857586E-16	3.019306E-17
5.945946E+03	4.812435E-16	2.992388E-17
5.955598E+03	4.768099E-16	2.966039E-17
5.965251E+03	4.724526E-16	2.940223E-17
5.974903E+03	4.681712E-16	2.914929E-17
5.984556E+03	4.639553E-16	2.890086E-17
5.994208E+03	4.598040E-16	2.865685E-17
6.003861E+03	4.557024E-16	2.841625E-17
6.013514E+03	4.516410E-16	2.817843E-17
6.023166E+03	4.476032E-16	2.794228E-17
6.032819E+03	4.435777E-16	2.770706E-17
6.042471E+03	4.395503E-16	2.747181E-17
6.052124E+03	4.355177E-16	2.723627E-17
6.061776E+03	4.314681E-16	2.699968E-17
6.071429E+03	4.273920E-16	2.676136E-17
6.081081E+03	4.232903E-16	2.652134E-17
6.090734E+03	4.191562E-16	2.627914E-17
6.100386E+03	4.149934E-16	2.603493E-17
6.110039E+03	4.107977E-16	2.578842E-17
6.119691E+03	4.065666E-16	2.553940E-17
6.129344E+03	4.023121E-16	2.528859E-17
6.138996E+03	3.980297E-16	2.503564E-17
6.148649E+03	3.937256E-16	2.478092E-17
6.158301E+03	3.894076E-16	2.452487E-17
6.167954E+03	3.850852E-16	2.426805E-17
6.177606E+03	3.807702E-16	2.401118E-17
6.187259E+03	3.764728E-16	2.375486E-17
6.196911E+03	3.722095E-16	2.350013E-17
6.206564E+03	3.680000E-16	2.324820E-17
6.216216E+03	3.638662E-16	2.300043E-17
6.225869E+03	3.598351E-16	2.275853E-17
6.235521E+03	3.559398E-16	2.252457E-17
6.245174E+03	3.522151E-16	2.230077E-17
6.254826E+03	3.487042E-16	2.208986E-17
6.264479E+03	3.454424E-16	2.189407E-17
6.274131E+03	3.424676E-16	2.171582E-17
6.283784E+03	3.398161E-16	2.155744E-17
6.293436E+03	3.375216E-16	2.142107E-17
6.303089E+03	3.356063E-16	2.130813E-17
6.312741E+03	3.340998E-16	2.122052E-17
6.322394E+03	3.330189E-16	2.115933E-17
6.332046E+03	3.323751E-16	2.112530E-17
6.341699E+03	3.321736E-16	2.111877E-17
6.351351E+03	3.324213E-16	2.114018E-17
6.361004E+03	3.331025E-16	2.118854E-17
6.370656E+03	3.342151E-16	2.126371E-17
6.380309E+03	3.357345E-16	2.136412E-17
6.389961E+03	3.376336E-16	2.148802E-17
6.399614E+03	3.398795E-16	2.163332E-17
6.409266E+03	3.424382E-16	2.179782E-17
6.418919E+03	3.452710E-16	2.197904E-17
6.428571E+03	3.483273E-16	2.217371E-17
6.438224E+03	3.515572E-16	2.237863E-17
6.447876E+03	3.549180E-16	2.259104E-17
6.457529E+03	3.583486E-16	2.280702E-17
6.467181E+03	3.618014E-16	2.302350E-17
6.476834E+03	3.652305E-16	2.323753E-17
6.486486E+03	3.685785E-16	2.344542E-17
6.496139E+03	3.718153E-16	2.364521E-17
6.505792E+03	3.748913E-16	2.383374E-17
6.515444E+03	3.777714E-16	2.400875E-17
6.525097E+03	3.804361E-16	2.416899E-17
6.534749E+03	3.828520E-16	2.431231E-17
6.544402E+03	3.850060E-16	2.443788E-17
6.554054E+03	3.868860E-16	2.454495E-17
6.563707E+03	3.884850E-16	2.463307E-17
6.573359E+03	3.898010E-16	2.470212E-17
6.583012E+03	3.908411E-16	2.475258E-17
6.592664E+03	3.916004E-16	2.478415E-17
6.602317E+03	3.920978E-16	2.479808E-17
6.611969E+03	3.923390E-16	2.479473E-17
6.621622E+03	3.923359E-16	2.477490E-17
6.631274E+03	3.921022E-16	2.473949E-17
6.640927E+03	3.916514E-16	2.468941E-17
6.650579E+03	3.910031E-16	2.462590E-17
6.660232E+03	3.901657E-16	2.454957E-17
6.669884E+03	3.891527E-16	2.446129E-17
6.679537E+03	3.879823E-16	2.436226E-17
6.689189E+03	3.866559E-16	2.425261E-17
6.698842E+03	3.851961E-16	2.413380E-17
6.708494E+03	3.836082E-16	2.400623E-17
6.718147E+03	3.819028E-16	2.387059E-17
6.727799E+03	3.800898E-16	2.372755E-17
6.737452E+03	3.781788E-16	2.357777E-17
6.747104E+03	3.761844E-16	2.342219E-17
6.756757E+03	3.741053E-16	2.326079E-17
6.766409E+03	3.719560E-16	2.309452E-17
6.776062E+03	3.697512E-16	2.292433E-17
6.785714E+03	3.674902E-16	2.275022E-17
6.795367E+03	3.651833E-16	2.257287E-17
6.805019E+03	3.628520E-16	2.239366E-17
6.814672E+03	3.604974E-16	2.221270E-17
6.824324E+03	3.581376E-16	2.203113E-17
6.833977E+03	3.557864E-16	2.184983E-17
6.843629E+03	3.534534E-16	2.166942E-17
6.853282E+03	3.511547E-16	2.149092E-17
6.862934E+03	3.489122E-16	2.131569E-17
6.872587E+03	3.467387E-16	2.114451E-17
6.882239E+03	3.446526E-16	2.097851E-17
6.891892E+03	3.426723E-16	2.081882E-17
6.901544E+03	3.408213E-16	2.066686E-17
6.911197E+03	3.391071E-16	2.052307E-17
6.920849E+03	3.375514E-16	2.038873E-17
6.930502E+03	3.361640E-16	2.026442E-17
6.940154E+03	3.349676E-16	2.015146E-17
6.949807E+03	3.339571E-16	2.004952E-17
6.959459E+03	3.331494E-16	1.995956E-17
6.969112E+03	3.325431E-16	1.988144E-17
6.978764E+03	3.321428E-16	1.981540E-17
6.988417E+03	3.319347E-16	1.976057E-17
6.998069E+03	3.319161E-16	1.971672E-17
7.007722E+03	3.320702E-16	1.968284E-17
7.017375E+03	3.323870E-16	1.965828E-17
7.027027E+03	3.328429E-16	1.964161E-17
7.036680E+03	3.334215E-16	1.963184E-17
7.046332E+03	3.340881E-16	1.962691E-17
7.055985E+03	3.348212E-16	1.962556E-17
7.065637E+03	3.355926E-16	1.962614E-17
7.075290E+03	3.363674E-16	1.962663E-17
7.084942E+03	3.371154E-16	1.962530E-17
7.094595E+03	3.378115E-16	1.962072E-17
7.104247E+03	3.384156E-16	1.961064E-17
7.113900E+03	3.389041E-16	1.959375E-17
7.123552E+03	3.392453E-16	1.956832E-17
7.133205E+03	3.394202E-16	1.953332E-17
7.142857E+03	3.393967E-16	1.948704E-17
7.152510E+03	3.391627E-16	1.942886E-17
7.162162E+03	3.386987E-16	1.935782E-17
7.171815E+03	3.379951E-16	1.927347E-17
7.181467E+03	3.370463E-16	1.917563E-17
7.191120E+03	3.358567E-16	1.906467E-17
7.200772E+03	3.344191E-16	1.894030E-17
7.210425E+03	3.327563E-16	1.880395E-17
7.220077E+03	3.308691E-16	1.865576E-17
7.229730E+03	3.287770E-16	1.849696E-17
7.239382E+03	3.264975E-16	1.832860E-17
7.249035E+03	3.240558E-16	1.815214E-17
7.258687E+03	3.214688E-16	1.796853E-17
7.268340E+03	3.187652E-16	1.777939E-17
7.277992E+03	3.159696E-16	1.758607E-17
7.287645E+03	3.131072E-16	1.738998E-17
7.297297E+03	3.102044E-16	1.719255E-17
7.306950E+03	3.072887E-16	1.699528E-17
7.316602E+03	3.043911E-16	1.679985E-17
7.326255E+03	3.015313E-16	1.660728E-17
7.335907E+03	2.987366E-16	1.641904E-17
7.345560E+03	2.960221E-16	1.623591E-17
7.355212E+03	2.934102E-16	1.605902E-17
7.364865E+03	2.909150E-16	1.588911E-17
7.374517E+03	2.885478E-16	1.572670E-17
7.384170E+03	2.863167E-16	1.557217E-17
7.393822E+03	2.842269E-16	1.542573E-17
7.403475E+03	2.822811E-16	1.528743E-17
7.413127E+03	2.804791E-16	1.515722E-17
7.422780E+03	2.788239E-16	1.503515E-17
7.432432E+03	2.773024E-16	1.492046E-17
7.442085E+03	2.759191E-16	1.481333E-17
7.451737E+03	2.746638E-16	1.471312E-17
7.461390E+03	2.735300E-16	1.461943E-17
7.471042E+03	2.725113E-16	1.453186E-17
7.480695E+03	2.716011E-16	1.444999E-17
7.490347E+03	2.707927E-16	1.437340E-17
