#wls	flux	fluxerr
1.544402E+03	3.847079E-17	1.418366E-18
1.583012E+03	3.900367E-17	1.435466E-18
1.621622E+03	3.951293E-17	1.451562E-18
1.660232E+03	3.999698E-17	1.466595E-18
1.698842E+03	4.045229E-17	1.480438E-18
1.737452E+03	4.087904E-17	1.493100E-18
1.776062E+03	4.125876E-17	1.503909E-18
1.814672E+03	4.159091E-17	1.512854E-18
1.853282E+03	4.184374E-17	1.518789E-18
1.891892E+03	4.200833E-17	1.521406E-18
1.930502E+03	4.208389E-17	1.520695E-18
1.969112E+03	4.208313E-17	1.517136E-18
2.007722E+03	4.204729E-17	1.512228E-18
2.046332E+03	4.207917E-17	1.509667E-18
2.084942E+03	4.228731E-17	1.513318E-18
2.123552E+03	4.275340E-17	1.526047E-18
2.162162E+03	4.352559E-17	1.549491E-18
2.200772E+03	4.456741E-17	1.582261E-18
2.239382E+03	4.581138E-17	1.621882E-18
2.277992E+03	4.717810E-17	1.665480E-18
2.316602E+03	4.858859E-17	1.710227E-18
2.355212E+03	5.001938E-17	1.755273E-18
2.393822E+03	5.143240E-17	1.799270E-18
2.432432E+03	5.283500E-17	1.842465E-18
2.471042E+03	5.423544E-17	1.885137E-18
2.509653E+03	5.563003E-17	1.927148E-18
2.548263E+03	5.704759E-17	1.969482E-18
2.586873E+03	5.849347E-17	2.012302E-18
2.625483E+03	5.997243E-17	2.055747E-18
2.664093E+03	6.151244E-17	2.100749E-18
2.702703E+03	6.310939E-17	2.147128E-18
2.741313E+03	6.479059E-17	2.195774E-18
2.779923E+03	6.656748E-17	2.247025E-18
2.818533E+03	6.845170E-17	2.301218E-18
2.857143E+03	7.047115E-17	2.359224E-18
2.895753E+03	7.263078E-17	2.421135E-18
2.905405E+03	7.319769E-17	2.437383E-18
2.915058E+03	7.377093E-17	2.453787E-18
2.924710E+03	7.435834E-17	2.470608E-18
2.934363E+03	7.496034E-17	2.487857E-18
2.944015E+03	7.556970E-17	2.505292E-18
2.953668E+03	7.620283E-17	2.523456E-18
2.963320E+03	7.683633E-17	2.541572E-18
2.972973E+03	7.749345E-17	2.560407E-18
2.982625E+03	7.816652E-17	2.579705E-18
2.992278E+03	7.884764E-17	2.599204E-18
3.001931E+03	7.955249E-17	2.619419E-18
3.011583E+03	8.026550E-17	2.639835E-18
3.021236E+03	8.099457E-17	2.660709E-18
3.030888E+03	8.174832E-17	2.682323E-18
3.040541E+03	8.250920E-17	2.704097E-18
3.050193E+03	8.329582E-17	2.726641E-18
3.059846E+03	8.410044E-17	2.749697E-18
3.069498E+03	8.492297E-17	2.773260E-18
3.079151E+03	8.576343E-17	2.797328E-18
3.088803E+03	8.662963E-17	2.822153E-18
3.098456E+03	8.751379E-17	2.847478E-18
3.108108E+03	8.841607E-17	2.873305E-18
3.117761E+03	8.934417E-17	2.899883E-18
3.127413E+03	9.029836E-17	2.927216E-18
3.137066E+03	9.127098E-17	2.955053E-18
3.146718E+03	9.226988E-17	2.983644E-18
3.156371E+03	9.328757E-17	3.012745E-18
3.166023E+03	9.433190E-17	3.042604E-18
3.175676E+03	9.540313E-17	3.073228E-18
3.185328E+03	9.650144E-17	3.104618E-18
3.194981E+03	9.762709E-17	3.136777E-18
3.204633E+03	9.878035E-17	3.169712E-18
3.214286E+03	9.996135E-17	3.203422E-18
3.223938E+03	1.011704E-16	3.237911E-18
3.233591E+03	1.024155E-16	3.273436E-18
3.243243E+03	1.036814E-16	3.309499E-18
3.252896E+03	1.049839E-16	3.346604E-18
3.262548E+03	1.063232E-16	3.384749E-18
3.272201E+03	1.076919E-16	3.423695E-18
3.281853E+03	1.090900E-16	3.463440E-18
3.291506E+03	1.105257E-16	3.504236E-18
3.301158E+03	1.119992E-16	3.546085E-18
3.310811E+03	1.135029E-16	3.588740E-18
3.320463E+03	1.150524E-16	3.632691E-18
3.330116E+03	1.166325E-16	3.677451E-18
3.339768E+03	1.182510E-16	3.723259E-18
3.349421E+03	1.199159E-16	3.770361E-18
3.359073E+03	1.216192E-16	3.818504E-18
3.368726E+03	1.233612E-16	3.867684E-18
3.378378E+03	1.251418E-16	3.917896E-18
3.388031E+03	1.269686E-16	3.969374E-18
3.397683E+03	1.288339E-16	4.021862E-18
3.407336E+03	1.307450E-16	4.075591E-18
3.416988E+03	1.327020E-16	4.130551E-18
3.426641E+03	1.346965E-16	4.186476E-18
3.436293E+03	1.367361E-16	4.243593E-18
3.445946E+03	1.388280E-16	4.302123E-18
3.455598E+03	1.409561E-16	4.361556E-18
3.465251E+03	1.431353E-16	4.422348E-18
3.474903E+03	1.453571E-16	4.484227E-18
3.484556E+03	1.476206E-16	4.547159E-18
3.494208E+03	1.499327E-16	4.611350E-18
3.503861E+03	1.522844E-16	4.676515E-18
3.513514E+03	1.546823E-16	4.742851E-18
3.523166E+03	1.571253E-16	4.810313E-18
3.532819E+03	1.596117E-16	4.878848E-18
3.542471E+03	1.621400E-16	4.948399E-18
3.552124E+03	1.647085E-16	5.018905E-18
3.561776E+03	1.673152E-16	5.090304E-18
3.571429E+03	1.699582E-16	5.162525E-18
3.581081E+03	1.726431E-16	5.235740E-18
3.590734E+03	1.753597E-16	5.309625E-18
3.600386E+03	1.781136E-16	5.384346E-18
3.610039E+03	1.808939E-16	5.459571E-18
3.619691E+03	1.837061E-16	5.535454E-18
3.629344E+03	1.865550E-16	5.612140E-18
3.638996E+03	1.894217E-16	5.689053E-18
3.648649E+03	1.923109E-16	5.766328E-18
3.658301E+03	1.952271E-16	5.844099E-18
3.667954E+03	1.981589E-16	5.922018E-18
3.677606E+03	2.011027E-16	5.999974E-18
3.687259E+03	2.040626E-16	6.078086E-18
3.696911E+03	2.070267E-16	6.156000E-18
3.706564E+03	2.099991E-16	6.233830E-18
3.716216E+03	2.129755E-16	6.311456E-18
3.725869E+03	2.159518E-16	6.388745E-18
3.735521E+03	2.189158E-16	6.465341E-18
3.745174E+03	2.218789E-16	6.541581E-18
3.754826E+03	2.248211E-16	6.616873E-18
3.764479E+03	2.277534E-16	6.691545E-18
3.774131E+03	2.306635E-16	6.765238E-18
3.783784E+03	2.335471E-16	6.837825E-18
3.793436E+03	2.363995E-16	6.909178E-18
3.803089E+03	2.392241E-16	6.979395E-18
3.812741E+03	2.420087E-16	7.048125E-18
3.822394E+03	2.447565E-16	7.115466E-18
3.832046E+03	2.474555E-16	7.181080E-18
3.841699E+03	2.501017E-16	7.244851E-18
3.851351E+03	2.526983E-16	7.306889E-18
3.861004E+03	2.552414E-16	7.367077E-18
3.870656E+03	2.577196E-16	7.425104E-18
3.880309E+03	2.601293E-16	7.480871E-18
3.889961E+03	2.624671E-16	7.534295E-18
3.899614E+03	2.647370E-16	7.585499E-18
3.909266E+03	2.669287E-16	7.634200E-18
3.918919E+03	2.690466E-16	7.680535E-18
3.928571E+03	2.710740E-16	7.724041E-18
3.938224E+03	2.730227E-16	7.765068E-18
3.947876E+03	2.748768E-16	7.803178E-18
3.957529E+03	2.766420E-16	7.838544E-18
3.967181E+03	2.783168E-16	7.871142E-18
3.976834E+03	2.798936E-16	7.900771E-18
3.986486E+03	2.813719E-16	7.927433E-18
3.996139E+03	2.827585E-16	7.951333E-18
4.005792E+03	2.840402E-16	7.972120E-18
4.015444E+03	2.852179E-16	7.989834E-18
4.025097E+03	2.862992E-16	8.004707E-18
4.034749E+03	2.872793E-16	8.016618E-18
4.044402E+03	2.881601E-16	8.025638E-18
4.054054E+03	2.889377E-16	8.031675E-18
4.063707E+03	2.896089E-16	8.034659E-18
4.073359E+03	2.901890E-16	8.035033E-18
4.083012E+03	2.906637E-16	8.032414E-18
4.092664E+03	2.910488E-16	8.027257E-18
4.102317E+03	2.913312E-16	8.019217E-18
4.111969E+03	2.915272E-16	8.008760E-18
4.121622E+03	2.916250E-16	7.995577E-18
4.131274E+03	2.916412E-16	7.980141E-18
4.140927E+03	2.915651E-16	7.962169E-18
4.150579E+03	2.914138E-16	7.942149E-18
4.160232E+03	2.911775E-16	7.919823E-18
4.169884E+03	2.908682E-16	7.895535E-18
4.179537E+03	2.904875E-16	7.869341E-18
4.189189E+03	2.900375E-16	7.841309E-18
4.198842E+03	2.895255E-16	7.811648E-18
4.208494E+03	2.889537E-16	7.780431E-18
4.218147E+03	2.883248E-16	7.747740E-18
4.227799E+03	2.876466E-16	7.713793E-18
4.237452E+03	2.869265E-16	7.678802E-18
4.247104E+03	2.861628E-16	7.642725E-18
4.256757E+03	2.853630E-16	7.605773E-18
4.266409E+03	2.845348E-16	7.568155E-18
4.276062E+03	2.836810E-16	7.529953E-18
4.285714E+03	2.828045E-16	7.491249E-18
4.295367E+03	2.819168E-16	7.452351E-18
4.305019E+03	2.810160E-16	7.413213E-18
4.314672E+03	2.801090E-16	7.374021E-18
4.324324E+03	2.792021E-16	7.334939E-18
4.333977E+03	2.783015E-16	7.296133E-18
4.343629E+03	2.774087E-16	7.257640E-18
4.353282E+03	2.765252E-16	7.219504E-18
4.362934E+03	2.756641E-16	7.182063E-18
4.372587E+03	2.748223E-16	7.145231E-18
4.382239E+03	2.740038E-16	7.109116E-18
4.391892E+03	2.732129E-16	7.073819E-18
4.401544E+03	2.724567E-16	7.039528E-18
4.411197E+03	2.717309E-16	7.006121E-18
4.420849E+03	2.710418E-16	6.973761E-18
4.430502E+03	2.703918E-16	6.942503E-18
4.440154E+03	2.697828E-16	6.912389E-18
4.449807E+03	2.692124E-16	6.883355E-18
4.459459E+03	2.686821E-16	6.855431E-18
4.469112E+03	2.681994E-16	6.828809E-18
4.478764E+03	2.677577E-16	6.803307E-18
4.488417E+03	2.673569E-16	6.778921E-18
4.498069E+03	2.670003E-16	6.755728E-18
4.507722E+03	2.666869E-16	6.733700E-18
4.517375E+03	2.664124E-16	6.712719E-18
4.527027E+03	2.661788E-16	6.692833E-18
4.536680E+03	2.659845E-16	6.673997E-18
4.546332E+03	2.658243E-16	6.656074E-18
4.555985E+03	2.657030E-16	6.639181E-18
4.565637E+03	2.656117E-16	6.623091E-18
4.575290E+03	2.655515E-16	6.607829E-18
4.584942E+03	2.655204E-16	6.593341E-18
4.594595E+03	2.655197E-16	6.579654E-18
4.604247E+03	2.655443E-16	6.566643E-18
4.613900E+03	2.655963E-16	6.554356E-18
4.623552E+03	2.656749E-16	6.542768E-18
4.633205E+03	2.657765E-16	6.531792E-18
4.642857E+03	2.659116E-16	6.521681E-18
4.652510E+03	2.660715E-16	6.512218E-18
4.662162E+03	2.662679E-16	6.503687E-18
4.671815E+03	2.664998E-16	6.496063E-18
4.681467E+03	2.667736E-16	6.489492E-18
4.691120E+03	2.670897E-16	6.483983E-18
4.700772E+03	2.674584E-16	6.479774E-18
4.710425E+03	2.678810E-16	6.476892E-18
4.720077E+03	2.683650E-16	6.475510E-18
4.729730E+03	2.689150E-16	6.475728E-18
4.739382E+03	2.695385E-16	6.477719E-18
4.749035E+03	2.702426E-16	6.481642E-18
4.758687E+03	2.710243E-16	6.487412E-18
4.768340E+03	2.718927E-16	6.495235E-18
4.777992E+03	2.728533E-16	6.505228E-18
4.787645E+03	2.739011E-16	6.517260E-18
4.797297E+03	2.750468E-16	6.531568E-18
4.806950E+03	2.762842E-16	6.547993E-18
4.816602E+03	2.776197E-16	6.566673E-18
4.826255E+03	2.790527E-16	6.587577E-18
4.835907E+03	2.805789E-16	6.610591E-18
4.845560E+03	2.822003E-16	6.635747E-18
4.855212E+03	2.839185E-16	6.663071E-18
4.864865E+03	2.857320E-16	6.692510E-18
4.874517E+03	2.876354E-16	6.723926E-18
4.884170E+03	2.896302E-16	6.757340E-18
4.893822E+03	2.917145E-16	6.792694E-18
4.903475E+03	2.938898E-16	6.830013E-18
4.913127E+03	2.961510E-16	6.869162E-18
4.922780E+03	2.985000E-16	6.910175E-18
4.932432E+03	3.009355E-16	6.953009E-18
4.942085E+03	3.034565E-16	6.997625E-18
4.951737E+03	3.060588E-16	7.043918E-18
4.961390E+03	3.087487E-16	7.092021E-18
4.971042E+03	3.115193E-16	7.141759E-18
4.980695E+03	3.143777E-16	7.193290E-18
4.990347E+03	3.173211E-16	7.246529E-18
5.000000E+03	3.203465E-16	7.301403E-18
5.009653E+03	3.234624E-16	7.358090E-18
5.019305E+03	3.266703E-16	7.416610E-18
5.028958E+03	3.299647E-16	7.476828E-18
5.038610E+03	3.333509E-16	7.538851E-18
5.048263E+03	3.368273E-16	7.602628E-18
5.057915E+03	3.404036E-16	7.668367E-18
5.067568E+03	3.440745E-16	7.735931E-18
5.077220E+03	3.478457E-16	7.805439E-18
5.086873E+03	3.517156E-16	7.876839E-18
5.096525E+03	3.556860E-16	7.950156E-18
5.106178E+03	3.597585E-16	8.025413E-18
5.115830E+03	3.639302E-16	8.102530E-18
5.125483E+03	3.682061E-16	8.181603E-18
5.135135E+03	3.725823E-16	8.262534E-18
5.144788E+03	3.770586E-16	8.345303E-18
5.154440E+03	3.816342E-16	8.429874E-18
5.164093E+03	3.862987E-16	8.516011E-18
5.173745E+03	3.910584E-16	8.603834E-18
5.183398E+03	3.959012E-16	8.693064E-18
5.193050E+03	4.008228E-16	8.783597E-18
5.202703E+03	4.058180E-16	8.875306E-18
5.212355E+03	4.108759E-16	8.967942E-18
5.222008E+03	4.159937E-16	9.061436E-18
5.231660E+03	4.211539E-16	9.155398E-18
5.241313E+03	4.263517E-16	9.249715E-18
5.250965E+03	4.315718E-16	9.344051E-18
5.260618E+03	4.368025E-16	9.438150E-18
5.270270E+03	4.420313E-16	9.531738E-18
5.279923E+03	4.472447E-16	9.624525E-18
5.289575E+03	4.524282E-16	9.716200E-18
5.299228E+03	4.575617E-16	9.806332E-18
5.308880E+03	4.626392E-16	9.894801E-18
5.318533E+03	4.676342E-16	9.981046E-18
5.328185E+03	4.725344E-16	1.006482E-17
5.337838E+03	4.773279E-16	1.014587E-17
5.347490E+03	4.819919E-16	1.022374E-17
5.357143E+03	4.865138E-16	1.029816E-17
5.366795E+03	4.908762E-16	1.036880E-17
5.376448E+03	4.950670E-16	1.043542E-17
5.386100E+03	4.990694E-16	1.049768E-17
5.395753E+03	5.028726E-16	1.055538E-17
5.405405E+03	5.064554E-16	1.060811E-17
5.415058E+03	5.098141E-16	1.065582E-17
5.424710E+03	5.129295E-16	1.069813E-17
5.434363E+03	5.157946E-16	1.073493E-17
5.444015E+03	5.184094E-16	1.076626E-17
5.453668E+03	5.207528E-16	1.079171E-17
5.463320E+03	5.228220E-16	1.081125E-17
5.472973E+03	5.246159E-16	1.082491E-17
5.482625E+03	5.261292E-16	1.083261E-17
5.492278E+03	5.273585E-16	1.083432E-17
5.501931E+03	5.283076E-16	1.083015E-17
5.511583E+03	5.289706E-16	1.082003E-17
5.521236E+03	5.293607E-16	1.080425E-17
5.530888E+03	5.294690E-16	1.078268E-17
5.540541E+03	5.293121E-16	1.075570E-17
5.550193E+03	5.288961E-16	1.072346E-17
5.559846E+03	5.282226E-16	1.068603E-17
5.569498E+03	5.273120E-16	1.064386E-17
5.579151E+03	5.261626E-16	1.059695E-17
5.588803E+03	5.247912E-16	1.054566E-17
5.598456E+03	5.232096E-16	1.049027E-17
5.608108E+03	5.214361E-16	1.043118E-17
5.617761E+03	5.194722E-16	1.036844E-17
5.627413E+03	5.173432E-16	1.030258E-17
5.637066E+03	5.150571E-16	1.023378E-17
5.646718E+03	5.126281E-16	1.016235E-17
5.656371E+03	5.100704E-16	1.008859E-17
5.666023E+03	5.073982E-16	1.001280E-17
5.675676E+03	5.046255E-16	9.935280E-18
5.685328E+03	5.017661E-16	9.856305E-18
5.694981E+03	4.988281E-16	9.776052E-18
5.704633E+03	4.958359E-16	9.695008E-18
5.714286E+03	4.927911E-16	9.613219E-18
5.723938E+03	4.897063E-16	9.530935E-18
5.733591E+03	4.865938E-16	9.448404E-18
5.743243E+03	4.834707E-16	9.365962E-18
5.752896E+03	4.803375E-16	9.283622E-18
5.762548E+03	4.772160E-16	9.201810E-18
5.772201E+03	4.741010E-16	9.120421E-18
5.781853E+03	4.710188E-16	9.039965E-18
5.791506E+03	4.679635E-16	8.960328E-18
5.801158E+03	4.649507E-16	8.881802E-18
5.810811E+03	4.619900E-16	8.804568E-18
5.820463E+03	4.590859E-16	8.728709E-18
5.830116E+03	4.562534E-16	8.654501E-18
5.839768E+03	4.534968E-16	8.582016E-18
5.849421E+03	4.508204E-16	8.511332E-18
5.859073E+03	4.482440E-16	8.442812E-18
5.868726E+03	4.457621E-16	8.376338E-18
5.878378E+03	4.433942E-16	8.312269E-18
5.888031E+03	4.411449E-16	8.250674E-18
5.897683E+03	4.390236E-16	8.191719E-18
5.907336E+03	4.370348E-16	8.135471E-18
5.916988E+03	4.351929E-16	8.082182E-18
5.926641E+03	4.335018E-16	8.031908E-18
5.936293E+03	4.319705E-16	7.984798E-18
5.945946E+03	4.306123E-16	7.941077E-18
5.955598E+03	4.294250E-16	7.900688E-18
5.965251E+03	4.284207E-16	7.863830E-18
5.974903E+03	4.276052E-16	7.830592E-18
5.984556E+03	4.269834E-16	7.801038E-18
5.994208E+03	4.265584E-16	7.775204E-18
6.003861E+03	4.263267E-16	7.752999E-18
6.013514E+03	4.262924E-16	7.734474E-18
6.023166E+03	4.264529E-16	7.719554E-18
6.032819E+03	4.267989E-16	7.708046E-18
6.042471E+03	4.273294E-16	7.699908E-18
6.052124E+03	4.280322E-16	7.694895E-18
6.061776E+03	4.289089E-16	7.693017E-18
6.071429E+03	4.299407E-16	7.693916E-18
6.081081E+03	4.311233E-16	7.697493E-18
6.090734E+03	4.324467E-16	7.703553E-18
6.100386E+03	4.338960E-16	7.711813E-18
6.110039E+03	4.354715E-16	7.722262E-18
6.119691E+03	4.371581E-16	7.734621E-18
6.129344E+03	4.389464E-16	7.748708E-18
6.138996E+03	4.408324E-16	7.764440E-18
6.148649E+03	4.427968E-16	7.781469E-18
6.158301E+03	4.448419E-16	7.799826E-18
6.167954E+03	4.469600E-16	7.819365E-18
6.177606E+03	4.491331E-16	7.839767E-18
6.187259E+03	4.513702E-16	7.861180E-18
6.196911E+03	4.536532E-16	7.883279E-18
6.206564E+03	4.559795E-16	7.906013E-18
6.216216E+03	4.583396E-16	7.929211E-18
6.225869E+03	4.607220E-16	7.952669E-18
6.235521E+03	4.631133E-16	7.976153E-18
6.245174E+03	4.654983E-16	7.999396E-18
6.254826E+03	4.678661E-16	8.022215E-18
6.264479E+03	4.701940E-16	8.044220E-18
6.274131E+03	4.724648E-16	8.065119E-18
6.283784E+03	4.746730E-16	8.084826E-18
6.293436E+03	4.767906E-16	8.102869E-18
6.303089E+03	4.788132E-16	8.119184E-18
6.312741E+03	4.807136E-16	8.133319E-18
6.322394E+03	4.824949E-16	8.145342E-18
6.332046E+03	4.841312E-16	8.154824E-18
6.341699E+03	4.856150E-16	8.161657E-18
6.351351E+03	4.869397E-16	8.165748E-18
6.361004E+03	4.880870E-16	8.166805E-18
6.370656E+03	4.890456E-16	8.164662E-18
6.380309E+03	4.898172E-16	8.159362E-18
6.389961E+03	4.903856E-16	8.150661E-18
6.399614E+03	4.907418E-16	8.138428E-18
6.409266E+03	4.908836E-16	8.122653E-18
6.418919E+03	4.908038E-16	8.103238E-18
6.428571E+03	4.904958E-16	8.080101E-18
6.438224E+03	4.899609E-16	8.053285E-18
6.447876E+03	4.891884E-16	8.022642E-18
6.457529E+03	4.881815E-16	7.988252E-18
6.467181E+03	4.869386E-16	7.950110E-18
6.476834E+03	4.854590E-16	7.908236E-18
6.486486E+03	4.837500E-16	7.862771E-18
6.496139E+03	4.818138E-16	7.813777E-18
6.505792E+03	4.796539E-16	7.761337E-18
6.515444E+03	4.772687E-16	7.705451E-18
6.525097E+03	4.746771E-16	7.646445E-18
6.534749E+03	4.718802E-16	7.584366E-18
6.544402E+03	4.688930E-16	7.519471E-18
6.554054E+03	4.657250E-16	7.451939E-18
6.563707E+03	4.623810E-16	7.381864E-18
6.573359E+03	4.588849E-16	7.309646E-18
6.583012E+03	4.552368E-16	7.235308E-18
6.592664E+03	4.514622E-16	7.159268E-18
6.602317E+03	4.475685E-16	7.081661E-18
6.611969E+03	4.435698E-16	7.002721E-18
6.621622E+03	4.394863E-16	6.922780E-18
6.631274E+03	4.353264E-16	6.841981E-18
6.640927E+03	4.311102E-16	6.760647E-18
6.650579E+03	4.268521E-16	6.679012E-18
6.660232E+03	4.225600E-16	6.597206E-18
6.669884E+03	4.182532E-16	6.515533E-18
6.679537E+03	4.139449E-16	6.434201E-18
6.689189E+03	4.096475E-16	6.353406E-18
6.698842E+03	4.053673E-16	6.273244E-18
6.708494E+03	4.011212E-16	6.193977E-18
6.718147E+03	3.969252E-16	6.115849E-18
6.727799E+03	3.927727E-16	6.038754E-18
6.737452E+03	3.886889E-16	5.963080E-18
6.747104E+03	3.846768E-16	5.888864E-18
6.756757E+03	3.807385E-16	5.816133E-18
6.766409E+03	3.768862E-16	5.745068E-18
6.776062E+03	3.731258E-16	5.675752E-18
6.785714E+03	3.694573E-16	5.608178E-18
6.795367E+03	3.658908E-16	5.542491E-18
6.805019E+03	3.624249E-16	5.478665E-18
6.814672E+03	3.590632E-16	5.416744E-18
6.824324E+03	3.558135E-16	5.356838E-18
6.833977E+03	3.526732E-16	5.298901E-18
6.843629E+03	3.496488E-16	5.243022E-18
6.853282E+03	3.467322E-16	5.189069E-18
6.862934E+03	3.439289E-16	5.137122E-18
6.872587E+03	3.412351E-16	5.087112E-18
6.882239E+03	3.386607E-16	5.039180E-18
6.891892E+03	3.361912E-16	4.993105E-18
6.901544E+03	3.338359E-16	4.949018E-18
6.911197E+03	3.315897E-16	4.906838E-18
6.920849E+03	3.294521E-16	4.866549E-18
6.930502E+03	3.274222E-16	4.828134E-18
6.940154E+03	3.254944E-16	4.791505E-18
6.949807E+03	3.236679E-16	4.756644E-18
6.959459E+03	3.219414E-16	4.723530E-18
6.969112E+03	3.203182E-16	4.692208E-18
6.978764E+03	3.187835E-16	4.662455E-18
6.988417E+03	3.173449E-16	4.634381E-18
6.998069E+03	3.160010E-16	4.607965E-18
7.007722E+03	3.147414E-16	4.583051E-18
7.017375E+03	3.135645E-16	4.559616E-18
7.027027E+03	3.124733E-16	4.537702E-18
7.036680E+03	3.114618E-16	4.517221E-18
7.046332E+03	3.105238E-16	4.498085E-18
7.055985E+03	3.096619E-16	4.480332E-18
7.065637E+03	3.088701E-16	4.463877E-18
7.075290E+03	3.081466E-16	4.448693E-18
7.084942E+03	3.074892E-16	4.434754E-18
7.094595E+03	3.068961E-16	4.422034E-18
7.104247E+03	3.063566E-16	4.410382E-18
7.113900E+03	3.058726E-16	4.399829E-18
7.123552E+03	3.054461E-16	4.390410E-18
7.133205E+03	3.050619E-16	4.381908E-18
7.142857E+03	3.047303E-16	4.374476E-18
7.152510E+03	3.044357E-16	4.367895E-18
7.162162E+03	3.041838E-16	4.362254E-18
7.171815E+03	3.039720E-16	4.357518E-18
7.181467E+03	3.037883E-16	4.353523E-18
7.191120E+03	3.036341E-16	4.350294E-18
7.200772E+03	3.035107E-16	4.347856E-18
7.210425E+03	3.034064E-16	4.346048E-18
7.220077E+03	3.033268E-16	4.344956E-18
7.229730E+03	3.032693E-16	4.344550E-18
7.239382E+03	3.032270E-16	4.344735E-18
7.249035E+03	3.031977E-16	4.345490E-18
7.258687E+03	3.031837E-16	4.346850E-18
7.268340E+03	3.031836E-16	4.348788E-18
7.277992E+03	3.031956E-16	4.351275E-18
7.287645E+03	3.032178E-16	4.354279E-18
7.297297E+03	3.032481E-16	4.357763E-18
7.306950E+03	3.032883E-16	4.361748E-18
7.316602E+03	3.033357E-16	4.366190E-18
7.326255E+03	3.033833E-16	4.370983E-18
7.335907E+03	3.034332E-16	4.376149E-18
7.345560E+03	3.034876E-16	4.381718E-18
7.355212E+03	3.035406E-16	4.387596E-18
7.364865E+03	3.035953E-16	4.393822E-18
7.374517E+03	3.036459E-16	4.400308E-18
7.384170E+03	3.036918E-16	4.407037E-18
7.393822E+03	3.037407E-16	4.414118E-18
7.403475E+03	3.037877E-16	4.421469E-18
7.413127E+03	3.038273E-16	4.429008E-18
7.422780E+03	3.038679E-16	4.436849E-18
7.432432E+03	3.039040E-16	4.444907E-18
7.442085E+03	3.039350E-16	4.453165E-18
7.451737E+03	3.039597E-16	4.461601E-18
7.461390E+03	3.039772E-16	4.470194E-18
7.471042E+03	3.039909E-16	4.478990E-18
7.480695E+03	3.039951E-16	4.487896E-18
7.490347E+03	3.039888E-16	4.496891E-18
