#wls	flux	fluxerr
1.544402E+03	4.748021E-18	1.422066E-19
1.583012E+03	4.804538E-18	1.438275E-19
1.621622E+03	4.860233E-18	1.454205E-19
1.660232E+03	4.915256E-18	1.469899E-19
1.698842E+03	4.968670E-18	1.485076E-19
1.737452E+03	5.020832E-18	1.499843E-19
1.776062E+03	5.069873E-18	1.513643E-19
1.814672E+03	5.116075E-18	1.526559E-19
1.853282E+03	5.155971E-18	1.537558E-19
1.891892E+03	5.188819E-18	1.546422E-19
1.930502E+03	5.213104E-18	1.552703E-19
1.969112E+03	5.232533E-18	1.557509E-19
2.007722E+03	5.251727E-18	1.562215E-19
2.046332E+03	5.283120E-18	1.570519E-19
2.084942E+03	5.341995E-18	1.586953E-19
2.123552E+03	5.438893E-18	1.614628E-19
2.162162E+03	5.580559E-18	1.655520E-19
2.200772E+03	5.765062E-18	1.709027E-19
2.239382E+03	5.984768E-18	1.772858E-19
2.277992E+03	6.230347E-18	1.844226E-19
2.316602E+03	6.495318E-18	1.921191E-19
2.355212E+03	6.773294E-18	2.001851E-19
2.393822E+03	7.065127E-18	2.086443E-19
2.432432E+03	7.369374E-18	2.174529E-19
2.471042E+03	7.690440E-18	2.267393E-19
2.509653E+03	8.029986E-18	2.365509E-19
2.548263E+03	8.392566E-18	2.470198E-19
2.586873E+03	8.779086E-18	2.581706E-19
2.625483E+03	9.196026E-18	2.701910E-19
2.664093E+03	9.646099E-18	2.831581E-19
2.702703E+03	1.013522E-17	2.972418E-19
2.741313E+03	1.066667E-17	3.125347E-19
2.779923E+03	1.124561E-17	3.291835E-19
2.818533E+03	1.187766E-17	3.473481E-19
2.857143E+03	1.257093E-17	3.672599E-19
2.895753E+03	1.333052E-17	3.890616E-19
2.905405E+03	1.353183E-17	3.948374E-19
2.915058E+03	1.373776E-17	4.007444E-19
2.924710E+03	1.394842E-17	4.067862E-19
2.934363E+03	1.416608E-17	4.130283E-19
2.944015E+03	1.438679E-17	4.193558E-19
2.953668E+03	1.461289E-17	4.258367E-19
2.963320E+03	1.484666E-17	4.325374E-19
2.972973E+03	1.508609E-17	4.393990E-19
2.982625E+03	1.532904E-17	4.463591E-19
2.992278E+03	1.558012E-17	4.535517E-19
3.001931E+03	1.583721E-17	4.609150E-19
3.011583E+03	1.610045E-17	4.684532E-19
3.021236E+03	1.636998E-17	4.761696E-19
3.030888E+03	1.664609E-17	4.840728E-19
3.040541E+03	1.692848E-17	4.921541E-19
3.050193E+03	1.721792E-17	5.004357E-19
3.059846E+03	1.751707E-17	5.089944E-19
3.069498E+03	1.782102E-17	5.176872E-19
3.079151E+03	1.813501E-17	5.266667E-19
3.088803E+03	1.845397E-17	5.357852E-19
3.098456E+03	1.878335E-17	5.452004E-19
3.108108E+03	1.912063E-17	5.548396E-19
3.117761E+03	1.946601E-17	5.647076E-19
3.127413E+03	1.981960E-17	5.748080E-19
3.137066E+03	2.018159E-17	5.851461E-19
3.146718E+03	2.055213E-17	5.957256E-19
3.156371E+03	2.093138E-17	6.065512E-19
3.166023E+03	2.131952E-17	6.176279E-19
3.175676E+03	2.171980E-17	6.290494E-19
3.185328E+03	2.212629E-17	6.406436E-19
3.194981E+03	2.254217E-17	6.525029E-19
3.204633E+03	2.297087E-17	6.647258E-19
3.214286E+03	2.340943E-17	6.772267E-19
3.223938E+03	2.385470E-17	6.899140E-19
3.233591E+03	2.431349E-17	7.029843E-19
3.243243E+03	2.478269E-17	7.163475E-19
3.252896E+03	2.526246E-17	7.300082E-19
3.262548E+03	2.575298E-17	7.439712E-19
3.272201E+03	2.625444E-17	7.582413E-19
3.281853E+03	2.676700E-17	7.728232E-19
3.291506E+03	2.729458E-17	7.878297E-19
3.301158E+03	2.782988E-17	8.030496E-19
3.310811E+03	2.837674E-17	8.185938E-19
3.320463E+03	2.893929E-17	8.345809E-19
3.330116E+03	2.950978E-17	8.507870E-19
3.339768E+03	3.009635E-17	8.674464E-19
3.349421E+03	3.069516E-17	8.844481E-19
3.359073E+03	3.130203E-17	9.016718E-19
3.368726E+03	3.192551E-17	9.193629E-19
3.378378E+03	3.256149E-17	9.374027E-19
3.388031E+03	3.321002E-17	9.557926E-19
3.397683E+03	3.387114E-17	9.745334E-19
3.407336E+03	3.454486E-17	9.936249E-19
3.416988E+03	3.523120E-17	1.013067E-18
3.426641E+03	3.593012E-17	1.032859E-18
3.436293E+03	3.664647E-17	1.053140E-18
3.445946E+03	3.737046E-17	1.073627E-18
3.455598E+03	3.810679E-17	1.094456E-18
3.465251E+03	3.886051E-17	1.115771E-18
3.474903E+03	3.962122E-17	1.137273E-18
3.484556E+03	4.039911E-17	1.159255E-18
3.494208E+03	4.118882E-17	1.181562E-18
3.503861E+03	4.198455E-17	1.204028E-18
3.513514E+03	4.279698E-17	1.226959E-18
3.523166E+03	4.362034E-17	1.250188E-18
3.532819E+03	4.445426E-17	1.273706E-18
3.542471E+03	4.529244E-17	1.297330E-18
3.552124E+03	4.614618E-17	1.321385E-18
3.561776E+03	4.700918E-17	1.345691E-18
3.571429E+03	4.788095E-17	1.370232E-18
3.581081E+03	4.876098E-17	1.394994E-18
3.590734E+03	4.964870E-17	1.419960E-18
3.600386E+03	5.055002E-17	1.445299E-18
3.610039E+03	5.145145E-17	1.470626E-18
3.619691E+03	5.235875E-17	1.496104E-18
3.629344E+03	5.327128E-17	1.521716E-18
3.638996E+03	5.419529E-17	1.547640E-18
3.648649E+03	5.511639E-17	1.573464E-18
3.658301E+03	5.604069E-17	1.599363E-18
3.667954E+03	5.697474E-17	1.625525E-18
3.677606E+03	5.790349E-17	1.651519E-18
3.687259E+03	5.884081E-17	1.677741E-18
3.696911E+03	5.977125E-17	1.703750E-18
3.706564E+03	6.070905E-17	1.729953E-18
3.716216E+03	6.163838E-17	1.755899E-18
3.725869E+03	6.257392E-17	1.782005E-18
3.735521E+03	6.349942E-17	1.807809E-18
3.745174E+03	6.442996E-17	1.833741E-18
3.754826E+03	6.535705E-17	1.859559E-18
3.764479E+03	6.627177E-17	1.885009E-18
3.774131E+03	6.718980E-17	1.910537E-18
3.783784E+03	6.810233E-17	1.935894E-18
3.793436E+03	6.900018E-17	1.960817E-18
3.803089E+03	6.989957E-17	1.985770E-18
3.812741E+03	7.079137E-17	2.010492E-18
3.822394E+03	7.166611E-17	2.034714E-18
3.832046E+03	7.254050E-17	2.058912E-18
3.841699E+03	7.340513E-17	2.082819E-18
3.851351E+03	7.425923E-17	2.106412E-18
3.861004E+03	7.509293E-17	2.129414E-18
3.870656E+03	7.592360E-17	2.152316E-18
3.880309E+03	7.674143E-17	2.174840E-18
3.889961E+03	7.754563E-17	2.196966E-18
3.899614E+03	7.832602E-17	2.218404E-18
3.909266E+03	7.910060E-17	2.239665E-18
3.918919E+03	7.985929E-17	2.260465E-18
3.928571E+03	8.060138E-17	2.280783E-18
3.938224E+03	8.131652E-17	2.300328E-18
3.947876E+03	8.202341E-17	2.319628E-18
3.957529E+03	8.271187E-17	2.338397E-18
3.967181E+03	8.337153E-17	2.356342E-18
3.976834E+03	8.402169E-17	2.374008E-18
3.986486E+03	8.465220E-17	2.391111E-18
3.996139E+03	8.525279E-17	2.407360E-18
4.005792E+03	8.584334E-17	2.423317E-18
4.015444E+03	8.640372E-17	2.438415E-18
4.025097E+03	8.695420E-17	2.453227E-18
4.034749E+03	8.747466E-17	2.467184E-18
4.044402E+03	8.798578E-17	2.480872E-18
4.054054E+03	8.846745E-17	2.493724E-18
4.063707E+03	8.894070E-17	2.506333E-18
4.073359E+03	8.938550E-17	2.518134E-18
4.083012E+03	8.981277E-17	2.529438E-18
4.092664E+03	9.023368E-17	2.540559E-18
4.102317E+03	9.062824E-17	2.550933E-18
4.111969E+03	9.100771E-17	2.560880E-18
4.121622E+03	9.137303E-17	2.570425E-18
4.131274E+03	9.172518E-17	2.579597E-18
4.140927E+03	9.206521E-17	2.588426E-18
4.150579E+03	9.239419E-17	2.596943E-18
4.160232E+03	9.271324E-17	2.605178E-18
4.169884E+03	9.302351E-17	2.613166E-18
4.179537E+03	9.332620E-17	2.620939E-18
4.189189E+03	9.362253E-17	2.628532E-18
4.198842E+03	9.391374E-17	2.635981E-18
4.208494E+03	9.419051E-17	2.643025E-18
4.218147E+03	9.447539E-17	2.650295E-18
4.227799E+03	9.475915E-17	2.657534E-18
4.237452E+03	9.503250E-17	2.664481E-18
4.247104E+03	9.530755E-17	2.671476E-18
4.256757E+03	9.559643E-17	2.678859E-18
4.266409E+03	9.587933E-17	2.686075E-18
4.276062E+03	9.616845E-17	2.693465E-18
4.285714E+03	9.646544E-17	2.701076E-18
4.295367E+03	9.678252E-17	2.709251E-18
4.305019E+03	9.710003E-17	2.717438E-18
4.314672E+03	9.741950E-17	2.725680E-18
4.324324E+03	9.776418E-17	2.734628E-18
4.333977E+03	9.812477E-17	2.744022E-18
4.343629E+03	9.850311E-17	2.753912E-18
4.353282E+03	9.888988E-17	2.764039E-18
4.362934E+03	9.930808E-17	2.775044E-18
4.372587E+03	9.973763E-17	2.786367E-18
4.382239E+03	1.002015E-16	2.798650E-18
4.391892E+03	1.006790E-16	2.811312E-18
4.401544E+03	1.011822E-16	2.824691E-18
4.411197E+03	1.017118E-16	2.838807E-18
4.420849E+03	1.022684E-16	2.853678E-18
4.430502E+03	1.028526E-16	2.869317E-18
4.440154E+03	1.034644E-16	2.885724E-18
4.449807E+03	1.040925E-16	2.902589E-18
4.459459E+03	1.047590E-16	2.920522E-18
4.469112E+03	1.054522E-16	2.939197E-18
4.478764E+03	1.061595E-16	2.958266E-18
4.488417E+03	1.068911E-16	2.978011E-18
4.498069E+03	1.076569E-16	2.998710E-18
4.507722E+03	1.084324E-16	3.019677E-18
4.517375E+03	1.092267E-16	3.041165E-18
4.527027E+03	1.100259E-16	3.062791E-18
4.536680E+03	1.108507E-16	3.085130E-18
4.546332E+03	1.116868E-16	3.107781E-18
4.555985E+03	1.125311E-16	3.130663E-18
4.565637E+03	1.133684E-16	3.153349E-18
4.575290E+03	1.142073E-16	3.176081E-18
4.584942E+03	1.150563E-16	3.199095E-18
4.594595E+03	1.158877E-16	3.221622E-18
4.604247E+03	1.167098E-16	3.243890E-18
4.613900E+03	1.175186E-16	3.265795E-18
4.623552E+03	1.182978E-16	3.286878E-18
4.633205E+03	1.190681E-16	3.307717E-18
4.642857E+03	1.198132E-16	3.327861E-18
4.652510E+03	1.205174E-16	3.346874E-18
4.662162E+03	1.211916E-16	3.365061E-18
4.671815E+03	1.218471E-16	3.382733E-18
4.681467E+03	1.224568E-16	3.399141E-18
4.691120E+03	1.230322E-16	3.414603E-18
4.700772E+03	1.235718E-16	3.429083E-18
4.710425E+03	1.240620E-16	3.442197E-18
4.720077E+03	1.245273E-16	3.454630E-18
4.729730E+03	1.249416E-16	3.465658E-18
4.739382E+03	1.253302E-16	3.475981E-18
4.749035E+03	1.256670E-16	3.484877E-18
4.758687E+03	1.259648E-16	3.492704E-18
4.768340E+03	1.262239E-16	3.499468E-18
4.777992E+03	1.264449E-16	3.505186E-18
4.787645E+03	1.266282E-16	3.509866E-18
4.797297E+03	1.267616E-16	3.513178E-18
4.806950E+03	1.268721E-16	3.515863E-18
4.816602E+03	1.269346E-16	3.517233E-18
4.826255E+03	1.269767E-16	3.518045E-18
4.835907E+03	1.269733E-16	3.517610E-18
4.845560E+03	1.269391E-16	3.516334E-18
4.855212E+03	1.268758E-16	3.514259E-18
4.864865E+03	1.267718E-16	3.511071E-18
4.874517E+03	1.266551E-16	3.507542E-18
4.884170E+03	1.265018E-16	3.503008E-18
4.893822E+03	1.263394E-16	3.498237E-18
4.903475E+03	1.261448E-16	3.492582E-18
4.913127E+03	1.259329E-16	3.486460E-18
4.922780E+03	1.257062E-16	3.479940E-18
4.932432E+03	1.254676E-16	3.473098E-18
4.942085E+03	1.252195E-16	3.466007E-18
4.951737E+03	1.249526E-16	3.458404E-18
4.961390E+03	1.246952E-16	3.451074E-18
4.971042E+03	1.244251E-16	3.443404E-18
4.980695E+03	1.241712E-16	3.436190E-18
4.990347E+03	1.239116E-16	3.428830E-18
5.000000E+03	1.236626E-16	3.421770E-18
5.009653E+03	1.234278E-16	3.415114E-18
5.019305E+03	1.231985E-16	3.408617E-18
5.028958E+03	1.230031E-16	3.403069E-18
5.038610E+03	1.228205E-16	3.397882E-18
5.048263E+03	1.226790E-16	3.393840E-18
5.057915E+03	1.225571E-16	3.390350E-18
5.067568E+03	1.224706E-16	3.387844E-18
5.077220E+03	1.224223E-16	3.386405E-18
5.086873E+03	1.224151E-16	3.386109E-18
5.096525E+03	1.224513E-16	3.387021E-18
5.106178E+03	1.225209E-16	3.388862E-18
5.115830E+03	1.226500E-16	3.392357E-18
5.125483E+03	1.228156E-16	3.396868E-18
5.135135E+03	1.230431E-16	3.403098E-18
5.144788E+03	1.233083E-16	3.410377E-18
5.154440E+03	1.236236E-16	3.419049E-18
5.164093E+03	1.239885E-16	3.429098E-18
5.173745E+03	1.243896E-16	3.440152E-18
5.183398E+03	1.248501E-16	3.452859E-18
5.193050E+03	1.253558E-16	3.466820E-18
5.202703E+03	1.258914E-16	3.481613E-18
5.212355E+03	1.264666E-16	3.497505E-18
5.222008E+03	1.270902E-16	3.514744E-18
5.231660E+03	1.277331E-16	3.532524E-18
5.241313E+03	1.284034E-16	3.551066E-18
5.250965E+03	1.290963E-16	3.570237E-18
5.260618E+03	1.297935E-16	3.589534E-18
5.270270E+03	1.305151E-16	3.609512E-18
5.279923E+03	1.312294E-16	3.629292E-18
5.289575E+03	1.319559E-16	3.649417E-18
5.299228E+03	1.326623E-16	3.668991E-18
5.308880E+03	1.333552E-16	3.688197E-18
5.318533E+03	1.340278E-16	3.706845E-18
5.328185E+03	1.346736E-16	3.724759E-18
5.337838E+03	1.352860E-16	3.741757E-18
5.347490E+03	1.358589E-16	3.757666E-18
5.357143E+03	1.363725E-16	3.771940E-18
5.366795E+03	1.368480E-16	3.785164E-18
5.376448E+03	1.372530E-16	3.796446E-18
5.386100E+03	1.376097E-16	3.806395E-18
5.395753E+03	1.378865E-16	3.814139E-18
5.405405E+03	1.380934E-16	3.819954E-18
5.415058E+03	1.382272E-16	3.823751E-18
5.424710E+03	1.382853E-16	3.825461E-18
5.434363E+03	1.382663E-16	3.825040E-18
5.444015E+03	1.381558E-16	3.822089E-18
5.453668E+03	1.379806E-16	3.817357E-18
5.463320E+03	1.377146E-16	3.810114E-18
5.472973E+03	1.373864E-16	3.801152E-18
5.482625E+03	1.369710E-16	3.789782E-18
5.492278E+03	1.364851E-16	3.776464E-18
5.501931E+03	1.359324E-16	3.761300E-18
5.511583E+03	1.353173E-16	3.744412E-18
5.521236E+03	1.346445E-16	3.725929E-18
5.530888E+03	1.339195E-16	3.706002E-18
5.540541E+03	1.331480E-16	3.684792E-18
5.550193E+03	1.323229E-16	3.662099E-18
5.559846E+03	1.314769E-16	3.638827E-18
5.569498E+03	1.305901E-16	3.614430E-18
5.579151E+03	1.296948E-16	3.589798E-18
5.588803E+03	1.287719E-16	3.564401E-18
5.598456E+03	1.278403E-16	3.538763E-18
5.608108E+03	1.269058E-16	3.513048E-18
5.617761E+03	1.259744E-16	3.487415E-18
5.627413E+03	1.250510E-16	3.462008E-18
5.637066E+03	1.241406E-16	3.436958E-18
5.646718E+03	1.232476E-16	3.412392E-18
5.656371E+03	1.223637E-16	3.388077E-18
5.666023E+03	1.215163E-16	3.364771E-18
5.675676E+03	1.206843E-16	3.341891E-18
5.685328E+03	1.198933E-16	3.320150E-18
5.694981E+03	1.191216E-16	3.298941E-18
5.704633E+03	1.183819E-16	3.278616E-18
5.714286E+03	1.176745E-16	3.259188E-18
5.723938E+03	1.169995E-16	3.240656E-18
5.733591E+03	1.163676E-16	3.223319E-18
5.743243E+03	1.157437E-16	3.206203E-18
5.752896E+03	1.151604E-16	3.190213E-18
5.762548E+03	1.146049E-16	3.174989E-18
5.772201E+03	1.140748E-16	3.160474E-18
5.781853E+03	1.135569E-16	3.146293E-18
5.791506E+03	1.130709E-16	3.132997E-18
5.801158E+03	1.126031E-16	3.120207E-18
5.810811E+03	1.121398E-16	3.107539E-18
5.820463E+03	1.116895E-16	3.095234E-18
5.830116E+03	1.112604E-16	3.083515E-18
5.839768E+03	1.108282E-16	3.071710E-18
5.849421E+03	1.104014E-16	3.060055E-18
5.859073E+03	1.099779E-16	3.048492E-18
5.868726E+03	1.095555E-16	3.036959E-18
5.878378E+03	1.091328E-16	3.025416E-18
5.888031E+03	1.087079E-16	3.013814E-18
5.897683E+03	1.082797E-16	3.002121E-18
5.907336E+03	1.078474E-16	2.990311E-18
5.916988E+03	1.073995E-16	2.978070E-18
5.926641E+03	1.069568E-16	2.965974E-18
5.936293E+03	1.065084E-16	2.953720E-18
5.945946E+03	1.060440E-16	2.941019E-18
5.955598E+03	1.055846E-16	2.928459E-18
5.965251E+03	1.051097E-16	2.915469E-18
5.974903E+03	1.046303E-16	2.902351E-18
5.984556E+03	1.041572E-16	2.889408E-18
5.994208E+03	1.036704E-16	2.876086E-18
6.003861E+03	1.031811E-16	2.862692E-18
6.013514E+03	1.026900E-16	2.849247E-18
6.023166E+03	1.021977E-16	2.835769E-18
6.032819E+03	1.017150E-16	2.822559E-18
6.042471E+03	1.012226E-16	2.809075E-18
6.052124E+03	1.007212E-16	2.795342E-18
6.061776E+03	1.002311E-16	2.781923E-18
6.071429E+03	9.974277E-17	2.768552E-18
6.081081E+03	9.925649E-17	2.755236E-18
6.090734E+03	9.877240E-17	2.741980E-18
6.100386E+03	9.828083E-17	2.728515E-18
6.110039E+03	9.780112E-17	2.715379E-18
6.119691E+03	9.732331E-17	2.702293E-18
6.129344E+03	9.683751E-17	2.688985E-18
6.138996E+03	9.636241E-17	2.675973E-18
6.148649E+03	9.587839E-17	2.662710E-18
6.158301E+03	9.540372E-17	2.649707E-18
6.167954E+03	9.491873E-17	2.636415E-18
6.177606E+03	9.443198E-17	2.623072E-18
6.187259E+03	9.395178E-17	2.609910E-18
6.196911E+03	9.345839E-17	2.596379E-18
6.206564E+03	9.295994E-17	2.582706E-18
6.216216E+03	9.245515E-17	2.568854E-18
6.225869E+03	9.194255E-17	2.554784E-18
6.235521E+03	9.142051E-17	2.540449E-18
6.245174E+03	9.089631E-17	2.526051E-18
6.254826E+03	9.035009E-17	2.511039E-18
6.264479E+03	8.978900E-17	2.495612E-18
6.274131E+03	8.920223E-17	2.479468E-18
6.283784E+03	8.860552E-17	2.463046E-18
6.293436E+03	8.798790E-17	2.446039E-18
6.303089E+03	8.734727E-17	2.428389E-18
6.312741E+03	8.668153E-17	2.410038E-18
6.322394E+03	8.598860E-17	2.390929E-18
6.332046E+03	8.525796E-17	2.370767E-18
6.341699E+03	8.450465E-17	2.349972E-18
6.351351E+03	8.371827E-17	2.328253E-18
6.361004E+03	8.288889E-17	2.305335E-18
6.370656E+03	8.203153E-17	2.281634E-18
6.380309E+03	8.112854E-17	2.256661E-18
6.389961E+03	8.019510E-17	2.230836E-18
6.399614E+03	7.921449E-17	2.203695E-18
6.409266E+03	7.820222E-17	2.175668E-18
6.418919E+03	7.714267E-17	2.146322E-18
6.428571E+03	7.604418E-17	2.115888E-18
6.438224E+03	7.491512E-17	2.084598E-18
6.447876E+03	7.374181E-17	2.052071E-18
6.457529E+03	7.253360E-17	2.018569E-18
6.467181E+03	7.129992E-17	1.984353E-18
6.476834E+03	7.002907E-17	1.949096E-18
6.486486E+03	6.873143E-17	1.913090E-18
6.496139E+03	6.741049E-17	1.876429E-18
6.505792E+03	6.607011E-17	1.839222E-18
6.515444E+03	6.471443E-17	1.801583E-18
6.525097E+03	6.335413E-17	1.763811E-18
6.534749E+03	6.198100E-17	1.725676E-18
6.544402E+03	6.060615E-17	1.687488E-18
6.554054E+03	5.923434E-17	1.649379E-18
6.563707E+03	5.786445E-17	1.611319E-18
6.573359E+03	5.651287E-17	1.573764E-18
6.583012E+03	5.517821E-17	1.536674E-18
6.592664E+03	5.386480E-17	1.500172E-18
6.602317E+03	5.257678E-17	1.464372E-18
6.611969E+03	5.131802E-17	1.429383E-18
6.621622E+03	5.008708E-17	1.395163E-18
6.631274E+03	4.889740E-17	1.362090E-18
6.640927E+03	4.774682E-17	1.330101E-18
6.650579E+03	4.663795E-17	1.299270E-18
6.660232E+03	4.556850E-17	1.269533E-18
6.669884E+03	4.454972E-17	1.241205E-18
6.679537E+03	4.357420E-17	1.214078E-18
6.689189E+03	4.265217E-17	1.188439E-18
6.698842E+03	4.178022E-17	1.164192E-18
6.708494E+03	4.095505E-17	1.141245E-18
6.718147E+03	4.018154E-17	1.119736E-18
6.727799E+03	3.946403E-17	1.099784E-18
6.737452E+03	3.879469E-17	1.081172E-18
6.747104E+03	3.818142E-17	1.064121E-18
6.756757E+03	3.761635E-17	1.048411E-18
6.766409E+03	3.710317E-17	1.034145E-18
6.776062E+03	3.664525E-17	1.021417E-18
6.785714E+03	3.623476E-17	1.010010E-18
6.795367E+03	3.587497E-17	1.000015E-18
6.805019E+03	3.556542E-17	9.914180E-19
6.814672E+03	3.530557E-17	9.842056E-19
6.824324E+03	3.509846E-17	9.784620E-19
6.833977E+03	3.493641E-17	9.739736E-19
6.843629E+03	3.482247E-17	9.708252E-19
6.853282E+03	3.475612E-17	9.690025E-19
6.862934E+03	3.473683E-17	9.684911E-19
6.872587E+03	3.476410E-17	9.692767E-19
6.882239E+03	3.483743E-17	9.713461E-19
6.891892E+03	3.495635E-17	9.746857E-19
6.901544E+03	3.511678E-17	9.791823E-19
6.911197E+03	3.532538E-17	9.850215E-19
6.920849E+03	3.557812E-17	9.920905E-19
6.930502E+03	3.587446E-17	1.000375E-18
6.940154E+03	3.621021E-17	1.009758E-18
6.949807E+03	3.659214E-17	1.020428E-18
6.959459E+03	3.701598E-17	1.032267E-18
6.969112E+03	3.747724E-17	1.045149E-18
6.978764E+03	3.798279E-17	1.059265E-18
6.988417E+03	3.852801E-17	1.074487E-18
6.998069E+03	3.910801E-17	1.090679E-18
7.007722E+03	3.972969E-17	1.108033E-18
7.017375E+03	4.038381E-17	1.126291E-18
7.027027E+03	4.107312E-17	1.145530E-18
7.036680E+03	4.180044E-17	1.165829E-18
7.046332E+03	4.255572E-17	1.186907E-18
7.055985E+03	4.334141E-17	1.208833E-18
7.065637E+03	4.416013E-17	1.231679E-18
7.075290E+03	4.500084E-17	1.255138E-18
7.084942E+03	4.586571E-17	1.279271E-18
7.094595E+03	4.675232E-17	1.304009E-18
7.104247E+03	4.765810E-17	1.329281E-18
7.113900E+03	4.858027E-17	1.355010E-18
7.123552E+03	4.951591E-17	1.381113E-18
7.133205E+03	5.046199E-17	1.407507E-18
7.142857E+03	5.141531E-17	1.434102E-18
7.152510E+03	5.237259E-17	1.460807E-18
7.162162E+03	5.333044E-17	1.487527E-18
7.171815E+03	5.428543E-17	1.514165E-18
7.181467E+03	5.522833E-17	1.540466E-18
7.191120E+03	5.616695E-17	1.566646E-18
7.200772E+03	5.709221E-17	1.592452E-18
7.210425E+03	5.799459E-17	1.617620E-18
7.220077E+03	5.888265E-17	1.642386E-18
7.229730E+03	5.974095E-17	1.666322E-18
7.239382E+03	6.057860E-17	1.689680E-18
7.249035E+03	6.138006E-17	1.712027E-18
7.258687E+03	6.215514E-17	1.733638E-18
7.268340E+03	6.288830E-17	1.754078E-18
7.277992E+03	6.358344E-17	1.773457E-18
7.287645E+03	6.424503E-17	1.791898E-18
7.297297E+03	6.485767E-17	1.808973E-18
7.306950E+03	6.542626E-17	1.824818E-18
7.316602E+03	6.594923E-17	1.839390E-18
7.326255E+03	6.642534E-17	1.852654E-18
7.335907E+03	6.685359E-17	1.864581E-18
7.345560E+03	6.723320E-17	1.875151E-18
7.355212E+03	6.756370E-17	1.884351E-18
7.364865E+03	6.784484E-17	1.892173E-18
7.374517E+03	6.807662E-17	1.898617E-18
7.384170E+03	6.825205E-17	1.903488E-18
7.393822E+03	6.838591E-17	1.907200E-18
7.403475E+03	6.847167E-17	1.909570E-18
7.413127E+03	6.850290E-17	1.910418E-18
7.422780E+03	6.849498E-17	1.910173E-18
7.432432E+03	6.843457E-17	1.908465E-18
7.442085E+03	6.833733E-17	1.905728E-18
7.451737E+03	6.819013E-17	1.901599E-18
7.461390E+03	6.800160E-17	1.896316E-18
7.471042E+03	6.778033E-17	1.890120E-18
7.480695E+03	6.751347E-17	1.882652E-18
7.490347E+03	6.720969E-17	1.874155E-18
