#wls	flux	fluxerr
1.565435E+03	2.047335E-03	2.458332E-05
1.604571E+03	2.097574E-03	2.518408E-05
1.643707E+03	2.151475E-03	2.582862E-05
1.682843E+03	2.209111E-03	2.651780E-05
1.721979E+03	2.270740E-03	2.725469E-05
1.761115E+03	2.336804E-03	2.804456E-05
1.800250E+03	2.406940E-03	2.888306E-05
1.839386E+03	2.481756E-03	2.977743E-05
1.878522E+03	2.561253E-03	3.072767E-05
1.917658E+03	2.645425E-03	3.173366E-05
1.956794E+03	2.734062E-03	3.279287E-05
1.995930E+03	2.827138E-03	3.390495E-05
2.035066E+03	2.924244E-03	3.506497E-05
2.074202E+03	3.024609E-03	3.626363E-05
2.113338E+03	3.128019E-03	3.749836E-05
2.152473E+03	3.233538E-03	3.875790E-05
2.191609E+03	3.340431E-03	4.003343E-05
2.230745E+03	3.448337E-03	4.132058E-05
2.269881E+03	3.557244E-03	4.261920E-05
2.309017E+03	3.667652E-03	4.393526E-05
2.348153E+03	3.780199E-03	4.527637E-05
2.387289E+03	3.895483E-03	4.664966E-05
2.426425E+03	4.014562E-03	4.806777E-05
2.465560E+03	4.137934E-03	4.953663E-05
2.504696E+03	4.266383E-03	5.106556E-05
2.543832E+03	4.400147E-03	5.265736E-05
2.582968E+03	4.539589E-03	5.431633E-05
2.622104E+03	4.684713E-03	5.604244E-05
2.661240E+03	4.835493E-03	5.783535E-05
2.700376E+03	4.991877E-03	5.969436E-05
2.739512E+03	5.153634E-03	6.161662E-05
2.778647E+03	5.320514E-03	6.359911E-05
2.817783E+03	5.492538E-03	6.564201E-05
2.856919E+03	5.669413E-03	6.774174E-05
2.896055E+03	5.851540E-03	6.990303E-05
2.935191E+03	6.038835E-03	7.212481E-05
2.944975E+03	6.086658E-03	7.269199E-05
2.954759E+03	6.134736E-03	7.326213E-05
2.964543E+03	6.183053E-03	7.383506E-05
2.974327E+03	6.231876E-03	7.441392E-05
2.984111E+03	6.281062E-03	7.499705E-05
2.993895E+03	6.330588E-03	7.558413E-05
3.003679E+03	6.380586E-03	7.617678E-05
3.013463E+03	6.430908E-03	7.677319E-05
3.023247E+03	6.481536E-03	7.737318E-05
3.033031E+03	6.532732E-03	7.797985E-05
3.042815E+03	6.584214E-03	7.858985E-05
3.052599E+03	6.636102E-03	7.920460E-05
3.062383E+03	6.688251E-03	7.982237E-05
3.072167E+03	6.741050E-03	8.044780E-05
3.081951E+03	6.794078E-03	8.107587E-05
3.091735E+03	6.847465E-03	8.170813E-05
3.101518E+03	6.901326E-03	8.234595E-05
3.111302E+03	6.955640E-03	8.298907E-05
3.121086E+03	7.010142E-03	8.363432E-05
3.130870E+03	7.065205E-03	8.428618E-05
3.140654E+03	7.120561E-03	8.494142E-05
3.150438E+03	7.176312E-03	8.560128E-05
3.160222E+03	7.232329E-03	8.626420E-05
3.170006E+03	7.288726E-03	8.693155E-05
3.179790E+03	7.345482E-03	8.760308E-05
3.189574E+03	7.402582E-03	8.827860E-05
3.199358E+03	7.459896E-03	8.895656E-05
3.209142E+03	7.517533E-03	8.963826E-05
3.218926E+03	7.575477E-03	9.032352E-05
3.228710E+03	7.633594E-03	9.101072E-05
3.238494E+03	7.691992E-03	9.170116E-05
3.248278E+03	7.750531E-03	9.239317E-05
3.258062E+03	7.809336E-03	9.308823E-05
3.267846E+03	7.868257E-03	9.378456E-05
3.277630E+03	7.927292E-03	9.448214E-05
3.287414E+03	7.986422E-03	9.518072E-05
3.297198E+03	8.045641E-03	9.588026E-05
3.306982E+03	8.104939E-03	9.658061E-05
3.316766E+03	8.164181E-03	9.728017E-05
3.326550E+03	8.223486E-03	9.798037E-05
3.336334E+03	8.282594E-03	9.867810E-05
3.346118E+03	8.341739E-03	9.937616E-05
3.355902E+03	8.400678E-03	1.000716E-04
3.365686E+03	8.459404E-03	1.007645E-04
3.375470E+03	8.517913E-03	1.014546E-04
3.385254E+03	8.576075E-03	1.021404E-04
3.395038E+03	8.634004E-03	1.028234E-04
3.404822E+03	8.691580E-03	1.035020E-04
3.414606E+03	8.748684E-03	1.041749E-04
3.424389E+03	8.805311E-03	1.048420E-04
3.434173E+03	8.861351E-03	1.055020E-04
3.443957E+03	8.916909E-03	1.061561E-04
3.453741E+03	8.971657E-03	1.068005E-04
3.463525E+03	9.025699E-03	1.074363E-04
3.473309E+03	9.078931E-03	1.080624E-04
3.483093E+03	9.131354E-03	1.086787E-04
3.492877E+03	9.182753E-03	1.092827E-04
3.502661E+03	9.233025E-03	1.098732E-04
3.512445E+03	9.282290E-03	1.104516E-04
3.522229E+03	9.330225E-03	1.110141E-04
3.532013E+03	9.376960E-03	1.115622E-04
3.541797E+03	9.422386E-03	1.120945E-04
3.551581E+03	9.466305E-03	1.126089E-04
3.561365E+03	9.508635E-03	1.131043E-04
3.571149E+03	9.549391E-03	1.135808E-04
3.580933E+03	9.588375E-03	1.140361E-04
3.590717E+03	9.625712E-03	1.144718E-04
3.600501E+03	9.661116E-03	1.148844E-04
3.610285E+03	9.694603E-03	1.152741E-04
3.620069E+03	9.726105E-03	1.156401E-04
3.629853E+03	9.755637E-03	1.159826E-04
3.639637E+03	9.783023E-03	1.162995E-04
3.649421E+03	9.808294E-03	1.165912E-04
3.659205E+03	9.831378E-03	1.168568E-04
3.668989E+03	9.852304E-03	1.170967E-04
3.678773E+03	9.871007E-03	1.173101E-04
3.688557E+03	9.887506E-03	1.174972E-04
3.698341E+03	9.901749E-03	1.176575E-04
3.708125E+03	9.913658E-03	1.177900E-04
3.717909E+03	9.923468E-03	1.178975E-04
3.727693E+03	9.930913E-03	1.179769E-04
3.737477E+03	9.936139E-03	1.180299E-04
3.747260E+03	9.939254E-03	1.180577E-04
3.757044E+03	9.940119E-03	1.180588E-04
3.766828E+03	9.938759E-03	1.180335E-04
3.776612E+03	9.935299E-03	1.179831E-04
3.786396E+03	9.929781E-03	1.179084E-04
3.796180E+03	9.922230E-03	1.178094E-04
3.805964E+03	9.912589E-03	1.176857E-04
3.815748E+03	9.900983E-03	1.175386E-04
3.825532E+03	9.887444E-03	1.173685E-04
3.835316E+03	9.872001E-03	1.171758E-04
3.845100E+03	9.854687E-03	1.169610E-04
3.854884E+03	9.835533E-03	1.167243E-04
3.864668E+03	9.814658E-03	1.164672E-04
3.874452E+03	9.792093E-03	1.161900E-04
3.884236E+03	9.767776E-03	1.158921E-04
3.894020E+03	9.741920E-03	1.155760E-04
3.903804E+03	9.714452E-03	1.152407E-04
3.913588E+03	9.685492E-03	1.148878E-04
3.923372E+03	9.655070E-03	1.145176E-04
3.933156E+03	9.623125E-03	1.141293E-04
3.942940E+03	9.589854E-03	1.137254E-04
3.952724E+03	9.555195E-03	1.133050E-04
3.962508E+03	9.519256E-03	1.128695E-04
3.972292E+03	9.482064E-03	1.124192E-04
3.982076E+03	9.443639E-03	1.119543E-04
3.991860E+03	9.404007E-03	1.114752E-04
4.001644E+03	9.363268E-03	1.109830E-04
4.011428E+03	9.321369E-03	1.104771E-04
4.021212E+03	9.278325E-03	1.099577E-04
4.030996E+03	9.234325E-03	1.094271E-04
4.040780E+03	9.189226E-03	1.088835E-04
4.050564E+03	9.143124E-03	1.083281E-04
4.060348E+03	9.096049E-03	1.077612E-04
4.070131E+03	9.048011E-03	1.071830E-04
4.079915E+03	8.999032E-03	1.065937E-04
4.089699E+03	8.949137E-03	1.059936E-04
4.099483E+03	8.898337E-03	1.053830E-04
4.109267E+03	8.846657E-03	1.047619E-04
4.119051E+03	8.794108E-03	1.041307E-04
4.128835E+03	8.740716E-03	1.034896E-04
4.138619E+03	8.686424E-03	1.028379E-04
4.148403E+03	8.631248E-03	1.021759E-04
4.158187E+03	8.575280E-03	1.015045E-04
4.167971E+03	8.518542E-03	1.008242E-04
4.177755E+03	8.460904E-03	1.001333E-04
4.187539E+03	8.402459E-03	9.943297E-05
4.197323E+03	8.343222E-03	9.872338E-05
4.207107E+03	8.283221E-03	9.800484E-05
4.216891E+03	8.222470E-03	9.727754E-05
4.226675E+03	8.160912E-03	9.654081E-05
4.236459E+03	8.098719E-03	9.579668E-05
4.246243E+03	8.035760E-03	9.504362E-05
4.256027E+03	7.972203E-03	9.428359E-05
4.265811E+03	7.908057E-03	9.351672E-05
4.275595E+03	7.843421E-03	9.274419E-05
4.285379E+03	7.778301E-03	9.196605E-05
4.295163E+03	7.712795E-03	9.118348E-05
4.304947E+03	7.646909E-03	9.039654E-05
4.314731E+03	7.580803E-03	8.960713E-05
4.324515E+03	7.514488E-03	8.881539E-05
4.334299E+03	7.447980E-03	8.802148E-05
4.344083E+03	7.381430E-03	8.722721E-05
4.353867E+03	7.314847E-03	8.643269E-05
4.363651E+03	7.248315E-03	8.563891E-05
4.373435E+03	7.181980E-03	8.484759E-05
4.383219E+03	7.115779E-03	8.405798E-05
4.393003E+03	7.049864E-03	8.327188E-05
4.402786E+03	6.984311E-03	8.249020E-05
4.412570E+03	6.919122E-03	8.171294E-05
4.422354E+03	6.854384E-03	8.094114E-05
4.432138E+03	6.790165E-03	8.017561E-05
4.441922E+03	6.726538E-03	7.941720E-05
4.451706E+03	6.663581E-03	7.866684E-05
4.461490E+03	6.601305E-03	7.792463E-05
4.471274E+03	6.539719E-03	7.719071E-05
4.481058E+03	6.479023E-03	7.646741E-05
4.490842E+03	6.419167E-03	7.575416E-05
4.500626E+03	6.360159E-03	7.505104E-05
4.510410E+03	6.302143E-03	7.435975E-05
4.520194E+03	6.245182E-03	7.368103E-05
4.529978E+03	6.189183E-03	7.301377E-05
4.539762E+03	6.134395E-03	7.236092E-05
4.549546E+03	6.080657E-03	7.172057E-05
4.559330E+03	6.028166E-03	7.109505E-05
4.569114E+03	5.976944E-03	7.048460E-05
4.578898E+03	5.927000E-03	6.988934E-05
4.588682E+03	5.878372E-03	6.930970E-05
4.598466E+03	5.831075E-03	6.874585E-05
4.608250E+03	5.785249E-03	6.819945E-05
4.618034E+03	5.740869E-03	6.767019E-05
4.627818E+03	5.697960E-03	6.715837E-05
4.637602E+03	5.656611E-03	6.666503E-05
4.647386E+03	5.616739E-03	6.618919E-05
4.657170E+03	5.578552E-03	6.573329E-05
4.666954E+03	5.541904E-03	6.529560E-05
4.676738E+03	5.506946E-03	6.487791E-05
4.686522E+03	5.473704E-03	6.448052E-05
4.696306E+03	5.442085E-03	6.410231E-05
4.706090E+03	5.412167E-03	6.374420E-05
4.715874E+03	5.383980E-03	6.340656E-05
4.725657E+03	5.357354E-03	6.308735E-05
4.735441E+03	5.332283E-03	6.278652E-05
4.745225E+03	5.308699E-03	6.250326E-05
4.755009E+03	5.286489E-03	6.223621E-05
4.764793E+03	5.265573E-03	6.198447E-05
4.774577E+03	5.245958E-03	6.174807E-05
4.784361E+03	5.227514E-03	6.152550E-05
4.794145E+03	5.210250E-03	6.131686E-05
4.803929E+03	5.193995E-03	6.112015E-05
4.813713E+03	5.178758E-03	6.093545E-05
4.823497E+03	5.164492E-03	6.076220E-05
4.833281E+03	5.151098E-03	6.059926E-05
4.843065E+03	5.138591E-03	6.044677E-05
4.852849E+03	5.126878E-03	6.030367E-05
4.862633E+03	5.115980E-03	6.017018E-05
4.872417E+03	5.105812E-03	6.004530E-05
4.882201E+03	5.096345E-03	5.992868E-05
4.891985E+03	5.087499E-03	5.981940E-05
4.901769E+03	5.079356E-03	5.971841E-05
4.911553E+03	5.071788E-03	5.962420E-05
4.921337E+03	5.064776E-03	5.953655E-05
4.931121E+03	5.058353E-03	5.945584E-05
4.940905E+03	5.052452E-03	5.938128E-05
4.950689E+03	5.047056E-03	5.931269E-05
4.960473E+03	5.042153E-03	5.924990E-05
4.970257E+03	5.037732E-03	5.919279E-05
4.980041E+03	5.033729E-03	5.914062E-05
4.989825E+03	5.030136E-03	5.909327E-05
4.999609E+03	5.026996E-03	5.905126E-05
5.009393E+03	5.024199E-03	5.901330E-05
5.019177E+03	5.021842E-03	5.898052E-05
5.028961E+03	5.019765E-03	5.895104E-05
5.038745E+03	5.018068E-03	5.892603E-05
5.048528E+03	5.016695E-03	5.890484E-05
5.058312E+03	5.015643E-03	5.888743E-05
5.068096E+03	5.014910E-03	5.887379E-05
5.077880E+03	5.014445E-03	5.886329E-05
5.087664E+03	5.014245E-03	5.885592E-05
5.097448E+03	5.014260E-03	5.885108E-05
5.107232E+03	5.014591E-03	5.884997E-05
5.117016E+03	5.015086E-03	5.885079E-05
5.126800E+03	5.015798E-03	5.885416E-05
5.136584E+03	5.016726E-03	5.886009E-05
5.146368E+03	5.017874E-03	5.886860E-05
5.156152E+03	5.019141E-03	5.887851E-05
5.165936E+03	5.020580E-03	5.889045E-05
5.175720E+03	5.022142E-03	5.890386E-05
5.185504E+03	5.023831E-03	5.891875E-05
5.195288E+03	5.025598E-03	5.893457E-05
5.205072E+03	5.027497E-03	5.895196E-05
5.214856E+03	5.029429E-03	5.896974E-05
5.224640E+03	5.031398E-03	5.898797E-05
5.234424E+03	5.033357E-03	5.900608E-05
5.244208E+03	5.035358E-03	5.902470E-05
5.253992E+03	5.037254E-03	5.904211E-05
5.263776E+03	5.039098E-03	5.905892E-05
5.273560E+03	5.040844E-03	5.907459E-05
5.283344E+03	5.042444E-03	5.908857E-05
5.293128E+03	5.043750E-03	5.909911E-05
5.302912E+03	5.044713E-03	5.910566E-05
5.312696E+03	5.045287E-03	5.910766E-05
5.322480E+03	5.045223E-03	5.910220E-05
5.332264E+03	5.044471E-03	5.908871E-05
5.342048E+03	5.042832E-03	5.906485E-05
5.351832E+03	5.040208E-03	5.902948E-05
5.361616E+03	5.036753E-03	5.898440E-05
5.371399E+03	5.032419E-03	5.892906E-05
5.381183E+03	5.027359E-03	5.886524E-05
5.390967E+03	5.021626E-03	5.879357E-05
5.400751E+03	5.015423E-03	5.871644E-05
5.410535E+03	5.008701E-03	5.863326E-05
5.420319E+03	5.001562E-03	5.854524E-05
5.430103E+03	4.994007E-03	5.845238E-05
5.439887E+03	4.986187E-03	5.835647E-05
5.449671E+03	4.978053E-03	5.825691E-05
5.459455E+03	4.969655E-03	5.815431E-05
5.469239E+03	4.960993E-03	5.804866E-05
5.479023E+03	4.952169E-03	5.794115E-05
5.488807E+03	4.943131E-03	5.783118E-05
5.498591E+03	4.933929E-03	5.771934E-05
5.508375E+03	4.924612E-03	5.760620E-05
5.518159E+03	4.915182E-03	5.749177E-05
5.527943E+03	4.905686E-03	5.737663E-05
5.537727E+03	4.896073E-03	5.726015E-05
5.547511E+03	4.886392E-03	5.714293E-05
5.557295E+03	4.876693E-03	5.702555E-05
5.567079E+03	4.866975E-03	5.690799E-05
5.576863E+03	4.857235E-03	5.679022E-05
5.586647E+03	4.847472E-03	5.667221E-05
5.596431E+03	4.837786E-03	5.655517E-05
5.606215E+03	4.828072E-03	5.643785E-05
5.615999E+03	4.818432E-03	5.632144E-05
5.625783E+03	4.808863E-03	5.620591E-05
5.635567E+03	4.799311E-03	5.609063E-05
5.645351E+03	4.789825E-03	5.597617E-05
5.655135E+03	4.780455E-03	5.586312E-05
5.664919E+03	4.771146E-03	5.575082E-05
5.674703E+03	4.761896E-03	5.563927E-05
5.684487E+03	4.752806E-03	5.552964E-05
5.694271E+03	4.743769E-03	5.542068E-05
5.704054E+03	4.734835E-03	5.531297E-05
5.713838E+03	4.726000E-03	5.520648E-05
5.723622E+03	4.717262E-03	5.510117E-05
5.733406E+03	4.708670E-03	5.499762E-05
5.743190E+03	4.700118E-03	5.489459E-05
5.752974E+03	4.691705E-03	5.479324E-05
5.762758E+03	4.683378E-03	5.469294E-05
5.772542E+03	4.675132E-03	5.459364E-05
5.782326E+03	4.666966E-03	5.449533E-05
5.792110E+03	4.658875E-03	5.439795E-05
5.801894E+03	4.650909E-03	5.430209E-05
5.811678E+03	4.642960E-03	5.420648E-05
5.821462E+03	4.635024E-03	5.411108E-05
5.831246E+03	4.627150E-03	5.401647E-05
5.841030E+03	4.619336E-03	5.392260E-05
5.850814E+03	4.611472E-03	5.382821E-05
5.860598E+03	4.603661E-03	5.373450E-05
5.870382E+03	4.595739E-03	5.363956E-05
5.880166E+03	4.587864E-03	5.354522E-05
5.889950E+03	4.579870E-03	5.344955E-05
5.899734E+03	4.571756E-03	5.335254E-05
5.909518E+03	4.563571E-03	5.325477E-05
5.919302E+03	4.555258E-03	5.315556E-05
5.929086E+03	4.546814E-03	5.305488E-05
5.938870E+03	4.538126E-03	5.295142E-05
5.948654E+03	4.529301E-03	5.284643E-05
5.958438E+03	4.520172E-03	5.273796E-05
5.968222E+03	4.510846E-03	5.262724E-05
5.978006E+03	4.501264E-03	5.251361E-05
5.987790E+03	4.491370E-03	5.239641E-05
5.997574E+03	4.481163E-03	5.227561E-05
6.007358E+03	4.470693E-03	5.215184E-05
6.017142E+03	4.459908E-03	5.202443E-05
6.026925E+03	4.448804E-03	5.189339E-05
6.036709E+03	4.437495E-03	5.176002E-05
6.046493E+03	4.425869E-03	5.162302E-05
6.056277E+03	4.413985E-03	5.148308E-05
6.066061E+03	4.401901E-03	5.134090E-05
6.075845E+03	4.389680E-03	5.119716E-05
6.085629E+03	4.377269E-03	5.105130E-05
6.095413E+03	4.364677E-03	5.090339E-05
6.105197E+03	4.351969E-03	5.075420E-05
6.114981E+03	4.339098E-03	5.060318E-05
6.124765E+03	4.326133E-03	5.045115E-05
6.134549E+03	4.313089E-03	5.029826E-05
6.144333E+03	4.300039E-03	5.014539E-05
6.154117E+03	4.287004E-03	4.999275E-05
6.163901E+03	4.274006E-03	4.984062E-05
6.173685E+03	4.261128E-03	4.968996E-05
6.183469E+03	4.248457E-03	4.954180E-05
6.193253E+03	4.235970E-03	4.939585E-05
6.203037E+03	4.223762E-03	4.925324E-05
6.212821E+03	4.211935E-03	4.911514E-05
6.222605E+03	4.200480E-03	4.898146E-05
6.232389E+03	4.189571E-03	4.885422E-05
6.242173E+03	4.179272E-03	4.873416E-05
6.251957E+03	4.169656E-03	4.862214E-05
6.261741E+03	4.160803E-03	4.851910E-05
6.271525E+03	4.152926E-03	4.842752E-05
6.281309E+03	4.146070E-03	4.834792E-05
6.291093E+03	4.140472E-03	4.828306E-05
6.300877E+03	4.136244E-03	4.823427E-05
6.310661E+03	4.133411E-03	4.820182E-05
6.320445E+03	4.131935E-03	4.818528E-05
6.330229E+03	4.131691E-03	4.818318E-05
6.340013E+03	4.132629E-03	4.819494E-05
6.349796E+03	4.134521E-03	4.821792E-05
6.359580E+03	4.137404E-03	4.825253E-05
6.369364E+03	4.141200E-03	4.829787E-05
6.379148E+03	4.145776E-03	4.835237E-05
6.388932E+03	4.151134E-03	4.841608E-05
6.398716E+03	4.157223E-03	4.848840E-05
6.408500E+03	4.163996E-03	4.856877E-05
6.418284E+03	4.171413E-03	4.865672E-05
6.428068E+03	4.179506E-03	4.875264E-05
6.437852E+03	4.188177E-03	4.885539E-05
6.447636E+03	4.197401E-03	4.896465E-05
6.457420E+03	4.207221E-03	4.908095E-05
6.467204E+03	4.217621E-03	4.920409E-05
6.476988E+03	4.228515E-03	4.933308E-05
6.486772E+03	4.239959E-03	4.946855E-05
6.496556E+03	4.251871E-03	4.960957E-05
6.506340E+03	4.264387E-03	4.975771E-05
6.516124E+03	4.277355E-03	4.991121E-05
6.525908E+03	4.290771E-03	5.007001E-05
6.535692E+03	4.304703E-03	5.023492E-05
6.545476E+03	4.319151E-03	5.040591E-05
6.555260E+03	4.334039E-03	5.058214E-05
6.565044E+03	4.349367E-03	5.076357E-05
6.574828E+03	4.365213E-03	5.095112E-05
6.584612E+03	4.381502E-03	5.114393E-05
6.594396E+03	4.398316E-03	5.134295E-05
6.604180E+03	4.415503E-03	5.154640E-05
6.613964E+03	4.433224E-03	5.175617E-05
6.623748E+03	4.451326E-03	5.197047E-05
6.633532E+03	4.469975E-03	5.219124E-05
6.643316E+03	4.489016E-03	5.241667E-05
6.653100E+03	4.508538E-03	5.264778E-05
6.662884E+03	4.528547E-03	5.288468E-05
6.672668E+03	4.548968E-03	5.312648E-05
6.682451E+03	4.569893E-03	5.337424E-05
6.692235E+03	4.591245E-03	5.362708E-05
6.702019E+03	4.613118E-03	5.388609E-05
6.711803E+03	4.635350E-03	5.414938E-05
6.721587E+03	4.658120E-03	5.441904E-05
6.731371E+03	4.681352E-03	5.469419E-05
6.741155E+03	4.705055E-03	5.497492E-05
6.750939E+03	4.729148E-03	5.526031E-05
6.760723E+03	4.753820E-03	5.555255E-05
6.770507E+03	4.778809E-03	5.584859E-05
6.780291E+03	4.804398E-03	5.615172E-05
6.790075E+03	4.830412E-03	5.645992E-05
6.799859E+03	4.856861E-03	5.677329E-05
6.809643E+03	4.883847E-03	5.709304E-05
6.819427E+03	4.911287E-03	5.741818E-05
6.829211E+03	4.939190E-03	5.774883E-05
6.838995E+03	4.967563E-03	5.808508E-05
6.848779E+03	4.996418E-03	5.842705E-05
6.858563E+03	5.025763E-03	5.877486E-05
6.868347E+03	5.055510E-03	5.912746E-05
6.878131E+03	5.085864E-03	5.948727E-05
6.887915E+03	5.116537E-03	5.985090E-05
6.897699E+03	5.147839E-03	6.022198E-05
6.907483E+03	5.179474E-03	6.059707E-05
6.917267E+03	5.211654E-03	6.097864E-05
6.927051E+03	5.244288E-03	6.136562E-05
6.936835E+03	5.277380E-03	6.175807E-05
6.946619E+03	5.311049E-03	6.215737E-05
6.956403E+03	5.345083E-03	6.256104E-05
6.966187E+03	5.379610E-03	6.297060E-05
6.975971E+03	5.414517E-03	6.338470E-05
6.985755E+03	5.449923E-03	6.380477E-05
6.995539E+03	5.485839E-03	6.423090E-05
7.005322E+03	5.522160E-03	6.466190E-05
7.015106E+03	5.559007E-03	6.509915E-05
7.024890E+03	5.596160E-03	6.554011E-05
7.034674E+03	5.633854E-03	6.598751E-05
7.044458E+03	5.671975E-03	6.644002E-05
7.054242E+03	5.710423E-03	6.689648E-05
7.064026E+03	5.749307E-03	6.735817E-05
7.073810E+03	5.788644E-03	6.782527E-05
7.083594E+03	5.828319E-03	6.829644E-05
7.093378E+03	5.868326E-03	6.877163E-05
7.103162E+03	5.908682E-03	6.925102E-05
7.112946E+03	5.949380E-03	6.973454E-05
7.122730E+03	5.990427E-03	7.022226E-05
7.132514E+03	6.031577E-03	7.071131E-05
7.142298E+03	6.073080E-03	7.120462E-05
7.152082E+03	6.114812E-03	7.170073E-05
7.161866E+03	6.156642E-03	7.219810E-05
7.171650E+03	6.198695E-03	7.269822E-05
7.181434E+03	6.240716E-03	7.319807E-05
7.191218E+03	6.282690E-03	7.369749E-05
7.201002E+03	6.324621E-03	7.419653E-05
7.210786E+03	6.366359E-03	7.469342E-05
7.220570E+03	6.408033E-03	7.518968E-05
7.230354E+03	6.449228E-03	7.568043E-05
7.240138E+03	6.490198E-03	7.616865E-05
7.249922E+03	6.530658E-03	7.665100E-05
7.259706E+03	6.570726E-03	7.712886E-05
7.269490E+03	6.610246E-03	7.760041E-05
7.279274E+03	6.649204E-03	7.806546E-05
7.289058E+03	6.687718E-03	7.852541E-05
7.298842E+03	6.725633E-03	7.897842E-05
7.308626E+03	6.763365E-03	7.942940E-05
7.318410E+03	6.800612E-03	7.987478E-05
7.328193E+03	6.837651E-03	8.031781E-05
7.337977E+03	6.874324E-03	8.075665E-05
7.347761E+03	6.911069E-03	8.119644E-05
7.357545E+03	6.947730E-03	8.163534E-05
7.367329E+03	6.984307E-03	8.207335E-05
7.377113E+03	7.020947E-03	8.251219E-05
7.386897E+03	7.057642E-03	8.295179E-05
7.396681E+03	7.094707E-03	8.339582E-05
7.406465E+03	7.131828E-03	8.384062E-05
7.416249E+03	7.169167E-03	8.428807E-05
7.426033E+03	7.206881E-03	8.474002E-05
7.435817E+03	7.244817E-03	8.519470E-05
7.445601E+03	7.283138E-03	8.565399E-05
7.455385E+03	7.321682E-03	8.611600E-05
7.465169E+03	7.360788E-03	8.658472E-05
7.474953E+03	7.400133E-03	8.705635E-05
7.484737E+03	7.440049E-03	8.753480E-05
7.494521E+03	7.480204E-03	8.801616E-05
7.504305E+03	7.520952E-03	8.850459E-05
7.514089E+03	7.561949E-03	8.899606E-05
7.523873E+03	7.603549E-03	8.949473E-05
7.533657E+03	7.645591E-03	8.999869E-05
7.543441E+03	7.688075E-03	9.050796E-05
7.553225E+03	7.731005E-03	9.102259E-05
7.563009E+03	7.774398E-03	9.154278E-05
7.572793E+03	7.818249E-03	9.206844E-05
7.582577E+03	7.862390E-03	9.259764E-05
7.592361E+03	7.907191E-03	9.313472E-05
