#wls	flux	fluxerr
1.565435E+03	1.764694E-03	2.609104E-05
1.604571E+03	1.787965E-03	2.640525E-05
1.643707E+03	1.811902E-03	2.672788E-05
1.682843E+03	1.836827E-03	2.706361E-05
1.721979E+03	1.862754E-03	2.741254E-05
1.761115E+03	1.889698E-03	2.777480E-05
1.800250E+03	1.917672E-03	2.815051E-05
1.839386E+03	1.946690E-03	2.853975E-05
1.878522E+03	1.976765E-03	2.894263E-05
1.917658E+03	2.008243E-03	2.936410E-05
1.956794E+03	2.040807E-03	2.979940E-05
1.995930E+03	2.075149E-03	3.025850E-05
2.035066E+03	2.110612E-03	3.073168E-05
2.074202E+03	2.147552E-03	3.122399E-05
2.113338E+03	2.185985E-03	3.173553E-05
2.152473E+03	2.226281E-03	3.227151E-05
2.191609E+03	2.268466E-03	3.283211E-05
2.230745E+03	2.312207E-03	3.341233E-05
2.269881E+03	2.357877E-03	3.401739E-05
2.309017E+03	2.405866E-03	3.465270E-05
2.348153E+03	2.456203E-03	3.531845E-05
2.387289E+03	2.508545E-03	3.600948E-05
2.426425E+03	2.563286E-03	3.673119E-05
2.465560E+03	2.620831E-03	3.748913E-05
2.504696E+03	2.680830E-03	3.827802E-05
2.543832E+03	2.744078E-03	3.910889E-05
2.582968E+03	2.810225E-03	3.997643E-05
2.622104E+03	2.879302E-03	4.088075E-05
2.661240E+03	2.952123E-03	4.183304E-05
2.700376E+03	3.028335E-03	4.282794E-05
2.739512E+03	3.108773E-03	4.387680E-05
2.778647E+03	3.192679E-03	4.496850E-05
2.817783E+03	3.281305E-03	4.612022E-05
2.856919E+03	3.374297E-03	4.732645E-05
2.896055E+03	3.472113E-03	4.859311E-05
2.935191E+03	3.574808E-03	4.992041E-05
2.944975E+03	3.601538E-03	5.026573E-05
2.954759E+03	3.628316E-03	5.061122E-05
2.964543E+03	3.655561E-03	5.096270E-05
2.974327E+03	3.682856E-03	5.131435E-05
2.984111E+03	3.711040E-03	5.167784E-05
2.993895E+03	3.739275E-03	5.204151E-05
3.003679E+03	3.767562E-03	5.240535E-05
3.013463E+03	3.796742E-03	5.278105E-05
3.023247E+03	3.825976E-03	5.315694E-05
3.033031E+03	3.855686E-03	5.353886E-05
3.042815E+03	3.885872E-03	5.392681E-05
3.052599E+03	3.916538E-03	5.432083E-05
3.062383E+03	3.947259E-03	5.471502E-05
3.072167E+03	3.978888E-03	5.512118E-05
3.081951E+03	4.010574E-03	5.552750E-05
3.091735E+03	4.042744E-03	5.593991E-05
3.101518E+03	4.074973E-03	5.635250E-05
3.111302E+03	4.108116E-03	5.677709E-05
3.121086E+03	4.141321E-03	5.720186E-05
3.130870E+03	4.175445E-03	5.763868E-05
3.140654E+03	4.209631E-03	5.807568E-05
3.150438E+03	4.244312E-03	5.851882E-05
3.160222E+03	4.279486E-03	5.896807E-05
3.170006E+03	4.315159E-03	5.942349E-05
3.179790E+03	4.350896E-03	5.987909E-05
3.189574E+03	4.387567E-03	6.034682E-05
3.199358E+03	4.424740E-03	6.082072E-05
3.209142E+03	4.461981E-03	6.129483E-05
3.218926E+03	4.500164E-03	6.178110E-05
3.228710E+03	4.538418E-03	6.226760E-05
3.238494E+03	4.577618E-03	6.276629E-05
3.248278E+03	4.616890E-03	6.326520E-05
3.258062E+03	4.656675E-03	6.377033E-05
3.267846E+03	4.697414E-03	6.428773E-05
3.277630E+03	4.738230E-03	6.480536E-05
3.287414E+03	4.780004E-03	6.533526E-05
3.297198E+03	4.821858E-03	6.586541E-05
3.306982E+03	4.864676E-03	6.640788E-05
3.316766E+03	4.907575E-03	6.695058E-05
3.326550E+03	4.951443E-03	6.750564E-05
3.336334E+03	4.995840E-03	6.806702E-05
3.346118E+03	5.040768E-03	6.863472E-05
3.355902E+03	5.086228E-03	6.920877E-05
3.365686E+03	5.131777E-03	6.978308E-05
3.375470E+03	5.178754E-03	7.037589E-05
3.385254E+03	5.225823E-03	7.096899E-05
3.395038E+03	5.273432E-03	7.156846E-05
3.404822E+03	5.322032E-03	7.218041E-05
3.414606E+03	5.370727E-03	7.279266E-05
3.424389E+03	5.420419E-03	7.341741E-05
3.434173E+03	5.470658E-03	7.404856E-05
3.443957E+03	5.521449E-03	7.468614E-05
3.453741E+03	5.572790E-03	7.533014E-05
3.463525E+03	5.625138E-03	7.598668E-05
3.473309E+03	5.677590E-03	7.664355E-05
3.483093E+03	5.731053E-03	7.731299E-05
3.492877E+03	5.785075E-03	7.798888E-05
3.502661E+03	5.839658E-03	7.867120E-05
3.512445E+03	5.895259E-03	7.936612E-05
3.522229E+03	5.950968E-03	8.006136E-05
3.532013E+03	6.007698E-03	8.076918E-05
3.541797E+03	6.064996E-03	8.148347E-05
3.551581E+03	6.122861E-03	8.220419E-05
3.561365E+03	6.181752E-03	8.293750E-05
3.571149E+03	6.241214E-03	8.367725E-05
3.580933E+03	6.301247E-03	8.442343E-05
3.590717E+03	6.361851E-03	8.517602E-05
3.600501E+03	6.423026E-03	8.593500E-05
3.610285E+03	6.485233E-03	8.670652E-05
3.620069E+03	6.548012E-03	8.748442E-05
3.629853E+03	6.611364E-03	8.826866E-05
3.639637E+03	6.675285E-03	8.905920E-05
3.649421E+03	6.740240E-03	8.986222E-05
3.659205E+03	6.805765E-03	9.067149E-05
3.668989E+03	6.871859E-03	9.148699E-05
3.678773E+03	6.938986E-03	9.231486E-05
3.688557E+03	7.006213E-03	9.314269E-05
3.698341E+03	7.074469E-03	9.398281E-05
3.708125E+03	7.143286E-03	9.482899E-05
3.717909E+03	7.212663E-03	9.568116E-05
3.727693E+03	7.283062E-03	9.654548E-05
3.737477E+03	7.354017E-03	9.741570E-05
3.747260E+03	7.425051E-03	9.828552E-05
3.757044E+03	7.497100E-03	9.916730E-05
3.766828E+03	7.570159E-03	1.000610E-04
3.776612E+03	7.643286E-03	1.009540E-04
3.786396E+03	7.717416E-03	1.018588E-04
3.796180E+03	7.792074E-03	1.027691E-04
3.805964E+03	7.866781E-03	1.036785E-04
3.815748E+03	7.942475E-03	1.045993E-04
3.825532E+03	8.019152E-03	1.055315E-04
3.835316E+03	8.095857E-03	1.064626E-04
3.845100E+03	8.173059E-03	1.073986E-04
3.854884E+03	8.250748E-03	1.083394E-04
3.864668E+03	8.329392E-03	1.092912E-04
3.874452E+03	8.408032E-03	1.102414E-04
3.875752E+03	6.409004E-03	8.402296E-05
3.878235E+03	6.626444E-03	8.685729E-05
3.880718E+03	6.822947E-03	8.941615E-05
3.883201E+03	6.972983E-03	9.136519E-05
3.885684E+03	7.206853E-03	9.441173E-05
3.888167E+03	7.295187E-03	9.555091E-05
3.890650E+03	7.413630E-03	9.708394E-05
3.893133E+03	7.443291E-03	9.745398E-05
3.895616E+03	7.571651E-03	9.911588E-05
3.898099E+03	7.512140E-03	9.831829E-05
3.900582E+03	7.531128E-03	9.854819E-05
3.903065E+03	7.559263E-03	9.889766E-05
3.905548E+03	7.490206E-03	9.797567E-05
3.908032E+03	7.431431E-03	9.718848E-05
3.910514E+03	7.496911E-03	9.802629E-05
3.912997E+03	7.671413E-03	1.002890E-04
3.915480E+03	7.964479E-03	1.041006E-04
3.917963E+03	8.065812E-03	1.054051E-04
3.920447E+03	8.245303E-03	1.077303E-04
3.922930E+03	8.462166E-03	1.105428E-04
3.925413E+03	8.551319E-03	1.116863E-04
3.927895E+03	8.715587E-03	1.138102E-04
3.930378E+03	8.927142E-03	1.165506E-04
3.932861E+03	9.041858E-03	1.180259E-04
3.935345E+03	9.152004E-03	1.194410E-04
3.937828E+03	9.302955E-03	1.213880E-04
3.940311E+03	9.479086E-03	1.236627E-04
3.942794E+03	9.579706E-03	1.249517E-04
3.945276E+03	9.731819E-03	1.269116E-04
3.947759E+03	9.973568E-03	1.300395E-04
3.950243E+03	1.020808E-02	1.330719E-04
3.952726E+03	1.024961E-02	1.335878E-04
3.955209E+03	1.043760E-02	1.360121E-04
3.957692E+03	1.058783E-02	1.379435E-04
3.960175E+03	1.075410E-02	1.400831E-04
3.962658E+03	1.077846E-02	1.403736E-04
3.965141E+03	1.074446E-02	1.399043E-04
3.967624E+03	1.076843E-02	1.401897E-04
3.970107E+03	1.087824E-02	1.415923E-04
3.972590E+03	1.088047E-02	1.415942E-04
3.975073E+03	1.098608E-02	1.429414E-04
3.977557E+03	1.099936E-02	1.430868E-04
3.980039E+03	1.108818E-02	1.442148E-04
3.982522E+03	1.127926E-02	1.466720E-04
3.985005E+03	1.144210E-02	1.487612E-04
3.987488E+03	1.167936E-02	1.518168E-04
3.989971E+03	1.173919E-02	1.525654E-04
3.992455E+03	1.195012E-02	1.552771E-04
3.994938E+03	1.204811E-02	1.565205E-04
3.997420E+03	1.224226E-02	1.590122E-04
3.999903E+03	1.243717E-02	1.615131E-04
4.002386E+03	1.253822E-02	1.627941E-04
4.004869E+03	1.263429E-02	1.640102E-04
4.007353E+03	1.274640E-02	1.654339E-04
4.009836E+03	1.289209E-02	1.672928E-04
4.012319E+03	1.295038E-02	1.680169E-04
4.014801E+03	1.296210E-02	1.681369E-04
4.017284E+03	1.296542E-02	1.681477E-04
4.019768E+03	1.305308E-02	1.692522E-04
4.022251E+03	1.300410E-02	1.685848E-04
4.024734E+03	1.296084E-02	1.679918E-04
4.027217E+03	1.300956E-02	1.685909E-04
4.029700E+03	1.323233E-02	1.714449E-04
4.032182E+03	1.325164E-02	1.716623E-04
4.034666E+03	1.321369E-02	1.711379E-04
4.037149E+03	1.317917E-02	1.706581E-04
4.039632E+03	1.312480E-02	1.699214E-04
4.042115E+03	1.288794E-02	1.668228E-04
4.044598E+03	1.289462E-02	1.668773E-04
4.047081E+03	1.289748E-02	1.668823E-04
4.049564E+03	1.284536E-02	1.661760E-04
4.052047E+03	1.282377E-02	1.658648E-04
4.054530E+03	1.273803E-02	1.647243E-04
4.057013E+03	1.270039E-02	1.642060E-04
4.059496E+03	1.260204E-02	1.629031E-04
4.061979E+03	1.251933E-02	1.618029E-04
4.064463E+03	1.250763E-02	1.616206E-04
4.066945E+03	1.245928E-02	1.609649E-04
4.069428E+03	1.235134E-02	1.595398E-04
4.071911E+03	1.228694E-02	1.586774E-04
4.074394E+03	1.224427E-02	1.580960E-04
4.076878E+03	1.216610E-02	1.570564E-04
4.079361E+03	1.202607E-02	1.552189E-04
4.081844E+03	1.180547E-02	1.523423E-04
4.084326E+03	1.175323E-02	1.516391E-04
4.086809E+03	1.138676E-02	1.468827E-04
4.089292E+03	1.113444E-02	1.436002E-04
4.091776E+03	1.082942E-02	1.396396E-04
4.094259E+03	1.065115E-02	1.373144E-04
4.096742E+03	1.040415E-02	1.341044E-04
4.099225E+03	1.011705E-02	1.303787E-04
4.101707E+03	1.017359E-02	1.310820E-04
4.104190E+03	1.013313E-02	1.305357E-04
4.106674E+03	1.019614E-02	1.313221E-04
4.109157E+03	1.015147E-02	1.307216E-04
4.111640E+03	1.008465E-02	1.298362E-04
4.114123E+03	1.025456E-02	1.319982E-04
4.116606E+03	1.025874E-02	1.320266E-04
4.119089E+03	1.032439E-02	1.328460E-04
4.121572E+03	1.033582E-02	1.329674E-04
4.124055E+03	1.036367E-02	1.333000E-04
4.126538E+03	1.041059E-02	1.338777E-04
4.129021E+03	1.036396E-02	1.332524E-04
4.131504E+03	1.034902E-02	1.330347E-04
4.133988E+03	1.042418E-02	1.339751E-04
4.136470E+03	1.048674E-02	1.347531E-04
4.138953E+03	1.062793E-02	1.365411E-04
4.141436E+03	1.080807E-02	1.388287E-04
4.143919E+03	1.095115E-02	1.406395E-04
4.146402E+03	1.078880E-02	1.385278E-04
4.148886E+03	1.079366E-02	1.385635E-04
4.151369E+03	1.065725E-02	1.367861E-04
4.153851E+03	1.057392E-02	1.356903E-04
4.156334E+03	1.048637E-02	1.345409E-04
4.158817E+03	1.054389E-02	1.352529E-04
4.161300E+03	1.055178E-02	1.353280E-04
4.163784E+03	1.053714E-02	1.351142E-04
4.166267E+03	1.058090E-02	1.356491E-04
4.168750E+03	1.057349E-02	1.355281E-04
4.171232E+03	1.055653E-02	1.352847E-04
4.173715E+03	1.070372E-02	1.371445E-04
4.176199E+03	1.092267E-02	1.399229E-04
4.178682E+03	1.104655E-02	1.414826E-04
4.181165E+03	1.118912E-02	1.432810E-04
4.183648E+03	1.121640E-02	1.436027E-04
4.186131E+03	1.135589E-02	1.453606E-04
4.188613E+03	1.135529E-02	1.453249E-04
4.191097E+03	1.137186E-02	1.455089E-04
4.193580E+03	1.150520E-02	1.471868E-04
4.196063E+03	1.145000E-02	1.464524E-04
4.198546E+03	1.149134E-02	1.469529E-04
4.201029E+03	1.141055E-02	1.458916E-04
4.203512E+03	1.141639E-02	1.459382E-04
4.205995E+03	1.141000E-02	1.458285E-04
4.208478E+03	1.122921E-02	1.434901E-04
4.210961E+03	1.132089E-02	1.446339E-04
4.213444E+03	1.131907E-02	1.445828E-04
4.215927E+03	1.148934E-02	1.467295E-04
4.218410E+03	1.156457E-02	1.476619E-04
4.220894E+03	1.174626E-02	1.499529E-04
4.223376E+03	1.182452E-02	1.509229E-04
4.225859E+03	1.164293E-02	1.485766E-04
4.228342E+03	1.168378E-02	1.490692E-04
4.230825E+03	1.177537E-02	1.502089E-04
4.233309E+03	1.183756E-02	1.509732E-04
4.235792E+03	1.184633E-02	1.510560E-04
4.238275E+03	1.195848E-02	1.524568E-04
4.240757E+03	1.216293E-02	1.550334E-04
4.243240E+03	1.219264E-02	1.553823E-04
4.245723E+03	1.216741E-02	1.550309E-04
4.248207E+03	1.222800E-02	1.557730E-04
4.250690E+03	1.225615E-02	1.561017E-04
4.253173E+03	1.232663E-02	1.569693E-04
4.255656E+03	1.229145E-02	1.564912E-04
4.258138E+03	1.237106E-02	1.574745E-04
4.260621E+03	1.240984E-02	1.579379E-04
4.263105E+03	1.234070E-02	1.570278E-04
4.265588E+03	1.225705E-02	1.559336E-04
4.268071E+03	1.216082E-02	1.546796E-04
4.270554E+03	1.206039E-02	1.533728E-04
4.273037E+03	1.191116E-02	1.514460E-04
4.275520E+03	1.174936E-02	1.493601E-04
4.278003E+03	1.179419E-02	1.499012E-04
4.280486E+03	1.158130E-02	1.471673E-04
4.282969E+03	1.153615E-02	1.465655E-04
4.285452E+03	1.129773E-02	1.435089E-04
4.287935E+03	1.106199E-02	1.404875E-04
4.290419E+03	1.095739E-02	1.391325E-04
4.292901E+03	1.087833E-02	1.381021E-04
4.295384E+03	1.089569E-02	1.382961E-04
4.297867E+03	1.077393E-02	1.367245E-04
4.300350E+03	1.066209E-02	1.352793E-04
4.302833E+03	1.057769E-02	1.341828E-04
4.305317E+03	1.058817E-02	1.342900E-04
4.307800E+03	1.070228E-02	1.357114E-04
4.310282E+03	1.075959E-02	1.364121E-04
4.312765E+03	1.081804E-02	1.371269E-04
4.315248E+03	1.084408E-02	1.374308E-04
4.317731E+03	1.104917E-02	1.400032E-04
4.320215E+03	1.123783E-02	1.423666E-04
4.322698E+03	1.112860E-02	1.409560E-04
4.325181E+03	1.133055E-02	1.434865E-04
4.327663E+03	1.157322E-02	1.465317E-04
4.330146E+03	1.152833E-02	1.459355E-04
4.332630E+03	1.164717E-02	1.474118E-04
4.335113E+03	1.181664E-02	1.495281E-04
4.337596E+03	1.183415E-02	1.497212E-04
4.340079E+03	1.179758E-02	1.492302E-04
4.342562E+03	1.189083E-02	1.503812E-04
4.345044E+03	1.190488E-02	1.505302E-04
4.347528E+03	1.189759E-02	1.504095E-04
4.350011E+03	1.206540E-02	1.525018E-04
4.352494E+03	1.213610E-02	1.533664E-04
4.354977E+03	1.200852E-02	1.517253E-04
4.357460E+03	1.208034E-02	1.526038E-04
4.359943E+03	1.226592E-02	1.549187E-04
4.362426E+03	1.237650E-02	1.562857E-04
4.364909E+03	1.244673E-02	1.571427E-04
4.367392E+03	1.266073E-02	1.598143E-04
4.369875E+03	1.280471E-02	1.616010E-04
4.372358E+03	1.291518E-02	1.629644E-04
4.374841E+03	1.304158E-02	1.645282E-04
4.377325E+03	1.299073E-02	1.638557E-04
4.379807E+03	1.278435E-02	1.612221E-04
4.382290E+03	1.264187E-02	1.593951E-04
4.384773E+03	1.252411E-02	1.578805E-04
4.387256E+03	1.242651E-02	1.566206E-04
4.389740E+03	1.229318E-02	1.549110E-04
4.392223E+03	1.224235E-02	1.542414E-04
4.394706E+03	1.206684E-02	1.520014E-04
4.397188E+03	1.184537E-02	1.491835E-04
4.399671E+03	1.171970E-02	1.475729E-04
4.402154E+03	1.161531E-02	1.462309E-04
4.404638E+03	1.171801E-02	1.474961E-04
4.407121E+03	1.162122E-02	1.462503E-04
4.409604E+03	1.173983E-02	1.477152E-04
4.412087E+03	1.160542E-02	1.459966E-04
4.414569E+03	1.156561E-02	1.454685E-04
4.417052E+03	1.130170E-02	1.421225E-04
4.419536E+03	1.104013E-02	1.388070E-04
4.422019E+03	1.101515E-02	1.384671E-04
4.424502E+03	1.094576E-02	1.375689E-04
4.426985E+03	1.086154E-02	1.364849E-04
4.429468E+03	1.074279E-02	1.349675E-04
4.431951E+03	1.069998E-02	1.344045E-04
4.434434E+03	1.073534E-02	1.348234E-04
4.436917E+03	1.081356E-02	1.357804E-04
4.439400E+03	1.080069E-02	1.355935E-04
4.441883E+03	1.096993E-02	1.376925E-04
4.444366E+03	1.095817E-02	1.375191E-04
4.446850E+03	1.111292E-02	1.394351E-04
4.449332E+03	1.104612E-02	1.385713E-04
4.451815E+03	1.114203E-02	1.397483E-04
4.454298E+03	1.106346E-02	1.387371E-04
4.456781E+03	1.091286E-02	1.368231E-04
4.459264E+03	1.079753E-02	1.353520E-04
4.461748E+03	1.080922E-02	1.354733E-04
4.464231E+03	1.095469E-02	1.372711E-04
4.466713E+03	1.101144E-02	1.379566E-04
4.469196E+03	1.112878E-02	1.394009E-04
4.471679E+03	1.130104E-02	1.415325E-04
4.474162E+03	1.130503E-02	1.415562E-04
4.476646E+03	1.140181E-02	1.427416E-04
4.479129E+03	1.133532E-02	1.418829E-04
4.481612E+03	1.147485E-02	1.436029E-04
4.484094E+03	1.153329E-02	1.443077E-04
4.486577E+03	1.159852E-02	1.450971E-04
4.489061E+03	1.171143E-02	1.464825E-04
4.491544E+03	1.176260E-02	1.470955E-04
4.494027E+03	1.171495E-02	1.464727E-04
4.496510E+03	1.183684E-02	1.479695E-04
4.498993E+03	1.188907E-02	1.485950E-04
4.501475E+03	1.205024E-02	1.505817E-04
4.503959E+03	1.217957E-02	1.521700E-04
4.506442E+03	1.221089E-02	1.525333E-04
4.508925E+03	1.235829E-02	1.543463E-04
4.511408E+03	1.269284E-02	1.584955E-04
4.513891E+03	1.280910E-02	1.599180E-04
4.516374E+03	1.285047E-02	1.604052E-04
4.518857E+03	1.306343E-02	1.630337E-04
4.521340E+03	1.319468E-02	1.646417E-04
4.523823E+03	1.327447E-02	1.656071E-04
4.526306E+03	1.357527E-02	1.693290E-04
4.528789E+03	1.376000E-02	1.716018E-04
4.531273E+03	1.389743E-02	1.732843E-04
4.533756E+03	1.403745E-02	1.749984E-04
4.536238E+03	1.416458E-02	1.765512E-04
4.538721E+03	1.433810E-02	1.786815E-04
4.541204E+03	1.446095E-02	1.801799E-04
4.543687E+03	1.475928E-02	1.838637E-04
4.546171E+03	1.482237E-02	1.846162E-04
4.548654E+03	1.493336E-02	1.859650E-04
4.551137E+03	1.525030E-02	1.898775E-04
4.553619E+03	1.537774E-02	1.914298E-04
4.556102E+03	1.558471E-02	1.939713E-04
4.558585E+03	1.572033E-02	1.956240E-04
4.561069E+03	1.603235E-02	1.994709E-04
4.563552E+03	1.623152E-02	2.019126E-04
4.566035E+03	1.643061E-02	2.043525E-04
4.568518E+03	1.658365E-02	2.062189E-04
4.571000E+03	1.658965E-02	2.062566E-04
4.573483E+03	1.663292E-02	2.067576E-04
4.575967E+03	1.688787E-02	2.098892E-04
4.578450E+03	1.705383E-02	2.119139E-04
4.580933E+03	1.723929E-02	2.141802E-04
4.583416E+03	1.742731E-02	2.164775E-04
4.585899E+03	1.754936E-02	2.179548E-04
4.588382E+03	1.767586E-02	2.194868E-04
4.590865E+03	1.776052E-02	2.204989E-04
4.593348E+03	1.805057E-02	2.240601E-04
4.595831E+03	1.819002E-02	2.257510E-04
4.598314E+03	1.842305E-02	2.286026E-04
4.600797E+03	1.867028E-02	2.316293E-04
4.603281E+03	1.890347E-02	2.344809E-04
4.605763E+03	1.902152E-02	2.359035E-04
4.608246E+03	1.917521E-02	2.377676E-04
4.610729E+03	1.935061E-02	2.399003E-04
4.613212E+03	1.939030E-02	2.403500E-04
4.615695E+03	1.951371E-02	2.418372E-04
4.618179E+03	1.966935E-02	2.437232E-04
4.620662E+03	1.990564E-02	2.466079E-04
4.623144E+03	2.004458E-02	2.482856E-04
4.625627E+03	2.017216E-02	2.498223E-04
4.628110E+03	2.033159E-02	2.517526E-04
4.630593E+03	2.047216E-02	2.534490E-04
4.633077E+03	2.042206E-02	2.527847E-04
4.635560E+03	2.055087E-02	2.543348E-04
4.638043E+03	2.048536E-02	2.534799E-04
4.640525E+03	2.052368E-02	2.539100E-04
4.643008E+03	2.047463E-02	2.532592E-04
4.645492E+03	2.038359E-02	2.520894E-04
4.647975E+03	2.024985E-02	2.503920E-04
4.650458E+03	2.011312E-02	2.486584E-04
4.652941E+03	1.997793E-02	2.469443E-04
4.655424E+03	1.989070E-02	2.458236E-04
4.657906E+03	1.975629E-02	2.441205E-04
4.660390E+03	1.962116E-02	2.424091E-04
4.662873E+03	1.951862E-02	2.411009E-04
4.665356E+03	1.932630E-02	2.386842E-04
4.667839E+03	1.918042E-02	2.368420E-04
4.670322E+03	1.909179E-02	2.357073E-04
4.672805E+03	1.890708E-02	2.333869E-04
4.675288E+03	1.886709E-02	2.328536E-04
4.677771E+03	1.868095E-02	2.305170E-04
4.680254E+03	1.858680E-02	2.293162E-04
4.682737E+03	1.853076E-02	2.285859E-04
4.685220E+03	1.837835E-02	2.266675E-04
4.687704E+03	1.818341E-02	2.242251E-04
4.690187E+03	1.802436E-02	2.222263E-04
4.692669E+03	1.782543E-02	2.197365E-04
4.695152E+03	1.773665E-02	2.186052E-04
4.697635E+03	1.760498E-02	2.169458E-04
4.700118E+03	1.749870E-02	2.155998E-04
4.702602E+03	1.738424E-02	2.141536E-04
4.705085E+03	1.731082E-02	2.132134E-04
4.707568E+03	1.721131E-02	2.119523E-04
4.710050E+03	1.707605E-02	2.102514E-04
4.712533E+03	1.691066E-02	2.081802E-04
4.715016E+03	1.684363E-02	2.073205E-04
4.717500E+03	1.677253E-02	2.064110E-04
4.719983E+03	1.665042E-02	2.048742E-04
4.722466E+03	1.656111E-02	2.037415E-04
4.724949E+03	1.650865E-02	2.030625E-04
4.727431E+03	1.646773E-02	2.025256E-04
4.729914E+03	1.643646E-02	2.021077E-04
4.732398E+03	1.642750E-02	2.019642E-04
4.734881E+03	1.640587E-02	2.016651E-04
4.737364E+03	1.637419E-02	2.012426E-04
4.739847E+03	1.623105E-02	1.994505E-04
4.742330E+03	1.604447E-02	1.971256E-04
4.744813E+03	1.595453E-02	1.959885E-04
4.747296E+03	1.589320E-02	1.952032E-04
4.749779E+03	1.598070E-02	1.962460E-04
4.752262E+03	1.588000E-02	1.949777E-04
4.754745E+03	1.582718E-02	1.942975E-04
4.757228E+03	1.580849E-02	1.940366E-04
4.759712E+03	1.589174E-02	1.950268E-04
4.762194E+03	1.587002E-02	1.947288E-04
4.764677E+03	1.582530E-02	1.941488E-04
4.767160E+03	1.581244E-02	1.939598E-04
4.769643E+03	1.572364E-02	1.928396E-04
4.772126E+03	1.561931E-02	1.915293E-04
4.774610E+03	1.554831E-02	1.906282E-04
4.777093E+03	1.544626E-02	1.893467E-04
4.779575E+03	1.543857E-02	1.892222E-04
4.782058E+03	1.533802E-02	1.879599E-04
4.784541E+03	1.527115E-02	1.871107E-04
4.787024E+03	1.516547E-02	1.857864E-04
4.789508E+03	1.490649E-02	1.825848E-04
4.791991E+03	1.478023E-02	1.810097E-04
4.794474E+03	1.469799E-02	1.799740E-04
4.796956E+03	1.458955E-02	1.786181E-04
4.799439E+03	1.467897E-02	1.796847E-04
4.801923E+03	1.462147E-02	1.789527E-04
4.804406E+03	1.442971E-02	1.765780E-04
4.806889E+03	1.425758E-02	1.744443E-04
4.809372E+03	1.417990E-02	1.734669E-04
4.811855E+03	1.419474E-02	1.736214E-04
4.814337E+03	1.425230E-02	1.742983E-04
4.816821E+03	1.417977E-02	1.733844E-04
