#wls	flux	fluxerr
1.600000E+03	8.098326E-17	6.106581E-18
1.640000E+03	8.195123E-17	6.152641E-18
1.680000E+03	8.303573E-17	6.206092E-18
1.720000E+03	8.423702E-17	6.266795E-18
1.760000E+03	8.556269E-17	6.335146E-18
1.800000E+03	8.702699E-17	6.412015E-18
1.840000E+03	8.861446E-17	6.496063E-18
1.880000E+03	9.034587E-17	6.588609E-18
1.920000E+03	9.221985E-17	6.689328E-18
1.960000E+03	9.423524E-17	6.797900E-18
2.000000E+03	9.638447E-17	6.913537E-18
2.040000E+03	9.866729E-17	7.035980E-18
2.080000E+03	1.010710E-16	7.164074E-18
2.120000E+03	1.035717E-16	7.295891E-18
2.160000E+03	1.061663E-16	7.430983E-18
2.200000E+03	1.088280E-16	7.567279E-18
2.240000E+03	1.115391E-16	7.703335E-18
2.280000E+03	1.142950E-16	7.838678E-18
2.320000E+03	1.171043E-16	7.973704E-18
2.360000E+03	1.199926E-16	8.109963E-18
2.400000E+03	1.229908E-16	8.249274E-18
2.440000E+03	1.261286E-16	8.393324E-18
2.480000E+03	1.294518E-16	8.544784E-18
2.520000E+03	1.329889E-16	8.705073E-18
2.560000E+03	1.367790E-16	8.876227E-18
2.600000E+03	1.408455E-16	9.059164E-18
2.640000E+03	1.452182E-16	9.255129E-18
2.680000E+03	1.499180E-16	9.464702E-18
2.720000E+03	1.549674E-16	9.688515E-18
2.760000E+03	1.603921E-16	9.927273E-18
2.800000E+03	1.662149E-16	1.018144E-17
2.840000E+03	1.724623E-16	1.045161E-17
2.880000E+03	1.791745E-16	1.073906E-17
2.920000E+03	1.863856E-16	1.104460E-17
2.960000E+03	1.941589E-16	1.137059E-17
3.000000E+03	2.025484E-16	1.171865E-17
3.010000E+03	2.047559E-16	1.180971E-17
3.020000E+03	2.070046E-16	1.190217E-17
3.030000E+03	2.092954E-16	1.199604E-17
3.040000E+03	2.116383E-16	1.209188E-17
3.050000E+03	2.140295E-16	1.218943E-17
3.060000E+03	2.164697E-16	1.228869E-17
3.070000E+03	2.189647E-16	1.238997E-17
3.080000E+03	2.215106E-16	1.249300E-17
3.090000E+03	2.241084E-16	1.259780E-17
3.100000E+03	2.267685E-16	1.270492E-17
3.110000E+03	2.294826E-16	1.281386E-17
3.120000E+03	2.322563E-16	1.292489E-17
3.130000E+03	2.350863E-16	1.303778E-17
3.140000E+03	2.379876E-16	1.315333E-17
3.150000E+03	2.409476E-16	1.327078E-17
3.160000E+03	2.439722E-16	1.339042E-17
3.170000E+03	2.470674E-16	1.351254E-17
3.180000E+03	2.502346E-16	1.363716E-17
3.190000E+03	2.534660E-16	1.376380E-17
3.200000E+03	2.567770E-16	1.389326E-17
3.210000E+03	2.601599E-16	1.402506E-17
3.220000E+03	2.636211E-16	1.415949E-17
3.230000E+03	2.671575E-16	1.429634E-17
3.240000E+03	2.707757E-16	1.443589E-17
3.250000E+03	2.744775E-16	1.457819E-17
3.260000E+03	2.782648E-16	1.472327E-17
3.270000E+03	2.821349E-16	1.487093E-17
3.280000E+03	2.860947E-16	1.502147E-17
3.290000E+03	2.901463E-16	1.517494E-17
3.300000E+03	2.942871E-16	1.533113E-17
3.310000E+03	2.985245E-16	1.549036E-17
3.320000E+03	3.028559E-16	1.565242E-17
3.330000E+03	3.072887E-16	1.581763E-17
3.340000E+03	3.118206E-16	1.598579E-17
3.350000E+03	3.164545E-16	1.615697E-17
3.360000E+03	3.211931E-16	1.633124E-17
3.370000E+03	3.260393E-16	1.650866E-17
3.380000E+03	3.309962E-16	1.668931E-17
3.390000E+03	3.360620E-16	1.687301E-17
3.400000E+03	3.412449E-16	1.706009E-17
3.410000E+03	3.465383E-16	1.725013E-17
3.420000E+03	3.519557E-16	1.744371E-17
3.430000E+03	3.574906E-16	1.764042E-17
3.440000E+03	3.631467E-16	1.784036E-17
3.450000E+03	3.689281E-16	1.804361E-17
3.460000E+03	3.748333E-16	1.825002E-17
3.470000E+03	3.808717E-16	1.845994E-17
3.480000E+03	3.870424E-16	1.867323E-17
3.490000E+03	3.933446E-16	1.888973E-17
3.500000E+03	3.997827E-16	1.910957E-17
3.510000E+03	4.063564E-16	1.933261E-17
3.520000E+03	4.130752E-16	1.955919E-17
3.530000E+03	4.199287E-16	1.978871E-17
3.540000E+03	4.269268E-16	2.002153E-17
3.550000E+03	4.340695E-16	2.025753E-17
3.560000E+03	4.413620E-16	2.049683E-17
3.570000E+03	4.487991E-16	2.073907E-17
3.580000E+03	4.563808E-16	2.098413E-17
3.590000E+03	4.641180E-16	2.123240E-17
3.600000E+03	4.720003E-16	2.148326E-17
3.610000E+03	4.800387E-16	2.173710E-17
3.620000E+03	4.882337E-16	2.199381E-17
3.630000E+03	4.965805E-16	2.225304E-17
3.640000E+03	5.050794E-16	2.251469E-17
3.644048E+03	7.254476E-16	3.226845E-17
3.649566E+03	7.280799E-16	3.229029E-17
3.655084E+03	7.329187E-16	3.240883E-17
3.660602E+03	7.402358E-16	3.263516E-17
3.666120E+03	7.482734E-16	3.289104E-17
3.671637E+03	7.545673E-16	3.306821E-17
3.677155E+03	7.608251E-16	3.324192E-17
3.682673E+03	7.664032E-16	3.338418E-17
3.688191E+03	7.709000E-16	3.347779E-17
3.693709E+03	7.726757E-16	3.345220E-17
3.699227E+03	7.734854E-16	3.338424E-17
3.704745E+03	7.708220E-16	3.316643E-17
3.710263E+03	7.632101E-16	3.273687E-17
3.715781E+03	7.515373E-16	3.213552E-17
3.721299E+03	7.354860E-16	3.135046E-17
3.726817E+03	7.138557E-16	3.033247E-17
3.732335E+03	6.878229E-16	2.913364E-17
3.737853E+03	6.588681E-16	2.781828E-17
3.743371E+03	6.259185E-16	2.634247E-17
3.748889E+03	5.899082E-16	2.474701E-17
3.754406E+03	5.560508E-16	2.325121E-17
3.759924E+03	5.251943E-16	2.188953E-17
3.765442E+03	4.973360E-16	2.066067E-17
3.770960E+03	4.738353E-16	1.961971E-17
3.776478E+03	4.576673E-16	1.888767E-17
3.781996E+03	4.452873E-16	1.831576E-17
3.787514E+03	4.356034E-16	1.785766E-17
3.793032E+03	4.281334E-16	1.749257E-17
3.798550E+03	4.213394E-16	1.715696E-17
3.804068E+03	4.177800E-16	1.695438E-17
3.809586E+03	4.186034E-16	1.692994E-17
3.815104E+03	4.226072E-16	1.703336E-17
3.820622E+03	4.303318E-16	1.728503E-17
3.826140E+03	4.434035E-16	1.774848E-17
3.831657E+03	4.577933E-16	1.826077E-17
3.837175E+03	4.768047E-16	1.895265E-17
3.842693E+03	5.006094E-16	1.982897E-17
3.848211E+03	5.278788E-16	2.083527E-17
3.853729E+03	5.589930E-16	2.198503E-17
3.859247E+03	5.946659E-16	2.330459E-17
3.864765E+03	6.329648E-16	2.471653E-17
3.870283E+03	6.750825E-16	2.626613E-17
3.875801E+03	7.240751E-16	2.807024E-17
3.881319E+03	7.763526E-16	2.998724E-17
3.886837E+03	8.308451E-16	3.197453E-17
3.892355E+03	8.876781E-16	3.403595E-17
3.897873E+03	9.479476E-16	3.621233E-17
3.903390E+03	1.009216E-15	3.840944E-17
3.908908E+03	1.071706E-15	4.063518E-17
3.914426E+03	1.135050E-15	4.287517E-17
3.919944E+03	1.196688E-15	4.503261E-17
3.925462E+03	1.254031E-15	4.701121E-17
3.930980E+03	1.304921E-15	4.873213E-17
3.936498E+03	1.351557E-15	5.027996E-17
3.942016E+03	1.393006E-15	5.162188E-17
3.947534E+03	1.430113E-15	5.279135E-17
3.953052E+03	1.462310E-15	5.376930E-17
3.958570E+03	1.491870E-15	5.464107E-17
3.964088E+03	1.516973E-15	5.534145E-17
3.969606E+03	1.537240E-15	5.585853E-17
3.975124E+03	1.554753E-15	5.626980E-17
3.980642E+03	1.570925E-15	5.662732E-17
3.986159E+03	1.582810E-15	5.682601E-17
3.991677E+03	1.591790E-15	5.691701E-17
3.997195E+03	1.597502E-15	5.688875E-17
4.002713E+03	1.599728E-15	5.673491E-17
4.008231E+03	1.597839E-15	5.643478E-17
4.013749E+03	1.592630E-15	5.601812E-17
4.019267E+03	1.584735E-15	5.550864E-17
4.024785E+03	1.573476E-15	5.488386E-17
4.030303E+03	1.559284E-15	5.416022E-17
4.035821E+03	1.540881E-15	5.329486E-17
4.041339E+03	1.519583E-15	5.233492E-17
4.046857E+03	1.493590E-15	5.122002E-17
4.052375E+03	1.465404E-15	5.003760E-17
4.057892E+03	1.435007E-15	4.878816E-17
4.063410E+03	1.403665E-15	4.751546E-17
4.068928E+03	1.371459E-15	4.622263E-17
4.074446E+03	1.339949E-15	4.496249E-17
4.079964E+03	1.306944E-15	4.366156E-17
4.085482E+03	1.273392E-15	4.235198E-17
4.091000E+03	1.240519E-15	4.107468E-17
4.096518E+03	1.210769E-15	3.990990E-17
4.102036E+03	1.185098E-15	3.888765E-17
4.107554E+03	1.165439E-15	3.806926E-17
4.113072E+03	1.149803E-15	3.738739E-17
4.118590E+03	1.138960E-15	3.686518E-17
4.124108E+03	1.130497E-15	3.642272E-17
4.129626E+03	1.123045E-15	3.601509E-17
4.135144E+03	1.119999E-15	3.575019E-17
4.140661E+03	1.120223E-15	3.559000E-17
4.146179E+03	1.122630E-15	3.549862E-17
4.151697E+03	1.126543E-15	3.545381E-17
4.157215E+03	1.133467E-15	3.550203E-17
4.162733E+03	1.139054E-15	3.550638E-17
4.168251E+03	1.144057E-15	3.549087E-17
4.173769E+03	1.151033E-15	3.553463E-17
4.179287E+03	1.158899E-15	3.560357E-17
4.184805E+03	1.165491E-15	3.563112E-17
4.190323E+03	1.173300E-15	3.569364E-17
4.195841E+03	1.180478E-15	3.573462E-17
4.201359E+03	1.186745E-15	3.574592E-17
4.206877E+03	1.193054E-15	3.575654E-17
4.212395E+03	1.198514E-15	3.573985E-17
4.217912E+03	1.202829E-15	3.568755E-17
4.223430E+03	1.206436E-15	3.561297E-17
4.228948E+03	1.207289E-15	3.545637E-17
4.234466E+03	1.205608E-15	3.522545E-17
4.239984E+03	1.204710E-15	3.501775E-17
4.245502E+03	1.202235E-15	3.476468E-17
4.251020E+03	1.200760E-15	3.454113E-17
4.256538E+03	1.200160E-15	3.434305E-17
4.262056E+03	1.201169E-15	3.419092E-17
4.267574E+03	1.201335E-15	3.401463E-17
4.273092E+03	1.203935E-15	3.390685E-17
4.278610E+03	1.207173E-15	3.381617E-17
4.284128E+03	1.212077E-15	3.377097E-17
4.289645E+03	1.217960E-15	3.375149E-17
4.295163E+03	1.226365E-15	3.379974E-17
4.300681E+03	1.234641E-15	3.384196E-17
4.306199E+03	1.243098E-15	3.388671E-17
4.311717E+03	1.249792E-15	3.388114E-17
4.317235E+03	1.255173E-15	3.383828E-17
4.322753E+03	1.258015E-15	3.372580E-17
4.328271E+03	1.258225E-15	3.354240E-17
4.333789E+03	1.255744E-15	3.328770E-17
4.339307E+03	1.248756E-15	3.291506E-17
4.344825E+03	1.237124E-15	3.242294E-17
4.350343E+03	1.220417E-15	3.180217E-17
4.355861E+03	1.198763E-15	3.105839E-17
4.361379E+03	1.171578E-15	3.017876E-17
4.366896E+03	1.140806E-15	2.921558E-17
4.372414E+03	1.106637E-15	2.817523E-17
4.377932E+03	1.070037E-15	2.708372E-17
4.383450E+03	1.032230E-15	2.597294E-17
4.388968E+03	9.948659E-16	2.488466E-17
4.394486E+03	9.585925E-16	2.383479E-17
4.400004E+03	9.262306E-16	2.289256E-17
4.405522E+03	8.977613E-16	2.205575E-17
4.411040E+03	8.742036E-16	2.134750E-17
4.416558E+03	8.562038E-16	2.078131E-17
4.422076E+03	8.438963E-16	2.035796E-17
4.427594E+03	8.361927E-16	2.004882E-17
4.433112E+03	8.344818E-16	1.988496E-17
4.438630E+03	8.391605E-16	1.987313E-17
4.444148E+03	8.497284E-16	1.999877E-17
4.449665E+03	8.658404E-16	2.025124E-17
4.455183E+03	8.871825E-16	2.062079E-17
4.460701E+03	9.117261E-16	2.105832E-17
4.466219E+03	9.367191E-16	2.149932E-17
4.471737E+03	9.644464E-16	2.199572E-17
4.477255E+03	9.940414E-16	2.252673E-17
4.482773E+03	1.026629E-15	2.311692E-17
4.488291E+03	1.060463E-15	2.372598E-17
4.493809E+03	1.096545E-15	2.437567E-17
4.499327E+03	1.132483E-15	2.501227E-17
4.504845E+03	1.169188E-15	2.565587E-17
4.510363E+03	1.205516E-15	2.628130E-17
4.515881E+03	1.244120E-15	2.694619E-17
4.521399E+03	1.285535E-15	2.766120E-17
4.526916E+03	1.328205E-15	2.839197E-17
4.532434E+03	1.371960E-15	2.913438E-17
4.537952E+03	1.416197E-15	2.987536E-17
4.543470E+03	1.459440E-15	3.058389E-17
4.548988E+03	1.501136E-15	3.124894E-17
4.554506E+03	1.542209E-15	3.189036E-17
4.560024E+03	1.581122E-15	3.247695E-17
4.565542E+03	1.617862E-15	3.300941E-17
4.571060E+03	1.652123E-15	3.348257E-17
4.576578E+03	1.685289E-15	3.392537E-17
4.582096E+03	1.714139E-15	3.427395E-17
4.587614E+03	1.739902E-15	3.455455E-17
4.593132E+03	1.761200E-15	3.474137E-17
4.598650E+03	1.780339E-15	3.488142E-17
4.604167E+03	1.793639E-15	3.490410E-17
4.609685E+03	1.804634E-15	3.487998E-17
4.615203E+03	1.813781E-15	3.481891E-17
4.620721E+03	1.821852E-15	3.473635E-17
4.626239E+03	1.828387E-15	3.462408E-17
4.631757E+03	1.834918E-15	3.451159E-17
4.637275E+03	1.840986E-15	3.439034E-17
4.642793E+03	1.846286E-15	3.425494E-17
4.648311E+03	1.850818E-15	3.410570E-17
4.653829E+03	1.854278E-15	3.393742E-17
4.659347E+03	1.855136E-15	3.372276E-17
4.664865E+03	1.854617E-15	3.348485E-17
4.670383E+03	1.853335E-15	3.323524E-17
4.675900E+03	1.849763E-15	3.294710E-17
4.681418E+03	1.844970E-15	3.264015E-17
4.686936E+03	1.838348E-15	3.230421E-17
4.692454E+03	1.829592E-15	3.193464E-17
4.697972E+03	1.817635E-15	3.151371E-17
4.703490E+03	1.802329E-15	3.104000E-17
4.709008E+03	1.781236E-15	3.047296E-17
4.714526E+03	1.756493E-15	2.985088E-17
4.720044E+03	1.724751E-15	2.911842E-17
4.725562E+03	1.686015E-15	2.827793E-17
4.731080E+03	1.641663E-15	2.735460E-17
4.736598E+03	1.591699E-15	2.635020E-17
4.742116E+03	1.536279E-15	2.526898E-17
4.747634E+03	1.478426E-15	2.416187E-17
4.753151E+03	1.419324E-15	2.304874E-17
4.758669E+03	1.358535E-15	2.192263E-17
4.764187E+03	1.298831E-15	2.082828E-17
4.769705E+03	1.242125E-15	1.979565E-17
4.775223E+03	1.187548E-15	1.880986E-17
4.780741E+03	1.135997E-15	1.788418E-17
4.786259E+03	1.089155E-15	1.704385E-17
4.791777E+03	1.047200E-15	1.629013E-17
4.797295E+03	1.011223E-15	1.563834E-17
4.802813E+03	9.804120E-16	1.507423E-17
4.808331E+03	9.555693E-16	1.460853E-17
4.813849E+03	9.367201E-16	1.423997E-17
4.819367E+03	9.229184E-16	1.395262E-17
4.824885E+03	9.131139E-16	1.372938E-17
4.830403E+03	9.084707E-16	1.358665E-17
4.835920E+03	9.062559E-16	1.348253E-17
4.841438E+03	9.054371E-16	1.340117E-17
4.846956E+03	9.060128E-16	1.334227E-17
4.852474E+03	9.065584E-16	1.328467E-17
4.857992E+03	9.053170E-16	1.320277E-17
4.863510E+03	9.041069E-16	1.312338E-17
4.869028E+03	9.021864E-16	1.303578E-17
4.874546E+03	8.993745E-16	1.293753E-17
4.880064E+03	8.972451E-16	1.285136E-17
4.885582E+03	8.974312E-16	1.280042E-17
4.891100E+03	9.021988E-16	1.281653E-17
4.896618E+03	9.123909E-16	1.291088E-17
4.902136E+03	9.294689E-16	1.310326E-17
4.907654E+03	9.533066E-16	1.339094E-17
4.913171E+03	9.827661E-16	1.375716E-17
4.918689E+03	1.015865E-15	1.417364E-17
4.924207E+03	1.052916E-15	1.464452E-17
4.929725E+03	1.091730E-15	1.513916E-17
4.935243E+03	1.130872E-15	1.563778E-17
4.940761E+03	1.170506E-15	1.614289E-17
4.946279E+03	1.208476E-15	1.662497E-17
4.951797E+03	1.241754E-15	1.704286E-17
4.957315E+03	1.269288E-15	1.738281E-17
4.962833E+03	1.290117E-15	1.763232E-17
4.968351E+03	1.302455E-15	1.776768E-17
4.973869E+03	1.305555E-15	1.777939E-17
4.979387E+03	1.302405E-15	1.770871E-17
4.984904E+03	1.292212E-15	1.754521E-17
4.990422E+03	1.276337E-15	1.730761E-17
4.995940E+03	1.256363E-15	1.701752E-17
5.001458E+03	1.232805E-15	1.668191E-17
5.006976E+03	1.204793E-15	1.628899E-17
5.012494E+03	1.174209E-15	1.586415E-17
5.018012E+03	1.142620E-15	1.542836E-17
5.023530E+03	1.111859E-15	1.500618E-17
5.029048E+03	1.085065E-15	1.463975E-17
5.034566E+03	1.063527E-15	1.434621E-17
5.040084E+03	1.048547E-15	1.414293E-17
5.045602E+03	1.040464E-15	1.403434E-17
5.051120E+03	1.040191E-15	1.403267E-17
5.056638E+03	1.046265E-15	1.411817E-17
5.062155E+03	1.058337E-15	1.428618E-17
5.067673E+03	1.076238E-15	1.453452E-17
5.073191E+03	1.098642E-15	1.484539E-17
5.078709E+03	1.122146E-15	1.517290E-17
5.084227E+03	1.147033E-15	1.552099E-17
5.089745E+03	1.173616E-15	1.589393E-17
5.095263E+03	1.200187E-15	1.626870E-17
5.100781E+03	1.227045E-15	1.664939E-17
5.106299E+03	1.253533E-15	1.702709E-17
5.111817E+03	1.277643E-15	1.737454E-17
5.117335E+03	1.299004E-15	1.768659E-17
5.122853E+03	1.318111E-15	1.796984E-17
5.128371E+03	1.334189E-15	1.821358E-17
5.133889E+03	1.348675E-15	1.843729E-17
5.139407E+03	1.362483E-15	1.865337E-17
5.144924E+03	1.374252E-15	1.884307E-17
5.150442E+03	1.384089E-15	1.900774E-17
5.155960E+03	1.391875E-15	1.914555E-17
5.161478E+03	1.398569E-15	1.926954E-17
5.166996E+03	1.404424E-15	1.938310E-17
5.172514E+03	1.410458E-15	1.950017E-17
5.178032E+03	1.418384E-15	1.964448E-17
5.183550E+03	1.429053E-15	1.982792E-17
5.189068E+03	1.442807E-15	2.005540E-17
5.194586E+03	1.460926E-15	2.034495E-17
5.200104E+03	1.482468E-15	2.068373E-17
5.205622E+03	1.506609E-15	2.106047E-17
5.211140E+03	1.532350E-15	2.146137E-17
5.216658E+03	1.559273E-15	2.188063E-17
5.222175E+03	1.587526E-15	2.232040E-17
5.227693E+03	1.619342E-15	2.281223E-17
5.233211E+03	1.653975E-15	2.334584E-17
5.238729E+03	1.690677E-15	2.391087E-17
5.244247E+03	1.729449E-15	2.450744E-17
5.249765E+03	1.769248E-15	2.512087E-17
5.255283E+03	1.807392E-15	2.571308E-17
5.260801E+03	1.843143E-15	2.627332E-17
5.266319E+03	1.878432E-15	2.682896E-17
5.271837E+03	1.912964E-15	2.737567E-17
5.277355E+03	1.945106E-15	2.788990E-17
5.282873E+03	1.976194E-15	2.839061E-17
5.288391E+03	2.006528E-15	2.888194E-17
5.293908E+03	2.033880E-15	2.933165E-17
5.299426E+03	2.057360E-15	2.972661E-17
5.304944E+03	2.077417E-15	3.007289E-17
5.310462E+03	2.093756E-15	3.036590E-17
5.315980E+03	2.106527E-15	3.060745E-17
5.321498E+03	2.116179E-15	3.080376E-17
5.327016E+03	2.123158E-15	3.096099E-17
5.332534E+03	2.126725E-15	3.106812E-17
5.338052E+03	2.126436E-15	3.111834E-17
5.343570E+03	2.122739E-15	3.111786E-17
5.349088E+03	2.115488E-15	3.106426E-17
5.354606E+03	2.105426E-15	3.096817E-17
5.360124E+03	2.094035E-15	3.085119E-17
5.365642E+03	2.081319E-15	3.071326E-17
5.371159E+03	2.068017E-15	3.056519E-17
5.376677E+03	2.055167E-15	3.042229E-17
5.382195E+03	2.044100E-15	3.030432E-17
5.387713E+03	2.033337E-15	3.018939E-17
5.393231E+03	2.024356E-15	3.009953E-17
5.398749E+03	2.015972E-15	3.001717E-17
5.404267E+03	2.008186E-15	2.994235E-17
5.409785E+03	2.000406E-15	2.986624E-17
5.415303E+03	1.993517E-15	2.980209E-17
5.420821E+03	1.987668E-15	2.975215E-17
5.426339E+03	1.985077E-15	2.974970E-17
5.431857E+03	1.983966E-15	2.976825E-17
5.437375E+03	1.983894E-15	2.980120E-17
5.442893E+03	1.985004E-15	2.985077E-17
5.448410E+03	1.986709E-15	2.990812E-17
5.453928E+03	1.986495E-15	2.993541E-17
5.459446E+03	1.985249E-15	2.994590E-17
5.464964E+03	1.982825E-15	2.993732E-17
5.470482E+03	1.979961E-15	2.992077E-17
5.476000E+03	1.975329E-15	2.987614E-17
5.481518E+03	1.970554E-15	2.982793E-17
5.487036E+03	1.964603E-15	2.976051E-17
5.492554E+03	1.956886E-15	2.966488E-17
5.498072E+03	1.947551E-15	2.954324E-17
5.503590E+03	1.938369E-15	2.942242E-17
5.509108E+03	1.929046E-15	2.929797E-17
5.514626E+03	1.921940E-15	2.920572E-17
5.520144E+03	1.916312E-15	2.913453E-17
5.525662E+03	1.910689E-15	2.906198E-17
5.531179E+03	1.903449E-15	2.896343E-17
5.536697E+03	1.893562E-15	2.882317E-17
5.542215E+03	1.881177E-15	2.864345E-17
5.547733E+03	1.865706E-15	2.841527E-17
5.553251E+03	1.849063E-15	2.816782E-17
5.558769E+03	1.832724E-15	2.792357E-17
5.564287E+03	1.815950E-15	2.767132E-17
5.569805E+03	1.798889E-15	2.741336E-17
5.575323E+03	1.781984E-15	2.715644E-17
5.580841E+03	1.765674E-15	2.690732E-17
5.586359E+03	1.747313E-15	2.662569E-17
5.591877E+03	1.729106E-15	2.634520E-17
5.597395E+03	1.710907E-15	2.606367E-17
5.602913E+03	1.694040E-15	2.580130E-17
5.608430E+03	1.678356E-15	2.555585E-17
5.613948E+03	1.665326E-15	2.534972E-17
5.619466E+03	1.653623E-15	2.516273E-17
5.624984E+03	1.644721E-15	2.501728E-17
5.630502E+03	1.637438E-15	2.489541E-17
5.636020E+03	1.630307E-15	2.477477E-17
5.641538E+03	1.624062E-15	2.466655E-17
5.647056E+03	1.619584E-15	2.458411E-17
5.652574E+03	1.614375E-15	2.448954E-17
5.658092E+03	1.609170E-15	2.439399E-17
5.663610E+03	1.604556E-15	2.430639E-17
5.669128E+03	1.601414E-15	2.424006E-17
5.674646E+03	1.597101E-15	2.415500E-17
5.680163E+03	1.592791E-15	2.406901E-17
5.685681E+03	1.586871E-15	2.395774E-17
5.691199E+03	1.579488E-15	2.382350E-17
5.696717E+03	1.569761E-15	2.365311E-17
5.702235E+03	1.559306E-15	2.347102E-17
5.707753E+03	1.548268E-15	2.327949E-17
5.713271E+03	1.538116E-15	2.310062E-17
5.718789E+03	1.528555E-15	2.292999E-17
5.724307E+03	1.519733E-15	2.276979E-17
5.729825E+03	1.511795E-15	2.262220E-17
5.735343E+03	1.505913E-15	2.250471E-17
5.740861E+03	1.503260E-15	2.243471E-17
5.746379E+03	1.503688E-15	2.240984E-17
5.751897E+03	1.508516E-15	2.244952E-17
5.757414E+03	1.518474E-15	2.256435E-17
5.762932E+03	1.531656E-15	2.272569E-17
5.768450E+03	1.548502E-15	2.293984E-17
5.773968E+03	1.570034E-15	2.322164E-17
5.779486E+03	1.596253E-15	2.357077E-17
5.785004E+03	1.625106E-15	2.395658E-17
5.790522E+03	1.658497E-15	2.440687E-17
5.796040E+03	1.696425E-15	2.492125E-17
5.801558E+03	1.737717E-15	2.548213E-17
5.807076E+03	1.782373E-15	2.608921E-17
5.812594E+03	1.829954E-15	2.673574E-17
5.818112E+03	1.877967E-15	2.738511E-17
5.823630E+03	1.925832E-15	2.802878E-17
5.829148E+03	1.972521E-15	2.865179E-17
5.834666E+03	2.017011E-15	2.923939E-17
5.840183E+03	2.058864E-15	2.978541E-17
5.845701E+03	2.098227E-15	3.029217E-17
5.851219E+03	2.132467E-15	3.072195E-17
5.856737E+03	2.160269E-15	3.105629E-17
5.862255E+03	2.179584E-15	3.126641E-17
5.867773E+03	2.190856E-15	3.135946E-17
5.873291E+03	2.193937E-15	3.133412E-17
5.878809E+03	2.191463E-15	3.122875E-17
5.884327E+03	2.185339E-15	3.107099E-17
5.889845E+03	2.176146E-15	3.086951E-17
5.895363E+03	2.164766E-15	3.063712E-17
5.900881E+03	2.151782E-15	3.038232E-17
5.906399E+03	2.137051E-15	3.010330E-17
5.911917E+03	2.120423E-15	2.979817E-17
