#wls	flux	fluxerr
1.600000E+03	8.966197E-17	1.088982E-17
1.640000E+03	9.138908E-17	1.103703E-17
1.680000E+03	9.327394E-17	1.119948E-17
1.720000E+03	9.532003E-17	1.137716E-17
1.760000E+03	9.753924E-17	1.157102E-17
1.800000E+03	9.993465E-17	1.178092E-17
1.840000E+03	1.025261E-16	1.200866E-17
1.880000E+03	1.053243E-16	1.225490E-17
1.920000E+03	1.083319E-16	1.251929E-17
1.960000E+03	1.115514E-16	1.280146E-17
2.000000E+03	1.149857E-16	1.310104E-17
2.040000E+03	1.186461E-16	1.341857E-17
2.080000E+03	1.225045E-16	1.375013E-17
2.120000E+03	1.265583E-16	1.409467E-17
2.160000E+03	1.307901E-16	1.444953E-17
2.200000E+03	1.351540E-16	1.480892E-17
2.240000E+03	1.396442E-16	1.517162E-17
2.280000E+03	1.442415E-16	1.553489E-17
2.320000E+03	1.489653E-16	1.590023E-17
2.360000E+03	1.538503E-16	1.627061E-17
2.400000E+03	1.589455E-16	1.665038E-17
2.440000E+03	1.643219E-16	1.704594E-17
2.480000E+03	1.700207E-16	1.746030E-17
2.520000E+03	1.761061E-16	1.789857E-17
2.560000E+03	1.826353E-16	1.836487E-17
2.600000E+03	1.896461E-16	1.886108E-17
2.640000E+03	1.971858E-16	1.938975E-17
2.680000E+03	2.052906E-16	1.995208E-17
2.720000E+03	2.140068E-16	2.055003E-17
2.760000E+03	2.233715E-16	2.118433E-17
2.800000E+03	2.334268E-16	2.185595E-17
2.840000E+03	2.442129E-16	2.256536E-17
2.880000E+03	2.558043E-16	2.331586E-17
2.920000E+03	2.682753E-16	2.411025E-17
2.960000E+03	2.817090E-16	2.495155E-17
3.000000E+03	2.962321E-16	2.584609E-17
3.010000E+03	3.000507E-16	2.607894E-17
3.020000E+03	3.039454E-16	2.631536E-17
3.030000E+03	3.079178E-16	2.655542E-17
3.040000E+03	3.119763E-16	2.679972E-17
3.050000E+03	3.161221E-16	2.704827E-17
3.060000E+03	3.203570E-16	2.730111E-17
3.070000E+03	3.246825E-16	2.755825E-17
3.080000E+03	3.291004E-16	2.781974E-17
3.090000E+03	3.336124E-16	2.808560E-17
3.100000E+03	3.382273E-16	2.835643E-17
3.110000E+03	3.429470E-16	2.863229E-17
3.120000E+03	3.477667E-16	2.891263E-17
3.130000E+03	3.527020E-16	2.919862E-17
3.140000E+03	3.577415E-16	2.948917E-17
3.150000E+03	3.628945E-16	2.978490E-17
3.160000E+03	3.681701E-16	3.008642E-17
3.170000E+03	3.735641E-16	3.039322E-17
3.180000E+03	3.790857E-16	3.070591E-17
3.190000E+03	3.847308E-16	3.102398E-17
3.200000E+03	3.905091E-16	3.134804E-17
3.210000E+03	3.964237E-16	3.167818E-17
3.220000E+03	4.024704E-16	3.201387E-17
3.230000E+03	4.086595E-16	3.235577E-17
3.240000E+03	4.149943E-16	3.270394E-17
3.250000E+03	4.214784E-16	3.305846E-17
3.260000E+03	4.281150E-16	3.341941E-17
3.270000E+03	4.349082E-16	3.378688E-17
3.280000E+03	4.418616E-16	3.416095E-17
3.290000E+03	4.489724E-16	3.454118E-17
3.300000E+03	4.562589E-16	3.492876E-17
3.310000E+03	4.637113E-16	3.532271E-17
3.320000E+03	4.713412E-16	3.572369E-17
3.330000E+03	4.791463E-16	3.613126E-17
3.340000E+03	4.871386E-16	3.654611E-17
3.350000E+03	4.953237E-16	3.696838E-17
3.360000E+03	5.036921E-16	3.739710E-17
3.370000E+03	5.122641E-16	3.783352E-17
3.380000E+03	5.210308E-16	3.827672E-17
3.390000E+03	5.300060E-16	3.872740E-17
3.400000E+03	5.391961E-16	3.918575E-17
3.410000E+03	5.485928E-16	3.965088E-17
3.420000E+03	5.582184E-16	4.012408E-17
3.430000E+03	5.680650E-16	4.060448E-17
3.440000E+03	5.781407E-16	4.109233E-17
3.450000E+03	5.884535E-16	4.158786E-17
3.460000E+03	5.990047E-16	4.209084E-17
3.470000E+03	6.098110E-16	4.260209E-17
3.480000E+03	6.208669E-16	4.312085E-17
3.490000E+03	6.321827E-16	4.364747E-17
3.500000E+03	6.437616E-16	4.418180E-17
3.510000E+03	6.556236E-16	4.472482E-17
3.520000E+03	6.677655E-16	4.527590E-17
3.530000E+03	6.801930E-16	4.583500E-17
3.540000E+03	6.929292E-16	4.640326E-17
3.550000E+03	7.059659E-16	4.697968E-17
3.560000E+03	7.193204E-16	4.756497E-17
3.570000E+03	7.330121E-16	4.815991E-17
3.580000E+03	7.470455E-16	4.876431E-17
3.590000E+03	7.614439E-16	4.937916E-17
3.600000E+03	7.762157E-16	5.000449E-17
3.610000E+03	7.913804E-16	5.064096E-17
3.620000E+03	8.069689E-16	5.128996E-17
3.630000E+03	8.229892E-16	5.195137E-17
3.640000E+03	8.394873E-16	5.262743E-17
3.650000E+03	8.564869E-16	5.331889E-17
3.660000E+03	8.740236E-16	5.402724E-17
3.670000E+03	8.921279E-16	5.475353E-17
3.680000E+03	9.108520E-16	5.550010E-17
3.690000E+03	9.302430E-16	5.626890E-17
3.700000E+03	9.503416E-16	5.706136E-17
3.710000E+03	9.712097E-16	5.788014E-17
3.720000E+03	9.929024E-16	5.872736E-17
3.730000E+03	1.015465E-15	5.960447E-17
3.740000E+03	1.038984E-15	6.051516E-17
3.750000E+03	1.063492E-15	6.145997E-17
3.760000E+03	1.089050E-15	6.244089E-17
3.770000E+03	1.115723E-15	6.346009E-17
3.780000E+03	1.143528E-15	6.451682E-17
3.790000E+03	1.172523E-15	6.561264E-17
3.800000E+03	1.202711E-15	6.674591E-17
3.810000E+03	1.234111E-15	6.791593E-17
3.820000E+03	1.266715E-15	6.912037E-17
3.830000E+03	1.300480E-15	7.035509E-17
3.840000E+03	1.335353E-15	7.161540E-17
3.850000E+03	1.371266E-15	7.289600E-17
3.860000E+03	1.408100E-15	7.418898E-17
3.870000E+03	1.445733E-15	7.548646E-17
3.880000E+03	1.483990E-15	7.677803E-17
3.890000E+03	1.522693E-15	7.805357E-17
3.900000E+03	1.561626E-15	7.930124E-17
3.910000E+03	1.600553E-15	8.050866E-17
3.920000E+03	1.639230E-15	8.166350E-17
3.930000E+03	1.677373E-15	8.275188E-17
3.940000E+03	1.714720E-15	8.376167E-17
3.950000E+03	1.751009E-15	8.468115E-17
3.960000E+03	1.785939E-15	8.549727E-17
3.970000E+03	1.819298E-15	8.620186E-17
3.980000E+03	1.850833E-15	8.678521E-17
3.990000E+03	1.880337E-15	8.724020E-17
4.000000E+03	1.907646E-15	8.756228E-17
4.010000E+03	1.932604E-15	8.774746E-17
4.020000E+03	1.955141E-15	8.779603E-17
4.030000E+03	1.975198E-15	8.770885E-17
4.040000E+03	1.992755E-15	8.748872E-17
4.050000E+03	2.007815E-15	8.713947E-17
4.060000E+03	2.020467E-15	8.666861E-17
4.070000E+03	2.030800E-15	8.608356E-17
4.080000E+03	2.038931E-15	8.539272E-17
4.090000E+03	2.044996E-15	8.460506E-17
4.100000E+03	2.049155E-15	8.373024E-17
4.110000E+03	2.051588E-15	8.277853E-17
4.120000E+03	2.052452E-15	8.175877E-17
4.130000E+03	2.051940E-15	8.068100E-17
4.140000E+03	2.050222E-15	7.955406E-17
4.150000E+03	2.047462E-15	7.838611E-17
4.160000E+03	2.043821E-15	7.718487E-17
4.170000E+03	2.039443E-15	7.595716E-17
4.180000E+03	2.034484E-15	7.470992E-17
4.190000E+03	2.029035E-15	7.344744E-17
4.200000E+03	2.023231E-15	7.217531E-17
4.210000E+03	2.017198E-15	7.089870E-17
4.220000E+03	2.011005E-15	6.962035E-17
4.230000E+03	2.004769E-15	6.834462E-17
4.240000E+03	1.998568E-15	6.707430E-17
4.250000E+03	1.992521E-15	6.581332E-17
4.260000E+03	1.986708E-15	6.456417E-17
4.270000E+03	1.981223E-15	6.332954E-17
4.280000E+03	1.976212E-15	6.211362E-17
4.290000E+03	1.971746E-15	6.091792E-17
4.300000E+03	1.967990E-15	5.974673E-17
4.310000E+03	1.965068E-15	5.860267E-17
4.320000E+03	1.963130E-15	5.748893E-17
4.330000E+03	1.962318E-15	5.640812E-17
4.340000E+03	1.962812E-15	5.536363E-17
4.350000E+03	1.964782E-15	5.435817E-17
4.360000E+03	1.968382E-15	5.339366E-17
4.370000E+03	1.973830E-15	5.247346E-17
4.380000E+03	1.981274E-15	5.159856E-17
4.390000E+03	1.990903E-15	5.077069E-17
4.400000E+03	2.002858E-15	4.999007E-17
4.410000E+03	2.017296E-15	4.925691E-17
4.420000E+03	2.034297E-15	4.856935E-17
4.430000E+03	2.053986E-15	4.792641E-17
4.440000E+03	2.076399E-15	4.732486E-17
4.450000E+03	2.101536E-15	4.676064E-17
4.460000E+03	2.129407E-15	4.622994E-17
4.470000E+03	2.159921E-15	4.572684E-17
4.480000E+03	2.192954E-15	4.524508E-17
4.490000E+03	2.228328E-15	4.477762E-17
4.500000E+03	2.265806E-15	4.431677E-17
4.510000E+03	2.305074E-15	4.385399E-17
4.520000E+03	2.345802E-15	4.338130E-17
4.530000E+03	2.387580E-15	4.289007E-17
4.540000E+03	2.429926E-15	4.237153E-17
4.550000E+03	2.472309E-15	4.181723E-17
4.560000E+03	2.514203E-15	4.122018E-17
4.570000E+03	2.555031E-15	4.057383E-17
4.580000E+03	2.594149E-15	3.987210E-17
4.590000E+03	2.631004E-15	3.911183E-17
4.600000E+03	2.664932E-15	3.828962E-17
4.610000E+03	2.695387E-15	3.740536E-17
4.620000E+03	2.721844E-15	3.646052E-17
4.630000E+03	2.743800E-15	3.545824E-17
4.640000E+03	2.760847E-15	3.440397E-17
4.650000E+03	2.772600E-15	3.330454E-17
4.660000E+03	2.778867E-15	3.216987E-17
4.670000E+03	2.779409E-15	3.100990E-17
4.680000E+03	2.774186E-15	2.983720E-17
4.690000E+03	2.763195E-15	2.866480E-17
4.700000E+03	2.746543E-15	2.750671E-17
4.710000E+03	2.724357E-15	2.637664E-17
4.720000E+03	2.696881E-15	2.528872E-17
4.730000E+03	2.664357E-15	2.425590E-17
4.740000E+03	2.627139E-15	2.329070E-17
4.750000E+03	2.585494E-15	2.240296E-17
4.760000E+03	2.539774E-15	2.160100E-17
4.770000E+03	2.490290E-15	2.089020E-17
4.780000E+03	2.437307E-15	2.027261E-17
4.790000E+03	2.381101E-15	1.974702E-17
4.800000E+03	2.321891E-15	1.930660E-17
4.810000E+03	2.260039E-15	1.894252E-17
4.820000E+03	2.196463E-15	1.864899E-17
4.830000E+03	2.132531E-15	1.842334E-17
4.840000E+03	2.069506E-15	1.826255E-17
4.850000E+03	2.008498E-15	1.816358E-17
4.860000E+03	1.950287E-15	1.812220E-17
4.870000E+03	1.895523E-15	1.813507E-17
4.880000E+03	1.844551E-15	1.819809E-17
4.890000E+03	1.797541E-15	1.830734E-17
4.900000E+03	1.754473E-15	1.845862E-17
4.910000E+03	1.715301E-15	1.864880E-17
4.920000E+03	1.679909E-15	1.887504E-17
4.930000E+03	1.648134E-15	1.913486E-17
4.940000E+03	1.619828E-15	1.942658E-17
4.950000E+03	1.594803E-15	1.974852E-17
4.960000E+03	1.572899E-15	2.009970E-17
4.970000E+03	1.553918E-15	2.047887E-17
4.980000E+03	1.537733E-15	2.088582E-17
4.990000E+03	1.524165E-15	2.131981E-17
5.000000E+03	1.513094E-15	2.178083E-17
5.010000E+03	1.504384E-15	2.226873E-17
5.020000E+03	1.497943E-15	2.278392E-17
5.030000E+03	1.493669E-15	2.332672E-17
5.040000E+03	1.491451E-15	2.389714E-17
5.050000E+03	1.491222E-15	2.449590E-17
5.060000E+03	1.492913E-15	2.512359E-17
5.070000E+03	1.496459E-15	2.578081E-17
5.080000E+03	1.501767E-15	2.646760E-17
5.090000E+03	1.508807E-15	2.718497E-17
5.100000E+03	1.517516E-15	2.793335E-17
5.110000E+03	1.527786E-15	2.871214E-17
5.120000E+03	1.539594E-15	2.952225E-17
5.130000E+03	1.552837E-15	3.036296E-17
5.140000E+03	1.567433E-15	3.123381E-17
5.150000E+03	1.583292E-15	3.213401E-17
5.160000E+03	1.600299E-15	3.306213E-17
5.170000E+03	1.618360E-15	3.401698E-17
5.180000E+03	1.637335E-15	3.499624E-17
5.190000E+03	1.657092E-15	3.599750E-17
5.200000E+03	1.677483E-15	3.701785E-17
5.210000E+03	1.698315E-15	3.805316E-17
5.220000E+03	1.719452E-15	3.910027E-17
5.230000E+03	1.740700E-15	4.015454E-17
5.240000E+03	1.761853E-15	4.121078E-17
5.250000E+03	1.782721E-15	4.226393E-17
5.260000E+03	1.803110E-15	4.330862E-17
5.270000E+03	1.822814E-15	4.433891E-17
5.280000E+03	1.841669E-15	4.534972E-17
5.290000E+03	1.859462E-15	4.633458E-17
5.300000E+03	1.876054E-15	4.728864E-17
5.310000E+03	1.891265E-15	4.820594E-17
5.320000E+03	1.904992E-15	4.908235E-17
5.330000E+03	1.917118E-15	4.991324E-17
5.340000E+03	1.927566E-15	5.069509E-17
5.350000E+03	1.936290E-15	5.142507E-17
5.360000E+03	1.943221E-15	5.209985E-17
5.370000E+03	1.948380E-15	5.271847E-17
5.380000E+03	1.951769E-15	5.327955E-17
5.390000E+03	1.953427E-15	5.378283E-17
5.400000E+03	1.953376E-15	5.422766E-17
5.410000E+03	1.951731E-15	5.461607E-17
5.420000E+03	1.948520E-15	5.494786E-17
5.430000E+03	1.943843E-15	5.522488E-17
5.440000E+03	1.937809E-15	5.544943E-17
5.450000E+03	1.930435E-15	5.562132E-17
5.460000E+03	1.921748E-15	5.574067E-17
5.470000E+03	1.911779E-15	5.580783E-17
5.480000E+03	1.900736E-15	5.582836E-17
5.490000E+03	1.888810E-15	5.580760E-17
5.500000E+03	1.876157E-15	5.574992E-17
5.510000E+03	1.862928E-15	5.565981E-17
5.520000E+03	1.849281E-15	5.554192E-17
5.530000E+03	1.835334E-15	5.539999E-17
5.540000E+03	1.821281E-15	5.524000E-17
5.550000E+03	1.807239E-15	5.506582E-17
5.560000E+03	1.793344E-15	5.488192E-17
5.570000E+03	1.779767E-15	5.469387E-17
5.580000E+03	1.766622E-15	5.450563E-17
5.590000E+03	1.754055E-15	5.432217E-17
5.600000E+03	1.742205E-15	5.414832E-17
5.610000E+03	1.731191E-15	5.398830E-17
5.620000E+03	1.721142E-15	5.384664E-17
5.630000E+03	1.712161E-15	5.372713E-17
5.640000E+03	1.704342E-15	5.363325E-17
5.650000E+03	1.697787E-15	5.356873E-17
5.660000E+03	1.692548E-15	5.353576E-17
5.670000E+03	1.688739E-15	5.353844E-17
5.680000E+03	1.686370E-15	5.357753E-17
5.690000E+03	1.685505E-15	5.365551E-17
5.700000E+03	1.686159E-15	5.377326E-17
5.710000E+03	1.688308E-15	5.393036E-17
5.720000E+03	1.691964E-15	5.412753E-17
5.730000E+03	1.697067E-15	5.436311E-17
5.740000E+03	1.703570E-15	5.463581E-17
5.750000E+03	1.711387E-15	5.494307E-17
5.760000E+03	1.720431E-15	5.528223E-17
5.770000E+03	1.730556E-15	5.564870E-17
5.780000E+03	1.741650E-15	5.603898E-17
5.790000E+03	1.753512E-15	5.644662E-17
5.800000E+03	1.765978E-15	5.686639E-17
5.810000E+03	1.778872E-15	5.729258E-17
5.820000E+03	1.791991E-15	5.771869E-17
5.830000E+03	1.805103E-15	5.813726E-17
5.840000E+03	1.818016E-15	5.854209E-17
5.850000E+03	1.830544E-15	5.892718E-17
5.860000E+03	1.842443E-15	5.928481E-17
5.870000E+03	1.853548E-15	5.960965E-17
5.880000E+03	1.863704E-15	5.989691E-17
5.890000E+03	1.872721E-15	6.014057E-17
5.900000E+03	1.880507E-15	6.033791E-17
5.910000E+03	1.886959E-15	6.048582E-17
5.920000E+03	1.891953E-15	6.058067E-17
5.930000E+03	1.895456E-15	6.062166E-17
5.940000E+03	1.897459E-15	6.060889E-17
5.950000E+03	1.897912E-15	6.054115E-17
5.960000E+03	1.896853E-15	6.042008E-17
5.970000E+03	1.894314E-15	6.024716E-17
5.980000E+03	1.890329E-15	6.002393E-17
5.990000E+03	1.884963E-15	5.975296E-17
6.000000E+03	1.878296E-15	5.943728E-17
6.010000E+03	1.870398E-15	5.907962E-17
6.020000E+03	1.861388E-15	5.868425E-17
6.030000E+03	1.851353E-15	5.825442E-17
6.040000E+03	1.840406E-15	5.779420E-17
6.050000E+03	1.828624E-15	5.730646E-17
6.060000E+03	1.816178E-15	5.679703E-17
6.070000E+03	1.803134E-15	5.626847E-17
6.080000E+03	1.789677E-15	5.572694E-17
6.090000E+03	1.775891E-15	5.517547E-17
6.100000E+03	1.761976E-15	5.462064E-17
6.110000E+03	1.748035E-15	5.406593E-17
6.120000E+03	1.734262E-15	5.351772E-17
6.130000E+03	1.720845E-15	5.298196E-17
6.140000E+03	1.707952E-15	5.246413E-17
6.150000E+03	1.695763E-15	5.196984E-17
6.160000E+03	1.684500E-15	5.150606E-17
6.170000E+03	1.674367E-15	5.107907E-17
6.180000E+03	1.665565E-15	5.069500E-17
6.190000E+03	1.658286E-15	5.035975E-17
6.200000E+03	1.652756E-15	5.008004E-17
6.210000E+03	1.649162E-15	4.986151E-17
6.220000E+03	1.647606E-15	4.970706E-17
6.230000E+03	1.648246E-15	4.962140E-17
6.240000E+03	1.651145E-15	4.960625E-17
6.250000E+03	1.656351E-15	4.966294E-17
6.260000E+03	1.663923E-15	4.979298E-17
6.270000E+03	1.673838E-15	4.999548E-17
6.280000E+03	1.686064E-15	5.026923E-17
6.290000E+03	1.700511E-15	5.061137E-17
6.300000E+03	1.717054E-15	5.101803E-17
6.310000E+03	1.735602E-15	5.148643E-17
6.320000E+03	1.755917E-15	5.200947E-17
6.330000E+03	1.777825E-15	5.258204E-17
6.340000E+03	1.801054E-15	5.319611E-17
6.350000E+03	1.825381E-15	5.384527E-17
6.360000E+03	1.850494E-15	5.452050E-17
6.370000E+03	1.876119E-15	5.521393E-17
6.380000E+03	1.901975E-15	5.591762E-17
6.390000E+03	1.927705E-15	5.662133E-17
6.400000E+03	1.953065E-15	5.731826E-17
6.410000E+03	1.977769E-15	5.800038E-17
6.420000E+03	2.001555E-15	5.866038E-17
6.430000E+03	2.024211E-15	5.929240E-17
6.440000E+03	2.045567E-15	5.989188E-17
6.450000E+03	2.065517E-15	6.045603E-17
6.460000E+03	2.084005E-15	6.098359E-17
6.470000E+03	2.101028E-15	6.147469E-17
6.480000E+03	2.116647E-15	6.193127E-17
6.490000E+03	2.130858E-15	6.235305E-17
6.500000E+03	2.143804E-15	6.274396E-17
6.510000E+03	2.155575E-15	6.310652E-17
6.520000E+03	2.166275E-15	6.344342E-17
6.530000E+03	2.176000E-15	6.375733E-17
6.540000E+03	2.184852E-15	6.405087E-17
6.550000E+03	2.192948E-15	6.432723E-17
6.560000E+03	2.200330E-15	6.458733E-17
6.570000E+03	2.207091E-15	6.483358E-17
6.580000E+03	2.213270E-15	6.506683E-17
6.590000E+03	2.218850E-15	6.528629E-17
6.600000E+03	2.223872E-15	6.549282E-17
6.610000E+03	2.228319E-15	6.568562E-17
6.620000E+03	2.232163E-15	6.586351E-17
6.630000E+03	2.235362E-15	6.602497E-17
6.640000E+03	2.237871E-15	6.616828E-17
6.650000E+03	2.239634E-15	6.629148E-17
6.660000E+03	2.240564E-15	6.639166E-17
6.670000E+03	2.240649E-15	6.646812E-17
6.680000E+03	2.239812E-15	6.651822E-17
6.690000E+03	2.238062E-15	6.654188E-17
6.700000E+03	2.235383E-15	6.653829E-17
6.710000E+03	2.231738E-15	6.650599E-17
6.720000E+03	2.227142E-15	6.644513E-17
6.730000E+03	2.221667E-15	6.635753E-17
6.740000E+03	2.215286E-15	6.624208E-17
6.750000E+03	2.208146E-15	6.610289E-17
6.760000E+03	2.200288E-15	6.594093E-17
6.770000E+03	2.191770E-15	6.575766E-17
6.780000E+03	2.182739E-15	6.555725E-17
6.790000E+03	2.173309E-15	6.534300E-17
6.800000E+03	2.163567E-15	6.511725E-17
6.810000E+03	2.153679E-15	6.488490E-17
6.820000E+03	2.143735E-15	6.464850E-17
6.830000E+03	2.133903E-15	6.441303E-17
6.840000E+03	2.124229E-15	6.417978E-17
6.850000E+03	2.114912E-15	6.395464E-17
6.860000E+03	2.105984E-15	6.373861E-17
6.870000E+03	2.097624E-15	6.353698E-17
6.880000E+03	2.089840E-15	6.335004E-17
6.890000E+03	2.082748E-15	6.318124E-17
6.900000E+03	2.076364E-15	6.303108E-17
6.910000E+03	2.070768E-15	6.290196E-17
6.920000E+03	2.065944E-15	6.279347E-17
6.930000E+03	2.061937E-15	6.270690E-17
6.940000E+03	2.058651E-15	6.263941E-17
6.950000E+03	2.056135E-15	6.259243E-17
6.960000E+03	2.054298E-15	6.256329E-17
6.970000E+03	2.053038E-15	6.254882E-17
6.980000E+03	2.052353E-15	6.254900E-17
6.990000E+03	2.052074E-15	6.255866E-17
7.000000E+03	2.052138E-15	6.257596E-17
7.010000E+03	2.052402E-15	6.259647E-17
7.020000E+03	2.052794E-15	6.261808E-17
7.030000E+03	2.053168E-15	6.263632E-17
7.040000E+03	2.053457E-15	6.264920E-17
7.050000E+03	2.053486E-15	6.265139E-17
7.060000E+03	2.053244E-15	6.264264E-17
7.070000E+03	2.052581E-15	6.261837E-17
7.080000E+03	2.051515E-15	6.257924E-17
7.090000E+03	2.049923E-15	6.252158E-17
7.100000E+03	2.047821E-15	6.244594E-17
7.110000E+03	2.045162E-15	6.235101E-17
7.120000E+03	2.041997E-15	6.223844E-17
7.130000E+03	2.038355E-15	6.210923E-17
7.140000E+03	2.034195E-15	6.196231E-17
7.150000E+03	2.029657E-15	6.180200E-17
7.160000E+03	2.024807E-15	6.163052E-17
7.170000E+03	2.019639E-15	6.144780E-17
7.180000E+03	2.014274E-15	6.125770E-17
7.190000E+03	2.008795E-15	6.106287E-17
7.200000E+03	2.003243E-15	6.086476E-17
7.210000E+03	1.997781E-15	6.066847E-17
7.220000E+03	1.992402E-15	6.047392E-17
7.230000E+03	1.987173E-15	6.028335E-17
7.240000E+03	1.982196E-15	6.009998E-17
7.250000E+03	1.977435E-15	5.992293E-17
7.260000E+03	1.973013E-15	5.975606E-17
7.270000E+03	1.968912E-15	5.959904E-17
7.280000E+03	1.965149E-15	5.945249E-17
7.290000E+03	1.961682E-15	5.931540E-17
7.300000E+03	1.958503E-15	5.918761E-17
7.310000E+03	1.955630E-15	5.906994E-17
7.320000E+03	1.952992E-15	5.896041E-17
7.330000E+03	1.950507E-15	5.885673E-17
7.340000E+03	1.948127E-15	5.875766E-17
7.350000E+03	1.945798E-15	5.866176E-17
7.360000E+03	1.943460E-15	5.856748E-17
7.370000E+03	1.941012E-15	5.847198E-17
7.380000E+03	1.938351E-15	5.837234E-17
7.390000E+03	1.935415E-15	5.826699E-17
7.400000E+03	1.932064E-15	5.815187E-17
7.410000E+03	1.928326E-15	5.802809E-17
7.420000E+03	1.924032E-15	5.789077E-17
7.430000E+03	1.919140E-15	5.773888E-17
7.440000E+03	1.913665E-15	5.757302E-17
7.450000E+03	1.907628E-15	5.739406E-17
7.460000E+03	1.900979E-15	5.720072E-17
7.470000E+03	1.893807E-15	5.699577E-17
7.480000E+03	1.886131E-15	5.677996E-17
7.490000E+03	1.878063E-15	5.655687E-17
7.500000E+03	1.869607E-15	5.632665E-17
7.510000E+03	1.860900E-15	5.609336E-17
7.520000E+03	1.852010E-15	5.585869E-17
7.530000E+03	1.843013E-15	5.562463E-17
7.540000E+03	1.834036E-15	5.539470E-17
7.550000E+03	1.825125E-15	5.517003E-17
7.560000E+03	1.816439E-15	5.495510E-17
7.570000E+03	1.807999E-15	5.475030E-17
7.580000E+03	1.799871E-15	5.455735E-17
7.590000E+03	1.792157E-15	5.437909E-17
7.600000E+03	1.784919E-15	5.421720E-17
7.610000E+03	1.778217E-15	5.407323E-17
7.620000E+03	1.772065E-15	5.394747E-17
7.630000E+03	1.766594E-15	5.384366E-17
7.640000E+03	1.761765E-15	5.376043E-17
7.650000E+03	1.757688E-15	5.370102E-17
7.660000E+03	1.754305E-15	5.366347E-17
7.670000E+03	1.751705E-15	5.365039E-17
7.680000E+03	1.749804E-15	5.365904E-17
7.690000E+03	1.748667E-15	5.369129E-17
7.700000E+03	1.748223E-15	5.374482E-17
7.710000E+03	1.748431E-15	5.381825E-17
7.720000E+03	1.749191E-15	5.390841E-17
7.730000E+03	1.750519E-15	5.401558E-17
7.740000E+03	1.752291E-15	5.413588E-17
7.750000E+03	1.754417E-15	5.426635E-17
7.760000E+03	1.756753E-15	5.440236E-17
