#wls	flux	fluxerr
1.600000E+03	2.908536E-17	1.149472E-18
1.640000E+03	2.890304E-17	1.138162E-18
1.680000E+03	2.873339E-17	1.127297E-18
1.720000E+03	2.858479E-17	1.117197E-18
1.760000E+03	2.845257E-17	1.107671E-18
1.800000E+03	2.834474E-17	1.099022E-18
1.840000E+03	2.826078E-17	1.091216E-18
1.880000E+03	2.820818E-17	1.084529E-18
1.920000E+03	2.818225E-17	1.078765E-18
1.960000E+03	2.819415E-17	1.074332E-18
2.000000E+03	2.824679E-17	1.071320E-18
2.040000E+03	2.834679E-17	1.069953E-18
2.080000E+03	2.850045E-17	1.070438E-18
2.120000E+03	2.870646E-17	1.072693E-18
2.160000E+03	2.897826E-17	1.077181E-18
2.200000E+03	2.931791E-17	1.083934E-18
2.240000E+03	2.972755E-17	1.092982E-18
2.280000E+03	3.021639E-17	1.104612E-18
2.320000E+03	3.078303E-17	1.118711E-18
2.360000E+03	3.143324E-17	1.135428E-18
2.400000E+03	3.216606E-17	1.154660E-18
2.440000E+03	3.298762E-17	1.176556E-18
2.480000E+03	3.390086E-17	1.201144E-18
2.520000E+03	3.490249E-17	1.228226E-18
2.560000E+03	3.599634E-17	1.257852E-18
2.600000E+03	3.718669E-17	1.290082E-18
2.640000E+03	3.848149E-17	1.325095E-18
2.680000E+03	3.987961E-17	1.362745E-18
2.720000E+03	4.139019E-17	1.403236E-18
2.760000E+03	4.301991E-17	1.446671E-18
2.800000E+03	4.477619E-17	1.493168E-18
2.840000E+03	4.666116E-17	1.542657E-18
2.880000E+03	4.868117E-17	1.595197E-18
2.920000E+03	5.084995E-17	1.651078E-18
2.960000E+03	5.318248E-17	1.710605E-18
3.000000E+03	5.570761E-17	1.774501E-18
3.010000E+03	5.637384E-17	1.791285E-18
3.020000E+03	5.705382E-17	1.808378E-18
3.030000E+03	5.774778E-17	1.825782E-18
3.040000E+03	5.845904E-17	1.843599E-18
3.050000E+03	5.918473E-17	1.861733E-18
3.060000E+03	5.993132E-17	1.880382E-18
3.070000E+03	6.069284E-17	1.899355E-18
3.080000E+03	6.147267E-17	1.918750E-18
3.090000E+03	6.227420E-17	1.938670E-18
3.100000E+03	6.309461E-17	1.959020E-18
3.110000E+03	6.393733E-17	1.979900E-18
3.120000E+03	6.480268E-17	2.001314E-18
3.130000E+03	6.569099E-17	2.023266E-18
3.140000E+03	6.659949E-17	2.045663E-18
3.150000E+03	6.753796E-17	2.068798E-18
3.160000E+03	6.850049E-17	2.092483E-18
3.170000E+03	6.949064E-17	2.116819E-18
3.180000E+03	7.050885E-17	2.141810E-18
3.190000E+03	7.155871E-17	2.167558E-18
3.200000E+03	7.263754E-17	2.193971E-18
3.210000E+03	7.374899E-17	2.221151E-18
3.220000E+03	7.489358E-17	2.249104E-18
3.230000E+03	7.607186E-17	2.277836E-18
3.240000E+03	7.728756E-17	2.307448E-18
3.250000E+03	7.854131E-17	2.337947E-18
3.260000E+03	7.983693E-17	2.369436E-18
3.270000E+03	8.117189E-17	2.401826E-18
3.280000E+03	8.255010E-17	2.435221E-18
3.290000E+03	8.397228E-17	2.469630E-18
3.300000E+03	8.544242E-17	2.505154E-18
3.310000E+03	8.695812E-17	2.541710E-18
3.320000E+03	8.852668E-17	2.579496E-18
3.330000E+03	9.014901E-17	2.618522E-18
3.340000E+03	9.182279E-17	2.658705E-18
3.350000E+03	9.355554E-17	2.700244E-18
3.360000E+03	9.534496E-17	2.743056E-18
3.370000E+03	9.719874E-17	2.787343E-18
3.380000E+03	9.911475E-17	2.833024E-18
3.390000E+03	1.010940E-16	2.880110E-18
3.400000E+03	1.031445E-16	2.928805E-18
3.410000E+03	1.052642E-16	2.979029E-18
3.420000E+03	1.074577E-16	3.030891E-18
3.430000E+03	1.097265E-16	3.084409E-18
3.440000E+03	1.120718E-16	3.139595E-18
3.450000E+03	1.144952E-16	3.196465E-18
3.460000E+03	1.170016E-16	3.255133E-18
3.470000E+03	1.195891E-16	3.315518E-18
3.480000E+03	1.222629E-16	3.377736E-18
3.490000E+03	1.250210E-16	3.441704E-18
3.500000E+03	1.278651E-16	3.507442E-18
3.510000E+03	1.307933E-16	3.574870E-18
3.520000E+03	1.338107E-16	3.644100E-18
3.530000E+03	1.369121E-16	3.714957E-18
3.540000E+03	1.400990E-16	3.787454E-18
3.550000E+03	1.433693E-16	3.861508E-18
3.560000E+03	1.467212E-16	3.937040E-18
3.570000E+03	1.501597E-16	4.014156E-18
3.580000E+03	1.536717E-16	4.092479E-18
3.590000E+03	1.572622E-16	4.172113E-18
3.600000E+03	1.609288E-16	4.252969E-18
3.610000E+03	1.646653E-16	4.334854E-18
3.620000E+03	1.684691E-16	4.417676E-18
3.630000E+03	1.723372E-16	4.501332E-18
3.640000E+03	1.762742E-16	4.585918E-18
3.650000E+03	1.802733E-16	4.671233E-18
3.660000E+03	1.843350E-16	4.757263E-18
3.670000E+03	1.884597E-16	4.844002E-18
3.680000E+03	1.926440E-16	4.931332E-18
3.690000E+03	1.968919E-16	5.019335E-18
3.700000E+03	2.011955E-16	5.107789E-18
3.710000E+03	2.055588E-16	5.196769E-18
3.720000E+03	2.099776E-16	5.286147E-18
3.730000E+03	2.144514E-16	5.375892E-18
3.740000E+03	2.189796E-16	5.465964E-18
3.750000E+03	2.235574E-16	5.556226E-18
3.760000E+03	2.281880E-16	5.646733E-18
3.770000E+03	2.328662E-16	5.737339E-18
3.780000E+03	2.375866E-16	5.827891E-18
3.790000E+03	2.423517E-16	5.918435E-18
3.800000E+03	2.471601E-16	6.008913E-18
3.810000E+03	2.520013E-16	6.099059E-18
3.820000E+03	2.568776E-16	6.188914E-18
3.830000E+03	2.617867E-16	6.278403E-18
3.840000E+03	2.667220E-16	6.367358E-18
3.850000E+03	2.716809E-16	6.455705E-18
3.860000E+03	2.766605E-16	6.543363E-18
3.870000E+03	2.816538E-16	6.630157E-18
3.880000E+03	2.866574E-16	6.716001E-18
3.890000E+03	2.916726E-16	6.800922E-18
3.900000E+03	2.966918E-16	6.884731E-18
3.910000E+03	3.017070E-16	6.967244E-18
3.920000E+03	3.067190E-16	7.048478E-18
3.930000E+03	3.117199E-16	7.128249E-18
3.940000E+03	3.167059E-16	7.206473E-18
3.950000E+03	3.216732E-16	7.283071E-18
3.960000E+03	3.266181E-16	7.357960E-18
3.970000E+03	3.315323E-16	7.430960E-18
3.980000E+03	3.364119E-16	7.501996E-18
3.990000E+03	3.412579E-16	7.571100E-18
4.000000E+03	3.460619E-16	7.638097E-18
4.010000E+03	3.508156E-16	7.702819E-18
4.020000E+03	3.555200E-16	7.765307E-18
4.030000E+03	3.601719E-16	7.825504E-18
4.040000E+03	3.647630E-16	7.883254E-18
4.050000E+03	3.692854E-16	7.938405E-18
4.060000E+03	3.737454E-16	7.991120E-18
4.070000E+03	3.781355E-16	8.041257E-18
4.080000E+03	3.824479E-16	8.088682E-18
4.090000E+03	3.866800E-16	8.133367E-18
4.100000E+03	3.908293E-16	8.175288E-18
4.110000E+03	3.948984E-16	8.214534E-18
4.120000E+03	3.988755E-16	8.250887E-18
4.130000E+03	4.027585E-16	8.284342E-18
4.140000E+03	4.065457E-16	8.314898E-18
4.150000E+03	4.102404E-16	8.342662E-18
4.160000E+03	4.138313E-16	8.367439E-18
4.170000E+03	4.173170E-16	8.389245E-18
4.180000E+03	4.207015E-16	8.408198E-18
4.190000E+03	4.239738E-16	8.424120E-18
4.200000E+03	4.271332E-16	8.437041E-18
4.210000E+03	4.301838E-16	8.447090E-18
4.220000E+03	4.331151E-16	8.454102E-18
4.230000E+03	4.359267E-16	8.458119E-18
4.240000E+03	4.386180E-16	8.459180E-18
4.250000E+03	4.411890E-16	8.457328E-18
4.260000E+03	4.436343E-16	8.452515E-18
4.270000E+03	4.459488E-16	8.444692E-18
4.280000E+03	4.481376E-16	8.434011E-18
4.290000E+03	4.501955E-16	8.420424E-18
4.300000E+03	4.521227E-16	8.403990E-18
4.310000E+03	4.539142E-16	8.384671E-18
4.320000E+03	4.555754E-16	8.362620E-18
4.330000E+03	4.571013E-16	8.337804E-18
4.340000E+03	4.584923E-16	8.310283E-18
4.350000E+03	4.597537E-16	8.280210E-18
4.360000E+03	4.608860E-16	8.247649E-18
4.370000E+03	4.618897E-16	8.212662E-18
4.380000E+03	4.627703E-16	8.175402E-18
4.390000E+03	4.635336E-16	8.136022E-18
4.400000E+03	4.641852E-16	8.094673E-18
4.410000E+03	4.647410E-16	8.051677E-18
4.420000E+03	4.652070E-16	8.007182E-18
4.430000E+03	4.655893E-16	7.961334E-18
4.440000E+03	4.658991E-16	7.914362E-18
4.450000E+03	4.661429E-16	7.866414E-18
4.460000E+03	4.663225E-16	7.817552E-18
4.470000E+03	4.664546E-16	7.768089E-18
4.480000E+03	4.665366E-16	7.718011E-18
4.490000E+03	4.665813E-16	7.667555E-18
4.500000E+03	4.665867E-16	7.616714E-18
4.510000E+03	4.665662E-16	7.565733E-18
4.520000E+03	4.665140E-16	7.514540E-18
4.530000E+03	4.664448E-16	7.463392E-18
4.540000E+03	4.663636E-16	7.412389E-18
4.550000E+03	4.662666E-16	7.361490E-18
4.560000E+03	4.661703E-16	7.310971E-18
4.570000E+03	4.660722E-16	7.260808E-18
4.580000E+03	4.659854E-16	7.211221E-18
4.590000E+03	4.659093E-16	7.162210E-18
4.600000E+03	4.658587E-16	7.114013E-18
4.610000E+03	4.658347E-16	7.066657E-18
4.620000E+03	4.658444E-16	7.020255E-18
4.630000E+03	4.658957E-16	6.974935E-18
4.640000E+03	4.660026E-16	6.930904E-18
4.650000E+03	4.661652E-16	6.888171E-18
4.660000E+03	4.663993E-16	6.846965E-18
4.670000E+03	4.667073E-16	6.807322E-18
4.680000E+03	4.671019E-16	6.769421E-18
4.690000E+03	4.675917E-16	6.733383E-18
4.700000E+03	4.681907E-16	6.699404E-18
4.710000E+03	4.689040E-16	6.667544E-18
4.720000E+03	4.697509E-16	6.638067E-18
4.730000E+03	4.707501E-16	6.611226E-18
4.740000E+03	4.719109E-16	6.587130E-18
4.750000E+03	4.732737E-16	6.566326E-18
4.760000E+03	4.748490E-16	6.548932E-18
4.770000E+03	4.766683E-16	6.535354E-18
4.780000E+03	4.787400E-16	6.525676E-18
4.790000E+03	4.810819E-16	6.520108E-18
4.800000E+03	4.837009E-16	6.518713E-18
4.810000E+03	4.865870E-16	6.521327E-18
4.820000E+03	4.897326E-16	6.527823E-18
4.830000E+03	4.931174E-16	6.537912E-18
4.840000E+03	4.967146E-16	6.551230E-18
4.850000E+03	5.004884E-16	6.567303E-18
4.860000E+03	5.044070E-16	6.585721E-18
4.870000E+03	5.084374E-16	6.606071E-18
4.880000E+03	5.125600E-16	6.628121E-18
4.890000E+03	5.167650E-16	6.651773E-18
4.900000E+03	5.210352E-16	6.676837E-18
4.910000E+03	5.253799E-16	6.703467E-18
4.920000E+03	5.298008E-16	6.731718E-18
4.930000E+03	5.342956E-16	6.761595E-18
4.940000E+03	5.388729E-16	6.793241E-18
4.950000E+03	5.435300E-16	6.826660E-18
4.960000E+03	5.482748E-16	6.861987E-18
4.970000E+03	5.531093E-16	6.899270E-18
4.980000E+03	5.580292E-16	6.938457E-18
4.990000E+03	5.630410E-16	6.979622E-18
5.000000E+03	5.681394E-16	7.022697E-18
5.010000E+03	5.733297E-16	7.067741E-18
5.020000E+03	5.786115E-16	7.114745E-18
5.030000E+03	5.839722E-16	7.163546E-18
5.040000E+03	5.894219E-16	7.214262E-18
5.050000E+03	5.949529E-16	7.266792E-18
5.060000E+03	6.005691E-16	7.321175E-18
5.070000E+03	6.062558E-16	7.377224E-18
5.080000E+03	6.120222E-16	7.435044E-18
5.090000E+03	6.178592E-16	7.494512E-18
5.100000E+03	6.237571E-16	7.555502E-18
5.110000E+03	6.297245E-16	7.618109E-18
5.120000E+03	6.357450E-16	7.682118E-18
5.130000E+03	6.418205E-16	7.747545E-18
5.140000E+03	6.479467E-16	7.814324E-18
5.150000E+03	6.541123E-16	7.882304E-18
5.160000E+03	6.603191E-16	7.951492E-18
5.170000E+03	6.665554E-16	8.021732E-18
5.180000E+03	6.728228E-16	8.093028E-18
5.190000E+03	6.791093E-16	8.165217E-18
5.200000E+03	6.854096E-16	8.238218E-18
5.210000E+03	6.917182E-16	8.311946E-18
5.220000E+03	6.980296E-16	8.386315E-18
5.230000E+03	7.043315E-16	8.461156E-18
5.240000E+03	7.106323E-16	8.536548E-18
5.250000E+03	7.169127E-16	8.612237E-18
5.260000E+03	7.231672E-16	8.688133E-18
5.270000E+03	7.293979E-16	8.764238E-18
5.280000E+03	7.355925E-16	8.840376E-18
5.290000E+03	7.417459E-16	8.916463E-18
5.300000E+03	7.478535E-16	8.992417E-18
5.310000E+03	7.539034E-16	9.068063E-18
5.320000E+03	7.598987E-16	9.143414E-18
5.330000E+03	7.658354E-16	9.218393E-18
5.340000E+03	7.716947E-16	9.292742E-18
5.350000E+03	7.774806E-16	9.366480E-18
5.360000E+03	7.831899E-16	9.439540E-18
5.370000E+03	7.888202E-16	9.511859E-18
5.380000E+03	7.943528E-16	9.583184E-18
5.390000E+03	7.998017E-16	9.653650E-18
5.400000E+03	8.051573E-16	9.723110E-18
5.410000E+03	8.104099E-16	9.791415E-18
5.420000E+03	8.155585E-16	9.858523E-18
5.430000E+03	8.206106E-16	9.924491E-18
5.440000E+03	8.255576E-16	9.989185E-18
5.450000E+03	8.303913E-16	1.005247E-17
5.460000E+03	8.351288E-16	1.011453E-17
5.470000E+03	8.397538E-16	1.017513E-17
5.480000E+03	8.442845E-16	1.023447E-17
5.490000E+03	8.487051E-16	1.029232E-17
5.500000E+03	8.530260E-16	1.034877E-17
5.510000E+03	8.572488E-16	1.040382E-17
5.520000E+03	8.613585E-16	1.045727E-17
5.530000E+03	8.653745E-16	1.050930E-17
5.540000E+03	8.692994E-16	1.055994E-17
5.550000E+03	8.731271E-16	1.060909E-17
5.560000E+03	8.768691E-16	1.065684E-17
5.570000E+03	8.805195E-16	1.070312E-17
5.580000E+03	8.840899E-16	1.074803E-17
5.590000E+03	8.875926E-16	1.079170E-17
5.600000E+03	8.910214E-16	1.083404E-17
5.610000E+03	8.943795E-16	1.087506E-17
5.620000E+03	8.976699E-16	1.091478E-17
5.630000E+03	9.009045E-16	1.095332E-17
5.640000E+03	9.040863E-16	1.099070E-17
5.650000E+03	9.072183E-16	1.102693E-17
5.660000E+03	9.103032E-16	1.106204E-17
5.670000E+03	9.133435E-16	1.109604E-17
5.680000E+03	9.163511E-16	1.112905E-17
5.690000E+03	9.193096E-16	1.116087E-17
5.700000E+03	9.222494E-16	1.119184E-17
5.710000E+03	9.251537E-16	1.122174E-17
5.720000E+03	9.280338E-16	1.125071E-17
5.730000E+03	9.308919E-16	1.127875E-17
5.740000E+03	9.337292E-16	1.130587E-17
5.750000E+03	9.365474E-16	1.133208E-17
5.760000E+03	9.393577E-16	1.135750E-17
5.770000E+03	9.421516E-16	1.138203E-17
5.780000E+03	9.449402E-16	1.140577E-17
5.790000E+03	9.477145E-16	1.142863E-17
5.800000E+03	9.504857E-16	1.145072E-17
5.810000E+03	9.532549E-16	1.147206E-17
5.820000E+03	9.560231E-16	1.149264E-17
5.830000E+03	9.587907E-16	1.151247E-17
5.840000E+03	9.615595E-16	1.153156E-17
5.850000E+03	9.643411E-16	1.155005E-17
5.860000E+03	9.671248E-16	1.156780E-17
5.870000E+03	9.699239E-16	1.158498E-17
5.880000E+03	9.727279E-16	1.160145E-17
5.890000E+03	9.755596E-16	1.161748E-17
5.900000E+03	9.784009E-16	1.163286E-17
5.910000E+03	9.812613E-16	1.164769E-17
5.920000E+03	9.841560E-16	1.166217E-17
5.930000E+03	9.870746E-16	1.167615E-17
5.940000E+03	9.900197E-16	1.168968E-17
5.950000E+03	9.930050E-16	1.170292E-17
5.960000E+03	9.960216E-16	1.171576E-17
5.970000E+03	9.990821E-16	1.172835E-17
5.980000E+03	1.002191E-15	1.174075E-17
5.990000E+03	1.005350E-15	1.175298E-17
6.000000E+03	1.008564E-15	1.176510E-17
6.010000E+03	1.011833E-15	1.177712E-17
6.020000E+03	1.015163E-15	1.178910E-17
6.030000E+03	1.018556E-15	1.180107E-17
6.040000E+03	1.022015E-15	1.181308E-17
6.050000E+03	1.025542E-15	1.182516E-17
6.060000E+03	1.029144E-15	1.183737E-17
6.070000E+03	1.032819E-15	1.184972E-17
6.080000E+03	1.036560E-15	1.186212E-17
6.090000E+03	1.040370E-15	1.187462E-17
6.100000E+03	1.044237E-15	1.188709E-17
6.110000E+03	1.048163E-15	1.189957E-17
6.120000E+03	1.052136E-15	1.191192E-17
6.130000E+03	1.056145E-15	1.192404E-17
6.140000E+03	1.060175E-15	1.193576E-17
6.150000E+03	1.064200E-15	1.194684E-17
6.160000E+03	1.068229E-15	1.195736E-17
6.170000E+03	1.072231E-15	1.196703E-17
6.180000E+03	1.076203E-15	1.197581E-17
6.190000E+03	1.080162E-15	1.198394E-17
6.200000E+03	1.084115E-15	1.199151E-17
6.210000E+03	1.088069E-15	1.199863E-17
6.220000E+03	1.092034E-15	1.200544E-17
6.230000E+03	1.096037E-15	1.201225E-17
6.240000E+03	1.100093E-15	1.201924E-17
6.250000E+03	1.104196E-15	1.202639E-17
6.260000E+03	1.108375E-15	1.203404E-17
6.270000E+03	1.112640E-15	1.204230E-17
6.280000E+03	1.117008E-15	1.205140E-17
6.290000E+03	1.121471E-15	1.206127E-17
6.300000E+03	1.126049E-15	1.207211E-17
6.310000E+03	1.130746E-15	1.208400E-17
6.320000E+03	1.135564E-15	1.209695E-17
6.330000E+03	1.140491E-15	1.211086E-17
6.340000E+03	1.145557E-15	1.212605E-17
6.350000E+03	1.150733E-15	1.214223E-17
6.360000E+03	1.156018E-15	1.215940E-17
6.370000E+03	1.161439E-15	1.217786E-17
6.380000E+03	1.166966E-15	1.219730E-17
6.390000E+03	1.172594E-15	1.221769E-17
6.400000E+03	1.178336E-15	1.223919E-17
6.410000E+03	1.184187E-15	1.226176E-17
6.420000E+03	1.190146E-15	1.228540E-17
6.430000E+03	1.196194E-15	1.230995E-17
6.440000E+03	1.202311E-15	1.233521E-17
6.450000E+03	1.208507E-15	1.236133E-17
6.460000E+03	1.214746E-15	1.238795E-17
6.470000E+03	1.221004E-15	1.241485E-17
6.480000E+03	1.227259E-15	1.244186E-17
6.490000E+03	1.233518E-15	1.246906E-17
6.500000E+03	1.239742E-15	1.249612E-17
6.510000E+03	1.245940E-15	1.252314E-17
6.520000E+03	1.252104E-15	1.255007E-17
6.530000E+03	1.258225E-15	1.257680E-17
6.540000E+03	1.264277E-15	1.260304E-17
6.550000E+03	1.270284E-15	1.262901E-17
6.560000E+03	1.276224E-15	1.265445E-17
6.570000E+03	1.282119E-15	1.267954E-17
6.580000E+03	1.287929E-15	1.270385E-17
6.590000E+03	1.293662E-15	1.272744E-17
6.600000E+03	1.299344E-15	1.275053E-17
6.610000E+03	1.304934E-15	1.277267E-17
6.620000E+03	1.310440E-15	1.279393E-17
6.630000E+03	1.315877E-15	1.281440E-17
6.640000E+03	1.321216E-15	1.283378E-17
6.650000E+03	1.326473E-15	1.285217E-17
6.660000E+03	1.331642E-15	1.286949E-17
6.670000E+03	1.336734E-15	1.288583E-17
6.680000E+03	1.341711E-15	1.290076E-17
6.690000E+03	1.346624E-15	1.291475E-17
6.700000E+03	1.351431E-15	1.292736E-17
6.710000E+03	1.356129E-15	1.293855E-17
6.720000E+03	1.360756E-15	1.294863E-17
6.730000E+03	1.365270E-15	1.295718E-17
6.740000E+03	1.369708E-15	1.296451E-17
6.750000E+03	1.374051E-15	1.297043E-17
6.760000E+03	1.378297E-15	1.297488E-17
6.770000E+03	1.382446E-15	1.297784E-17
6.780000E+03	1.386518E-15	1.297946E-17
6.790000E+03	1.390493E-15	1.297956E-17
6.800000E+03	1.394394E-15	1.297828E-17
6.810000E+03	1.398199E-15	1.297545E-17
6.820000E+03	1.401911E-15	1.297105E-17
6.830000E+03	1.405572E-15	1.296545E-17
6.840000E+03	1.409122E-15	1.295807E-17
6.850000E+03	1.412624E-15	1.294950E-17
6.860000E+03	1.416039E-15	1.293936E-17
6.870000E+03	1.419368E-15	1.292765E-17
6.880000E+03	1.422637E-15	1.291458E-17
6.890000E+03	1.425845E-15	1.290015E-17
6.900000E+03	1.428975E-15	1.288420E-17
6.910000E+03	1.432050E-15	1.286693E-17
6.920000E+03	1.435072E-15	1.284837E-17
6.930000E+03	1.438021E-15	1.282832E-17
6.940000E+03	1.440900E-15	1.280684E-17
6.950000E+03	1.443756E-15	1.278432E-17
6.960000E+03	1.446522E-15	1.276020E-17
6.970000E+03	1.449270E-15	1.273512E-17
6.980000E+03	1.451955E-15	1.270870E-17
6.990000E+03	1.454578E-15	1.268097E-17
7.000000E+03	1.457143E-15	1.265198E-17
7.010000E+03	1.459696E-15	1.262216E-17
7.020000E+03	1.462169E-15	1.259094E-17
7.030000E+03	1.464611E-15	1.255877E-17
7.040000E+03	1.466999E-15	1.252550E-17
7.050000E+03	1.469356E-15	1.249135E-17
7.060000E+03	1.471661E-15	1.245620E-17
7.070000E+03	1.473915E-15	1.242008E-17
7.080000E+03	1.476142E-15	1.238326E-17
7.090000E+03	1.478317E-15	1.234558E-17
7.100000E+03	1.480441E-15	1.230709E-17
7.110000E+03	1.482540E-15	1.226808E-17
7.120000E+03	1.484587E-15	1.222839E-17
7.130000E+03	1.486583E-15	1.218809E-17
7.140000E+03	1.488527E-15	1.214725E-17
7.150000E+03	1.490443E-15	1.210615E-17
7.160000E+03	1.492305E-15	1.206465E-17
7.170000E+03	1.494137E-15	1.202305E-17
7.180000E+03	1.495887E-15	1.198100E-17
7.190000E+03	1.497630E-15	1.193922E-17
7.200000E+03	1.499314E-15	1.189738E-17
7.210000E+03	1.500935E-15	1.185557E-17
7.220000E+03	1.502542E-15	1.181428E-17
7.230000E+03	1.504083E-15	1.177322E-17
7.240000E+03	1.505579E-15	1.173268E-17
7.250000E+03	1.507001E-15	1.169255E-17
7.260000E+03	1.508427E-15	1.165358E-17
7.270000E+03	1.509769E-15	1.161522E-17
7.280000E+03	1.511053E-15	1.157780E-17
7.290000E+03	1.512328E-15	1.154185E-17
7.300000E+03	1.513533E-15	1.150707E-17
7.310000E+03	1.514693E-15	1.147376E-17
7.320000E+03	1.515772E-15	1.144185E-17
7.330000E+03	1.516847E-15	1.141206E-17
7.340000E+03	1.517829E-15	1.138388E-17
7.350000E+03	1.518767E-15	1.135785E-17
7.360000E+03	1.519651E-15	1.133407E-17
7.370000E+03	1.520447E-15	1.131245E-17
7.380000E+03	1.521201E-15	1.129351E-17
7.390000E+03	1.521876E-15	1.127713E-17
7.400000E+03	1.522432E-15	1.126321E-17
7.410000E+03	1.522915E-15	1.125226E-17
7.420000E+03	1.523287E-15	1.124416E-17
7.430000E+03	1.523533E-15	1.123898E-17
7.440000E+03	1.523612E-15	1.123657E-17
7.450000E+03	1.523537E-15	1.123719E-17
7.460000E+03	1.523294E-15	1.124090E-17
7.470000E+03	1.522867E-15	1.124774E-17
7.480000E+03	1.522212E-15	1.125749E-17
7.490000E+03	1.521340E-15	1.127040E-17
7.500000E+03	1.520177E-15	1.128601E-17
7.510000E+03	1.518765E-15	1.130476E-17
7.520000E+03	1.517033E-15	1.132619E-17
7.530000E+03	1.514997E-15	1.135045E-17
7.540000E+03	1.512620E-15	1.137712E-17
7.550000E+03	1.509869E-15	1.140580E-17
7.560000E+03	1.506806E-15	1.143678E-17
7.570000E+03	1.503380E-15	1.146950E-17
7.580000E+03	1.499604E-15	1.150389E-17
7.590000E+03	1.495527E-15	1.154009E-17
7.600000E+03	1.491133E-15	1.157780E-17
7.610000E+03	1.486417E-15	1.161676E-17
7.620000E+03	1.481454E-15	1.165735E-17
7.630000E+03	1.476209E-15	1.169906E-17
7.640000E+03	1.470698E-15	1.174183E-17
7.650000E+03	1.465000E-15	1.178605E-17
7.660000E+03	1.459047E-15	1.183096E-17
7.670000E+03	1.452911E-15	1.187694E-17
7.680000E+03	1.446611E-15	1.192394E-17
7.690000E+03	1.440105E-15	1.197140E-17
7.700000E+03	1.433464E-15	1.201971E-17
7.710000E+03	1.426674E-15	1.206856E-17
7.720000E+03	1.419747E-15	1.211785E-17
7.730000E+03	1.412727E-15	1.216778E-17
7.740000E+03	1.405566E-15	1.221777E-17
7.750000E+03	1.398335E-15	1.226824E-17
7.760000E+03	1.391013E-15	1.231887E-17
