#wls	flux	fluxerr
1.600000E+03	3.642106E-17	1.455064E-18
1.640000E+03	3.638494E-17	1.447797E-18
1.680000E+03	3.637867E-17	1.441578E-18
1.720000E+03	3.639661E-17	1.436166E-18
1.760000E+03	3.644718E-17	1.431876E-18
1.800000E+03	3.652482E-17	1.428470E-18
1.840000E+03	3.664204E-17	1.426418E-18
1.880000E+03	3.679758E-17	1.425643E-18
1.920000E+03	3.699459E-17	1.426241E-18
1.960000E+03	3.723607E-17	1.428296E-18
2.000000E+03	3.752910E-17	1.432047E-18
2.040000E+03	3.788449E-17	1.437865E-18
2.080000E+03	3.830046E-17	1.445636E-18
2.120000E+03	3.879529E-17	1.455997E-18
2.160000E+03	3.937854E-17	1.469246E-18
2.200000E+03	4.006331E-17	1.485795E-18
2.240000E+03	4.086600E-17	1.506167E-18
2.280000E+03	4.179866E-17	1.530705E-18
2.320000E+03	4.287309E-17	1.559728E-18
2.360000E+03	4.410458E-17	1.593662E-18
2.400000E+03	4.548658E-17	1.632134E-18
2.440000E+03	4.703132E-17	1.675436E-18
2.480000E+03	4.873360E-17	1.723228E-18
2.520000E+03	5.060674E-17	1.775818E-18
2.560000E+03	5.265070E-17	1.833028E-18
2.600000E+03	5.487679E-17	1.895065E-18
2.640000E+03	5.729381E-17	1.962031E-18
2.680000E+03	5.991836E-17	2.034274E-18
2.720000E+03	6.275153E-17	2.111592E-18
2.760000E+03	6.581598E-17	2.194493E-18
2.800000E+03	6.912604E-17	2.283172E-18
2.840000E+03	7.270123E-17	2.377964E-18
2.880000E+03	7.656657E-17	2.479349E-18
2.920000E+03	8.076597E-17	2.588364E-18
2.960000E+03	8.535266E-17	2.706272E-18
3.000000E+03	9.039318E-17	2.834662E-18
3.010000E+03	9.173630E-17	2.868707E-18
3.020000E+03	9.311344E-17	2.903536E-18
3.030000E+03	9.452509E-17	2.939153E-18
3.040000E+03	9.597838E-17	2.975767E-18
3.050000E+03	9.747044E-17	3.013278E-18
3.060000E+03	9.900509E-17	3.051789E-18
3.070000E+03	1.005798E-16	3.091210E-18
3.080000E+03	1.022048E-16	3.131843E-18
3.090000E+03	1.038744E-16	3.173494E-18
3.100000E+03	1.055924E-16	3.216269E-18
3.110000E+03	1.073630E-16	3.260275E-18
3.120000E+03	1.091868E-16	3.305518E-18
3.130000E+03	1.110679E-16	3.352102E-18
3.140000E+03	1.130040E-16	3.399937E-18
3.150000E+03	1.150026E-16	3.449233E-18
3.160000E+03	1.170647E-16	3.499996E-18
3.170000E+03	1.191944E-16	3.552334E-18
3.180000E+03	1.213898E-16	3.606162E-18
3.190000E+03	1.236552E-16	3.661586E-18
3.200000E+03	1.259951E-16	3.718719E-18
3.210000E+03	1.284109E-16	3.777574E-18
3.220000E+03	1.309072E-16	3.838264E-18
3.230000E+03	1.334856E-16	3.900803E-18
3.240000E+03	1.361508E-16	3.965307E-18
3.250000E+03	1.389044E-16	4.031791E-18
3.260000E+03	1.417484E-16	4.100278E-18
3.270000E+03	1.446876E-16	4.170883E-18
3.280000E+03	1.477242E-16	4.243632E-18
3.290000E+03	1.508599E-16	4.318544E-18
3.300000E+03	1.541039E-16	4.395840E-18
3.310000E+03	1.574548E-16	4.475450E-18
3.320000E+03	1.609150E-16	4.557405E-18
3.330000E+03	1.644870E-16	4.641733E-18
3.340000E+03	1.681802E-16	4.728660E-18
3.350000E+03	1.719904E-16	4.818027E-18
3.360000E+03	1.759238E-16	4.909969E-18
3.370000E+03	1.799834E-16	5.004519E-18
3.380000E+03	1.841688E-16	5.101626E-18
3.390000E+03	1.884830E-16	5.201327E-18
3.400000E+03	1.929331E-16	5.303768E-18
3.410000E+03	1.975116E-16	5.408699E-18
3.420000E+03	2.022294E-16	5.516364E-18
3.430000E+03	2.070793E-16	5.626523E-18
3.440000E+03	2.120685E-16	5.739321E-18
3.450000E+03	2.171901E-16	5.854517E-18
3.460000E+03	2.224517E-16	5.972267E-18
3.470000E+03	2.278462E-16	6.092329E-18
3.480000E+03	2.333775E-16	6.214758E-18
3.490000E+03	2.390387E-16	6.339317E-18
3.500000E+03	2.448338E-16	6.466063E-18
3.510000E+03	2.507556E-16	6.594753E-18
3.520000E+03	2.568044E-16	6.725346E-18
3.530000E+03	2.629764E-16	6.857696E-18
3.540000E+03	2.692680E-16	6.991656E-18
3.550000E+03	2.756792E-16	7.127178E-18
3.560000E+03	2.821981E-16	7.263911E-18
3.570000E+03	2.888243E-16	7.401797E-18
3.580000E+03	2.955570E-16	7.540773E-18
3.590000E+03	3.023917E-16	7.680677E-18
3.600000E+03	3.093230E-16	7.821334E-18
3.610000E+03	3.163458E-16	7.962571E-18
3.620000E+03	3.234581E-16	8.104297E-18
3.630000E+03	3.306581E-16	8.246427E-18
3.640000E+03	3.379308E-16	8.388553E-18
3.650000E+03	3.452773E-16	8.530669E-18
3.660000E+03	3.526860E-16	8.672451E-18
3.670000E+03	3.601613E-16	8.813979E-18
3.680000E+03	3.676945E-16	8.955008E-18
3.690000E+03	3.752808E-16	9.095392E-18
3.700000E+03	3.829188E-16	9.235075E-18
3.710000E+03	3.906026E-16	9.373883E-18
3.720000E+03	3.983343E-16	9.511846E-18
3.730000E+03	4.061025E-16	9.648664E-18
3.740000E+03	4.139081E-16	9.784339E-18
3.750000E+03	4.217475E-16	9.918764E-18
3.760000E+03	4.296208E-16	1.005192E-17
3.770000E+03	4.375182E-16	1.018356E-17
3.780000E+03	4.454391E-16	1.031366E-17
3.790000E+03	4.533774E-16	1.044206E-17
3.800000E+03	4.613310E-16	1.056869E-17
3.810000E+03	4.692880E-16	1.069328E-17
3.820000E+03	4.772552E-16	1.081596E-17
3.830000E+03	4.852146E-16	1.093632E-17
3.840000E+03	4.931672E-16	1.105439E-17
3.850000E+03	5.010991E-16	1.116985E-17
3.860000E+03	5.090154E-16	1.128281E-17
3.870000E+03	5.168964E-16	1.139284E-17
3.880000E+03	5.247366E-16	1.149982E-17
3.890000E+03	5.325358E-16	1.160377E-17
3.900000E+03	5.402780E-16	1.170434E-17
3.910000E+03	5.479577E-16	1.180144E-17
3.920000E+03	5.555689E-16	1.189496E-17
3.930000E+03	5.630954E-16	1.198457E-17
3.940000E+03	5.705368E-16	1.207030E-17
3.950000E+03	5.778825E-16	1.215195E-17
3.960000E+03	5.851162E-16	1.222922E-17
3.970000E+03	5.922384E-16	1.230215E-17
3.980000E+03	5.992393E-16	1.237059E-17
3.990000E+03	6.061146E-16	1.243450E-17
4.000000E+03	6.128499E-16	1.249363E-17
4.010000E+03	6.194420E-16	1.254796E-17
4.020000E+03	6.258829E-16	1.259740E-17
4.030000E+03	6.321651E-16	1.264186E-17
4.040000E+03	6.382936E-16	1.268149E-17
4.050000E+03	6.442508E-16	1.271601E-17
4.060000E+03	6.500431E-16	1.274562E-17
4.070000E+03	6.556602E-16	1.277018E-17
4.080000E+03	6.611043E-16	1.278981E-17
4.090000E+03	6.663724E-16	1.280453E-17
4.100000E+03	6.714563E-16	1.281425E-17
4.110000E+03	6.763666E-16	1.281925E-17
4.120000E+03	6.810966E-16	1.281948E-17
4.130000E+03	6.856461E-16	1.281501E-17
4.140000E+03	6.900158E-16	1.280594E-17
4.150000E+03	6.942127E-16	1.279248E-17
4.160000E+03	6.982326E-16	1.277462E-17
4.170000E+03	7.020837E-16	1.275259E-17
4.180000E+03	7.057623E-16	1.272640E-17
4.190000E+03	7.092653E-16	1.269608E-17
4.200000E+03	7.126080E-16	1.266198E-17
4.210000E+03	7.157877E-16	1.262412E-17
4.220000E+03	7.188014E-16	1.258254E-17
4.230000E+03	7.216588E-16	1.253747E-17
4.240000E+03	7.243507E-16	1.248884E-17
4.250000E+03	7.268870E-16	1.243689E-17
4.260000E+03	7.292638E-16	1.238164E-17
4.270000E+03	7.314780E-16	1.232310E-17
4.280000E+03	7.335319E-16	1.226141E-17
4.290000E+03	7.354145E-16	1.219645E-17
4.300000E+03	7.371272E-16	1.212834E-17
4.310000E+03	7.386525E-16	1.205688E-17
4.320000E+03	7.399903E-16	1.198215E-17
4.330000E+03	7.411267E-16	1.190402E-17
4.340000E+03	7.420550E-16	1.182249E-17
4.350000E+03	7.427547E-16	1.173734E-17
4.360000E+03	7.432220E-16	1.164861E-17
4.370000E+03	7.434551E-16	1.155639E-17
4.380000E+03	7.434684E-16	1.146102E-17
4.390000E+03	7.432645E-16	1.136264E-17
4.400000E+03	7.428431E-16	1.126135E-17
4.410000E+03	7.422258E-16	1.115758E-17
4.420000E+03	7.414058E-16	1.105134E-17
4.430000E+03	7.403894E-16	1.094282E-17
4.440000E+03	7.391820E-16	1.083219E-17
4.450000E+03	7.377762E-16	1.071944E-17
4.460000E+03	7.361789E-16	1.060477E-17
4.470000E+03	7.343934E-16	1.048834E-17
4.480000E+03	7.324076E-16	1.037005E-17
4.490000E+03	7.302327E-16	1.025017E-17
4.500000E+03	7.278563E-16	1.012863E-17
4.510000E+03	7.252851E-16	1.000561E-17
4.520000E+03	7.225202E-16	9.881218E-18
4.530000E+03	7.195509E-16	9.755416E-18
4.540000E+03	7.163871E-16	9.628428E-18
4.550000E+03	7.130269E-16	9.500326E-18
4.560000E+03	7.094765E-16	9.371286E-18
4.570000E+03	7.057373E-16	9.241415E-18
4.580000E+03	7.018191E-16	9.110931E-18
4.590000E+03	6.977273E-16	8.979987E-18
4.600000E+03	6.934757E-16	8.848843E-18
4.610000E+03	6.890805E-16	8.717777E-18
4.620000E+03	6.845541E-16	8.587015E-18
4.630000E+03	6.799175E-16	8.456882E-18
4.640000E+03	6.751945E-16	8.327727E-18
4.650000E+03	6.704174E-16	8.199992E-18
4.660000E+03	6.656032E-16	8.073920E-18
4.670000E+03	6.607899E-16	7.949997E-18
4.680000E+03	6.560119E-16	7.828654E-18
4.690000E+03	6.513128E-16	7.710413E-18
4.700000E+03	6.467153E-16	7.595536E-18
4.710000E+03	6.422629E-16	7.484520E-18
4.720000E+03	6.379790E-16	7.377613E-18
4.730000E+03	6.339019E-16	7.275227E-18
4.740000E+03	6.300673E-16	7.177734E-18
4.750000E+03	6.265252E-16	7.085658E-18
4.760000E+03	6.233166E-16	6.999408E-18
4.770000E+03	6.204905E-16	6.919470E-18
4.780000E+03	6.180956E-16	6.846320E-18
4.790000E+03	6.161783E-16	6.780399E-18
4.800000E+03	6.147898E-16	6.722189E-18
4.810000E+03	6.139579E-16	6.671917E-18
4.820000E+03	6.136953E-16	6.629645E-18
4.830000E+03	6.140103E-16	6.595393E-18
4.840000E+03	6.148939E-16	6.569001E-18
4.850000E+03	6.163241E-16	6.550187E-18
4.860000E+03	6.182922E-16	6.538821E-18
4.870000E+03	6.207644E-16	6.534520E-18
4.880000E+03	6.237281E-16	6.537136E-18
4.890000E+03	6.271585E-16	6.546407E-18
4.900000E+03	6.310302E-16	6.562075E-18
4.910000E+03	6.353180E-16	6.583897E-18
4.920000E+03	6.400036E-16	6.611715E-18
4.930000E+03	6.450582E-16	6.645267E-18
4.940000E+03	6.504667E-16	6.684412E-18
4.950000E+03	6.562097E-16	6.728938E-18
4.960000E+03	6.622757E-16	6.778718E-18
4.970000E+03	6.686486E-16	6.833583E-18
4.980000E+03	6.753079E-16	6.893318E-18
4.990000E+03	6.822526E-16	6.957914E-18
5.000000E+03	6.894642E-16	7.027184E-18
5.010000E+03	6.969314E-16	7.101012E-18
5.020000E+03	7.046434E-16	7.179292E-18
5.030000E+03	7.125967E-16	7.261992E-18
5.040000E+03	7.207814E-16	7.349014E-18
5.050000E+03	7.291814E-16	7.440194E-18
5.060000E+03	7.377937E-16	7.535508E-18
5.070000E+03	7.466087E-16	7.634858E-18
5.080000E+03	7.556099E-16	7.738073E-18
5.090000E+03	7.647944E-16	7.845124E-18
5.100000E+03	7.741517E-16	7.955902E-18
5.110000E+03	7.836719E-16	8.070298E-18
5.120000E+03	7.933360E-16	8.188111E-18
5.130000E+03	8.031485E-16	8.309381E-18
5.140000E+03	8.130734E-16	8.433722E-18
5.150000E+03	8.231160E-16	8.561176E-18
5.160000E+03	8.332620E-16	8.691577E-18
5.170000E+03	8.434906E-16	8.824691E-18
5.180000E+03	8.537898E-16	8.960366E-18
5.190000E+03	8.641526E-16	9.098508E-18
5.200000E+03	8.745496E-16	9.238774E-18
5.210000E+03	8.849736E-16	9.381058E-18
5.220000E+03	8.954114E-16	9.525182E-18
5.230000E+03	9.058472E-16	9.670941E-18
5.240000E+03	9.162594E-16	9.818060E-18
5.250000E+03	9.266416E-16	9.966424E-18
5.260000E+03	9.369617E-16	1.011564E-17
5.270000E+03	9.472232E-16	1.026569E-17
5.280000E+03	9.573948E-16	1.041617E-17
5.290000E+03	9.674717E-16	1.056698E-17
5.300000E+03	9.774423E-16	1.071793E-17
5.310000E+03	9.872746E-16	1.086859E-17
5.320000E+03	9.969765E-16	1.101900E-17
5.330000E+03	1.006518E-15	1.116873E-17
5.340000E+03	1.015890E-15	1.131762E-17
5.350000E+03	1.025094E-15	1.146561E-17
5.360000E+03	1.034110E-15	1.161240E-17
5.370000E+03	1.042934E-15	1.175785E-17
5.380000E+03	1.051548E-15	1.190169E-17
5.390000E+03	1.059958E-15	1.204393E-17
5.400000E+03	1.068152E-15	1.218430E-17
5.410000E+03	1.076127E-15	1.232271E-17
5.420000E+03	1.083883E-15	1.245909E-17
5.430000E+03	1.091418E-15	1.259332E-17
5.440000E+03	1.098726E-15	1.272524E-17
5.450000E+03	1.105797E-15	1.285467E-17
5.460000E+03	1.112644E-15	1.298168E-17
5.470000E+03	1.119263E-15	1.310614E-17
5.480000E+03	1.125668E-15	1.322814E-17
5.490000E+03	1.131845E-15	1.334742E-17
5.500000E+03	1.137825E-15	1.346429E-17
5.510000E+03	1.143601E-15	1.357860E-17
5.520000E+03	1.149172E-15	1.369025E-17
5.530000E+03	1.154558E-15	1.379944E-17
5.540000E+03	1.159758E-15	1.390606E-17
5.550000E+03	1.164768E-15	1.401001E-17
5.560000E+03	1.169622E-15	1.411166E-17
5.570000E+03	1.174317E-15	1.421089E-17
5.580000E+03	1.178865E-15	1.430780E-17
5.590000E+03	1.183274E-15	1.440244E-17
5.600000E+03	1.187554E-15	1.449486E-17
5.610000E+03	1.191712E-15	1.458513E-17
5.620000E+03	1.195759E-15	1.467333E-17
5.630000E+03	1.199703E-15	1.475949E-17
5.640000E+03	1.203551E-15	1.484367E-17
5.650000E+03	1.207308E-15	1.492592E-17
5.660000E+03	1.210983E-15	1.500626E-17
5.670000E+03	1.214593E-15	1.508491E-17
5.680000E+03	1.218129E-15	1.516172E-17
5.690000E+03	1.221582E-15	1.523653E-17
5.700000E+03	1.224994E-15	1.530984E-17
5.710000E+03	1.228329E-15	1.538117E-17
5.720000E+03	1.231627E-15	1.545099E-17
5.730000E+03	1.234849E-15	1.551879E-17
5.740000E+03	1.238034E-15	1.558504E-17
5.750000E+03	1.241143E-15	1.564921E-17
5.760000E+03	1.244212E-15	1.571174E-17
5.770000E+03	1.247227E-15	1.577243E-17
5.780000E+03	1.250172E-15	1.583106E-17
5.790000E+03	1.253057E-15	1.588773E-17
5.800000E+03	1.255893E-15	1.594257E-17
5.810000E+03	1.258664E-15	1.599533E-17
5.820000E+03	1.261363E-15	1.604594E-17
5.830000E+03	1.264003E-15	1.609454E-17
5.840000E+03	1.266566E-15	1.614087E-17
5.850000E+03	1.269064E-15	1.618508E-17
5.860000E+03	1.271491E-15	1.622709E-17
5.870000E+03	1.273863E-15	1.626707E-17
5.880000E+03	1.276147E-15	1.630460E-17
5.890000E+03	1.278372E-15	1.634005E-17
5.900000E+03	1.280537E-15	1.637338E-17
5.910000E+03	1.282644E-15	1.640461E-17
5.920000E+03	1.284693E-15	1.643374E-17
5.930000E+03	1.286687E-15	1.646081E-17
5.940000E+03	1.288644E-15	1.648603E-17
5.950000E+03	1.290570E-15	1.650949E-17
5.960000E+03	1.292471E-15	1.653125E-17
5.970000E+03	1.294367E-15	1.655157E-17
5.980000E+03	1.296285E-15	1.657079E-17
5.990000E+03	1.298202E-15	1.658862E-17
6.000000E+03	1.300159E-15	1.660558E-17
6.010000E+03	1.302185E-15	1.662203E-17
6.020000E+03	1.304277E-15	1.663794E-17
6.030000E+03	1.306465E-15	1.665370E-17
6.040000E+03	1.308797E-15	1.666990E-17
6.050000E+03	1.311256E-15	1.668632E-17
6.060000E+03	1.313909E-15	1.670383E-17
6.070000E+03	1.316759E-15	1.672243E-17
6.080000E+03	1.319839E-15	1.674258E-17
6.090000E+03	1.323171E-15	1.676450E-17
6.100000E+03	1.326809E-15	1.678889E-17
6.110000E+03	1.330774E-15	1.681599E-17
6.120000E+03	1.335089E-15	1.684607E-17
6.130000E+03	1.339775E-15	1.687939E-17
6.140000E+03	1.344857E-15	1.691622E-17
6.150000E+03	1.350337E-15	1.695659E-17
6.160000E+03	1.356240E-15	1.700075E-17
6.170000E+03	1.362569E-15	1.704874E-17
6.180000E+03	1.369397E-15	1.710141E-17
6.190000E+03	1.376728E-15	1.715879E-17
6.200000E+03	1.384616E-15	1.722151E-17
6.210000E+03	1.393078E-15	1.728972E-17
6.220000E+03	1.402126E-15	1.736353E-17
6.230000E+03	1.411750E-15	1.744275E-17
6.240000E+03	1.421949E-15	1.752732E-17
6.250000E+03	1.432722E-15	1.761716E-17
6.260000E+03	1.444022E-15	1.771164E-17
6.270000E+03	1.455838E-15	1.781057E-17
6.280000E+03	1.468153E-15	1.791368E-17
6.290000E+03	1.480929E-15	1.802046E-17
6.300000E+03	1.494122E-15	1.813031E-17
6.310000E+03	1.507708E-15	1.824288E-17
6.320000E+03	1.521656E-15	1.835773E-17
6.330000E+03	1.535912E-15	1.847416E-17
6.340000E+03	1.550440E-15	1.859170E-17
6.350000E+03	1.565176E-15	1.870952E-17
6.360000E+03	1.580100E-15	1.882735E-17
6.370000E+03	1.595142E-15	1.894429E-17
6.380000E+03	1.610250E-15	1.905974E-17
6.390000E+03	1.625370E-15	1.917300E-17
6.400000E+03	1.640470E-15	1.928369E-17
6.410000E+03	1.655467E-15	1.939084E-17
6.420000E+03	1.670307E-15	1.949378E-17
6.430000E+03	1.684933E-15	1.959189E-17
6.440000E+03	1.699323E-15	1.968493E-17
6.450000E+03	1.713367E-15	1.977163E-17
6.460000E+03	1.727113E-15	1.985259E-17
6.470000E+03	1.740496E-15	1.992710E-17
6.480000E+03	1.753507E-15	1.999508E-17
6.490000E+03	1.766193E-15	2.005714E-17
6.500000E+03	1.778476E-15	2.011241E-17
6.510000E+03	1.790433E-15	2.016184E-17
6.520000E+03	1.802017E-15	2.020492E-17
6.530000E+03	1.813226E-15	2.024169E-17
6.540000E+03	1.824094E-15	2.027251E-17
6.550000E+03	1.834594E-15	2.029708E-17
6.560000E+03	1.844731E-15	2.031545E-17
6.570000E+03	1.854507E-15	2.032765E-17
6.580000E+03	1.863926E-15	2.033371E-17
6.590000E+03	1.872961E-15	2.033334E-17
6.600000E+03	1.881674E-15	2.032722E-17
6.610000E+03	1.890012E-15	2.031477E-17
6.620000E+03	1.898008E-15	2.029633E-17
6.630000E+03	1.905635E-15	2.027165E-17
6.640000E+03	1.912929E-15	2.024108E-17
6.650000E+03	1.919864E-15	2.020438E-17
6.660000E+03	1.926446E-15	2.016159E-17
6.670000E+03	1.932710E-15	2.011311E-17
6.680000E+03	1.938632E-15	2.005868E-17
6.690000E+03	1.944219E-15	1.999839E-17
6.700000E+03	1.949477E-15	1.993231E-17
6.710000E+03	1.954446E-15	1.986086E-17
6.720000E+03	1.959100E-15	1.978378E-17
6.730000E+03	1.963448E-15	1.970119E-17
6.740000E+03	1.967499E-15	1.961318E-17
6.750000E+03	1.971261E-15	1.951986E-17
6.760000E+03	1.974742E-15	1.942131E-17
6.770000E+03	1.977984E-15	1.931797E-17
6.780000E+03	1.980963E-15	1.920962E-17
6.790000E+03	1.983723E-15	1.909669E-17
6.800000E+03	1.986206E-15	1.897865E-17
6.810000E+03	1.988486E-15	1.885624E-17
6.820000E+03	1.990575E-15	1.872957E-17
6.830000E+03	1.992448E-15	1.859843E-17
6.840000E+03	1.994113E-15	1.846292E-17
6.850000E+03	1.995613E-15	1.832345E-17
6.860000E+03	1.996922E-15	1.817982E-17
6.870000E+03	1.998083E-15	1.803243E-17
6.880000E+03	1.999068E-15	1.788105E-17
6.890000E+03	1.999920E-15	1.772610E-17
6.900000E+03	2.000645E-15	1.756765E-17
6.910000E+03	2.001214E-15	1.740548E-17
6.920000E+03	2.001705E-15	1.724029E-17
6.930000E+03	2.002051E-15	1.707152E-17
6.940000E+03	2.002256E-15	1.689926E-17
6.950000E+03	2.002397E-15	1.672419E-17
6.960000E+03	2.002405E-15	1.654576E-17
6.970000E+03	2.002355E-15	1.636464E-17
6.980000E+03	2.002179E-15	1.618030E-17
6.990000E+03	2.001913E-15	1.599309E-17
7.000000E+03	2.001561E-15	1.580310E-17
7.010000E+03	2.001159E-15	1.561064E-17
7.020000E+03	2.000635E-15	1.541524E-17
7.030000E+03	2.000064E-15	1.521750E-17
7.040000E+03	1.999408E-15	1.501723E-17
7.050000E+03	1.998631E-15	1.481422E-17
7.060000E+03	1.997842E-15	1.460938E-17
7.070000E+03	1.996932E-15	1.440195E-17
7.080000E+03	1.995972E-15	1.419258E-17
7.090000E+03	1.994924E-15	1.398108E-17
7.100000E+03	1.993826E-15	1.376782E-17
7.110000E+03	1.992637E-15	1.355265E-17
7.120000E+03	1.991394E-15	1.333593E-17
7.130000E+03	1.990058E-15	1.311756E-17
7.140000E+03	1.988665E-15	1.289790E-17
7.150000E+03	1.987212E-15	1.267711E-17
7.160000E+03	1.985660E-15	1.245510E-17
7.170000E+03	1.984082E-15	1.223254E-17
7.180000E+03	1.982400E-15	1.200913E-17
7.190000E+03	1.980611E-15	1.178508E-17
7.200000E+03	1.978789E-15	1.156109E-17
7.210000E+03	1.976891E-15	1.133715E-17
7.220000E+03	1.974914E-15	1.111354E-17
7.230000E+03	1.972856E-15	1.089055E-17
7.240000E+03	1.970749E-15	1.066870E-17
7.250000E+03	1.968511E-15	1.044789E-17
7.260000E+03	1.966216E-15	1.022893E-17
7.270000E+03	1.963818E-15	1.001200E-17
7.280000E+03	1.961351E-15	9.797735E-18
7.290000E+03	1.958768E-15	9.586418E-18
7.300000E+03	1.956101E-15	9.378740E-18
7.310000E+03	1.953303E-15	9.175064E-18
7.320000E+03	1.950405E-15	8.976181E-18
7.330000E+03	1.947399E-15	8.782723E-18
7.340000E+03	1.944316E-15	8.595553E-18
7.350000E+03	1.941104E-15	8.415209E-18
7.360000E+03	1.937754E-15	8.242464E-18
7.370000E+03	1.934333E-15	8.078467E-18
7.380000E+03	1.930791E-15	7.923884E-18
7.390000E+03	1.927157E-15	7.779753E-18
7.400000E+03	1.923414E-15	7.646939E-18
7.410000E+03	1.919637E-15	7.526667E-18
7.420000E+03	1.915808E-15	7.419793E-18
7.430000E+03	1.911871E-15	7.327001E-18
7.440000E+03	1.907852E-15	7.249241E-18
7.450000E+03	1.903692E-15	7.187086E-18
7.460000E+03	1.899286E-15	7.140843E-18
7.470000E+03	1.894659E-15	7.111202E-18
7.480000E+03	1.889750E-15	7.098392E-18
7.490000E+03	1.884497E-15	7.102467E-18
7.500000E+03	1.878880E-15	7.123149E-18
7.510000E+03	1.872881E-15	7.159780E-18
7.520000E+03	1.866486E-15	7.211561E-18
7.530000E+03	1.859635E-15	7.277402E-18
7.540000E+03	1.852362E-15	7.356474E-18
7.550000E+03	1.844624E-15	7.447570E-18
7.560000E+03	1.836426E-15	7.549610E-18
7.570000E+03	1.827867E-15	7.661897E-18
7.580000E+03	1.818841E-15	7.782856E-18
7.590000E+03	1.809455E-15	7.911835E-18
7.600000E+03	1.799691E-15	8.047672E-18
7.610000E+03	1.789621E-15	8.189634E-18
7.620000E+03	1.779226E-15	8.336642E-18
7.630000E+03	1.768572E-15	8.488059E-18
7.640000E+03	1.757642E-15	8.642916E-18
7.650000E+03	1.746500E-15	8.800696E-18
7.660000E+03	1.735123E-15	8.960510E-18
7.670000E+03	1.723575E-15	9.121970E-18
7.680000E+03	1.711871E-15	9.284506E-18
7.690000E+03	1.699986E-15	9.447378E-18
7.700000E+03	1.687935E-15	9.610093E-18
7.710000E+03	1.675815E-15	9.772699E-18
7.720000E+03	1.663552E-15	9.934319E-18
7.730000E+03	1.651160E-15	1.009458E-17
7.740000E+03	1.638729E-15	1.025366E-17
7.750000E+03	1.626186E-15	1.041076E-17
7.760000E+03	1.613579E-15	1.056584E-17
