#wls	flux	fluxerr
1.600000E+03	2.196324E-17	2.232799E-18
1.640000E+03	2.174106E-17	2.207481E-18
1.680000E+03	2.152636E-17	2.182898E-18
1.720000E+03	2.132330E-17	2.159467E-18
1.760000E+03	2.113175E-17	2.137170E-18
1.800000E+03	2.095165E-17	2.115998E-18
1.840000E+03	2.078692E-17	2.096341E-18
1.880000E+03	2.062937E-17	2.077367E-18
1.920000E+03	2.049095E-17	2.060273E-18
1.960000E+03	2.036747E-17	2.044631E-18
2.000000E+03	2.025874E-17	2.030413E-18
2.040000E+03	2.016467E-17	2.017602E-18
2.080000E+03	2.008896E-17	2.006559E-18
2.120000E+03	2.003141E-17	1.997254E-18
2.160000E+03	1.999184E-17	1.989657E-18
2.200000E+03	1.997012E-17	1.983744E-18
2.240000E+03	1.996983E-17	1.979857E-18
2.280000E+03	1.998709E-17	1.977597E-18
2.320000E+03	2.002918E-17	1.977668E-18
2.360000E+03	2.008856E-17	1.979312E-18
2.400000E+03	2.017250E-17	1.983226E-18
2.440000E+03	2.027725E-17	1.989023E-18
2.480000E+03	2.040992E-17	1.997379E-18
2.520000E+03	2.056329E-17	2.007566E-18
2.560000E+03	2.074447E-17	2.020255E-18
2.600000E+03	2.095341E-17	2.035414E-18
2.640000E+03	2.119011E-17	2.053015E-18
2.680000E+03	2.145809E-17	2.073369E-18
2.720000E+03	2.175740E-17	2.096447E-18
2.760000E+03	2.209499E-17	2.122881E-18
2.800000E+03	2.247092E-17	2.152634E-18
2.840000E+03	2.288869E-17	2.185997E-18
2.880000E+03	2.335525E-17	2.223579E-18
2.920000E+03	2.387064E-17	2.265327E-18
2.960000E+03	2.444519E-17	2.312155E-18
3.000000E+03	2.508239E-17	2.364319E-18
3.010000E+03	2.525519E-17	2.378534E-18
3.020000E+03	2.543171E-17	2.393056E-18
3.030000E+03	2.561193E-17	2.407883E-18
3.040000E+03	2.579588E-17	2.423017E-18
3.050000E+03	2.598691E-17	2.438771E-18
3.060000E+03	2.618167E-17	2.454827E-18
3.070000E+03	2.638351E-17	2.471500E-18
3.080000E+03	2.658910E-17	2.488473E-18
3.090000E+03	2.680177E-17	2.506059E-18
3.100000E+03	2.702153E-17	2.524256E-18
3.110000E+03	2.724503E-17	2.542747E-18
3.120000E+03	2.747562E-17	2.561846E-18
3.130000E+03	2.771332E-17	2.581550E-18
3.140000E+03	2.795475E-17	2.601542E-18
3.150000E+03	2.820665E-17	2.622450E-18
3.160000E+03	2.846564E-17	2.643954E-18
3.170000E+03	2.872839E-17	2.665743E-18
3.180000E+03	2.900159E-17	2.688436E-18
3.190000E+03	2.928190E-17	2.711720E-18
3.200000E+03	2.957267E-17	2.735904E-18
3.210000E+03	2.986720E-17	2.760362E-18
3.220000E+03	3.017218E-17	2.785713E-18
3.230000E+03	3.048762E-17	2.811953E-18
3.240000E+03	3.081018E-17	2.838770E-18
3.250000E+03	3.114319E-17	2.866469E-18
3.260000E+03	3.148330E-17	2.894738E-18
3.270000E+03	3.183388E-17	2.923884E-18
3.280000E+03	3.219825E-17	2.954207E-18
3.290000E+03	3.256974E-17	2.985092E-18
3.300000E+03	3.295168E-17	3.016839E-18
3.310000E+03	3.334406E-17	3.049446E-18
3.320000E+03	3.375025E-17	3.083214E-18
3.330000E+03	3.416688E-17	3.117832E-18
3.340000E+03	3.459729E-17	3.153601E-18
3.350000E+03	3.503814E-17	3.190211E-18
3.360000E+03	3.548941E-17	3.227655E-18
3.370000E+03	3.595780E-17	3.266539E-18
3.380000E+03	3.643661E-17	3.306248E-18
3.390000E+03	3.693254E-17	3.347386E-18
3.400000E+03	3.743885E-17	3.389334E-18
3.410000E+03	3.796224E-17	3.432696E-18
3.420000E+03	3.849937E-17	3.477163E-18
3.430000E+03	3.905356E-17	3.523027E-18
3.440000E+03	3.962144E-17	3.569981E-18
3.450000E+03	4.020636E-17	3.618318E-18
3.460000E+03	4.080829E-17	3.668030E-18
3.470000E+03	4.142722E-17	3.719109E-18
3.480000E+03	4.206313E-17	3.771545E-18
3.490000E+03	4.271935E-17	3.825630E-18
3.500000E+03	4.338914E-17	3.880753E-18
3.510000E+03	4.408253E-17	3.937805E-18
3.520000E+03	4.479282E-17	3.996177E-18
3.530000E+03	4.552330E-17	4.056154E-18
3.540000E+03	4.627394E-17	4.117727E-18
3.550000E+03	4.704471E-17	4.180884E-18
3.560000E+03	4.783559E-17	4.245613E-18
3.570000E+03	4.864986E-17	4.312198E-18
3.580000E+03	4.948750E-17	4.380626E-18
3.590000E+03	5.034511E-17	4.450585E-18
3.600000E+03	5.122935E-17	4.522656E-18
3.610000E+03	5.213343E-17	4.596229E-18
3.620000E+03	5.306404E-17	4.671882E-18
3.630000E+03	5.401776E-17	4.749302E-18
3.640000E+03	5.499787E-17	4.828770E-18
3.650000E+03	5.600432E-17	4.910265E-18
3.660000E+03	5.703704E-17	4.993773E-18
3.670000E+03	5.809258E-17	5.078976E-18
3.680000E+03	5.918098E-17	5.166743E-18
3.690000E+03	6.029204E-17	5.256168E-18
3.700000E+03	6.143579E-17	5.348113E-18
3.710000E+03	6.260540E-17	5.441969E-18
3.720000E+03	6.380415E-17	5.538009E-18
3.730000E+03	6.503532E-17	5.636502E-18
3.740000E+03	6.629544E-17	5.737133E-18
3.750000E+03	6.758442E-17	5.839880E-18
3.760000E+03	6.890888E-17	5.945298E-18
3.770000E+03	7.026199E-17	6.052783E-18
3.780000E+03	7.164700E-17	6.162599E-18
3.790000E+03	7.306383E-17	6.274723E-18
3.800000E+03	7.451570E-17	6.389415E-18
3.810000E+03	7.600251E-17	6.506649E-18
3.820000E+03	7.752080E-17	6.626110E-18
3.830000E+03	7.907380E-17	6.748060E-18
3.840000E+03	8.066141E-17	6.872468E-18
3.850000E+03	8.228352E-17	6.999309E-18
3.860000E+03	8.394003E-17	7.128556E-18
3.870000E+03	8.563416E-17	7.260463E-18
3.880000E+03	8.736584E-17	7.395003E-18
3.890000E+03	8.913159E-17	7.531862E-18
3.900000E+03	9.093469E-17	7.671298E-18
3.910000E+03	9.277838E-17	7.813564E-18
3.920000E+03	9.465589E-17	7.958066E-18
3.930000E+03	9.657048E-17	8.105060E-18
3.940000E+03	9.852210E-17	8.254520E-18
3.950000E+03	1.005140E-16	8.406699E-18
3.960000E+03	1.025429E-16	8.561290E-18
3.970000E+03	1.046086E-16	8.718270E-18
3.980000E+03	1.067145E-16	8.877891E-18
3.990000E+03	1.088573E-16	9.039855E-18
4.000000E+03	1.110370E-16	9.204136E-18
4.010000E+03	1.132569E-16	9.370992E-18
4.020000E+03	1.155137E-16	9.540126E-18
4.030000E+03	1.178076E-16	9.711522E-18
4.040000E+03	1.201418E-16	9.885437E-18
4.050000E+03	1.225100E-16	1.006131E-17
4.060000E+03	1.249188E-16	1.023967E-17
4.070000E+03	1.273619E-16	1.041997E-17
4.080000E+03	1.298426E-16	1.060247E-17
4.090000E+03	1.323579E-16	1.078687E-17
4.100000E+03	1.349114E-16	1.097348E-17
4.110000E+03	1.374968E-16	1.116174E-17
4.120000E+03	1.401176E-16	1.135190E-17
4.130000E+03	1.427711E-16	1.154374E-17
4.140000E+03	1.454572E-16	1.173722E-17
4.150000E+03	1.481769E-16	1.193238E-17
4.160000E+03	1.509237E-16	1.212871E-17
4.170000E+03	1.537015E-16	1.232647E-17
4.180000E+03	1.565043E-16	1.252517E-17
4.190000E+03	1.593360E-16	1.272509E-17
4.200000E+03	1.621938E-16	1.292600E-17
4.210000E+03	1.650752E-16	1.312767E-17
4.220000E+03	1.679743E-16	1.332960E-17
4.230000E+03	1.708950E-16	1.353210E-17
4.240000E+03	1.738350E-16	1.373497E-17
4.250000E+03	1.767885E-16	1.393772E-17
4.260000E+03	1.797530E-16	1.414014E-17
4.270000E+03	1.827294E-16	1.434228E-17
4.280000E+03	1.857122E-16	1.454371E-17
4.290000E+03	1.886987E-16	1.474421E-17
4.300000E+03	1.916869E-16	1.494359E-17
4.310000E+03	1.946745E-16	1.514167E-17
4.320000E+03	1.976591E-16	1.533826E-17
4.330000E+03	2.006318E-16	1.553267E-17
4.340000E+03	2.035939E-16	1.572498E-17
4.350000E+03	2.065396E-16	1.591475E-17
4.360000E+03	2.094666E-16	1.610181E-17
4.370000E+03	2.123761E-16	1.628623E-17
4.380000E+03	2.152590E-16	1.646734E-17
4.390000E+03	2.181165E-16	1.664522E-17
4.400000E+03	2.209460E-16	1.681968E-17
4.410000E+03	2.237485E-16	1.699081E-17
4.420000E+03	2.265182E-16	1.715818E-17
4.430000E+03	2.292628E-16	1.732236E-17
4.440000E+03	2.319794E-16	1.748316E-17
4.450000E+03	2.346688E-16	1.764064E-17
4.460000E+03	2.373252E-16	1.779436E-17
4.470000E+03	2.399489E-16	1.794438E-17
4.480000E+03	2.425339E-16	1.809023E-17
4.490000E+03	2.450738E-16	1.823148E-17
4.500000E+03	2.475721E-16	1.836839E-17
4.510000E+03	2.500259E-16	1.850075E-17
4.520000E+03	2.524315E-16	1.862834E-17
4.530000E+03	2.547925E-16	1.875141E-17
4.540000E+03	2.571053E-16	1.886973E-17
4.550000E+03	2.593729E-16	1.898355E-17
4.560000E+03	2.615983E-16	1.909309E-17
4.570000E+03	2.637775E-16	1.919809E-17
4.580000E+03	2.659167E-16	1.929903E-17
4.590000E+03	2.680187E-16	1.939611E-17
4.600000E+03	2.700824E-16	1.948927E-17
4.610000E+03	2.721104E-16	1.957872E-17
4.620000E+03	2.741050E-16	1.966464E-17
4.630000E+03	2.760684E-16	1.974720E-17
4.640000E+03	2.780061E-16	1.982680E-17
4.650000E+03	2.799168E-16	1.990337E-17
4.660000E+03	2.818061E-16	1.997731E-17
4.670000E+03	2.836722E-16	2.004850E-17
4.680000E+03	2.855203E-16	2.011731E-17
4.690000E+03	2.873524E-16	2.018390E-17
4.700000E+03	2.891702E-16	2.024837E-17
4.710000E+03	2.909786E-16	2.031109E-17
4.720000E+03	2.927794E-16	2.037218E-17
4.730000E+03	2.945707E-16	2.043149E-17
4.740000E+03	2.963611E-16	2.048962E-17
4.750000E+03	2.981485E-16	2.054644E-17
4.760000E+03	2.999385E-16	2.060230E-17
4.770000E+03	3.017287E-16	2.065705E-17
4.780000E+03	3.035212E-16	2.071082E-17
4.790000E+03	3.053101E-16	2.076320E-17
4.800000E+03	3.071011E-16	2.081458E-17
4.810000E+03	3.088814E-16	2.086408E-17
4.820000E+03	3.106606E-16	2.091234E-17
4.830000E+03	3.124263E-16	2.095853E-17
4.840000E+03	3.141810E-16	2.100283E-17
4.850000E+03	3.159236E-16	2.104516E-17
4.860000E+03	3.176533E-16	2.108546E-17
4.870000E+03	3.193654E-16	2.112344E-17
4.880000E+03	3.210631E-16	2.115931E-17
4.890000E+03	3.227423E-16	2.119280E-17
4.900000E+03	3.244026E-16	2.122390E-17
4.910000E+03	3.260478E-16	2.125285E-17
4.920000E+03	3.276703E-16	2.127918E-17
4.930000E+03	3.292737E-16	2.130313E-17
4.940000E+03	3.308584E-16	2.132472E-17
4.950000E+03	3.324245E-16	2.134397E-17
4.960000E+03	3.339687E-16	2.136068E-17
4.970000E+03	3.354950E-16	2.137512E-17
4.980000E+03	3.370040E-16	2.138731E-17
4.990000E+03	3.384923E-16	2.139707E-17
5.000000E+03	3.399644E-16	2.140469E-17
5.010000E+03	3.414172E-16	2.140996E-17
5.020000E+03	3.428514E-16	2.141294E-17
5.030000E+03	3.442716E-16	2.141394E-17
5.040000E+03	3.456785E-16	2.141299E-17
5.050000E+03	3.470654E-16	2.140969E-17
5.060000E+03	3.484408E-16	2.140456E-17
5.070000E+03	3.498059E-16	2.139769E-17
5.080000E+03	3.511537E-16	2.138865E-17
5.090000E+03	3.524930E-16	2.137798E-17
5.100000E+03	3.538247E-16	2.136573E-17
5.110000E+03	3.551423E-16	2.135152E-17
5.120000E+03	3.564585E-16	2.133611E-17
5.130000E+03	3.577625E-16	2.131885E-17
5.140000E+03	3.590634E-16	2.130029E-17
5.150000E+03	3.603582E-16	2.128025E-17
5.160000E+03	3.616520E-16	2.125902E-17
5.170000E+03	3.629419E-16	2.123643E-17
5.180000E+03	3.642330E-16	2.121278E-17
5.190000E+03	3.655225E-16	2.118789E-17
5.200000E+03	3.668115E-16	2.116183E-17
5.210000E+03	3.681049E-16	2.113488E-17
5.220000E+03	3.693999E-16	2.110686E-17
5.230000E+03	3.707015E-16	2.107805E-17
5.240000E+03	3.720068E-16	2.104828E-17
5.250000E+03	3.733169E-16	2.101760E-17
5.260000E+03	3.746368E-16	2.098629E-17
5.270000E+03	3.759674E-16	2.095438E-17
5.280000E+03	3.773020E-16	2.092148E-17
5.290000E+03	3.786495E-16	2.088807E-17
5.300000E+03	3.800068E-16	2.085399E-17
5.310000E+03	3.813789E-16	2.081947E-17
5.320000E+03	3.827629E-16	2.078435E-17
5.330000E+03	3.841596E-16	2.074866E-17
5.340000E+03	3.855701E-16	2.071244E-17
5.350000E+03	3.869954E-16	2.067572E-17
5.360000E+03	3.884362E-16	2.063853E-17
5.370000E+03	3.898937E-16	2.060091E-17
5.380000E+03	3.913685E-16	2.056288E-17
5.390000E+03	3.928579E-16	2.052428E-17
5.400000E+03	3.943706E-16	2.048553E-17
5.410000E+03	3.958995E-16	2.044626E-17
5.420000E+03	3.974455E-16	2.040648E-17
5.430000E+03	3.990136E-16	2.036644E-17
5.440000E+03	4.006006E-16	2.032595E-17
5.450000E+03	4.022074E-16	2.028504E-17
5.460000E+03	4.038390E-16	2.024393E-17
5.470000E+03	4.054922E-16	2.020244E-17
5.480000E+03	4.071680E-16	2.016059E-17
5.490000E+03	4.088712E-16	2.011861E-17
5.500000E+03	4.105988E-16	2.007631E-17
5.510000E+03	4.123599E-16	2.003412E-17
5.520000E+03	4.141514E-16	1.999184E-17
5.530000E+03	4.159823E-16	1.994990E-17
5.540000E+03	4.178500E-16	1.990811E-17
5.550000E+03	4.197510E-16	1.986629E-17
5.560000E+03	4.216862E-16	1.982443E-17
5.570000E+03	4.236570E-16	1.978258E-17
5.580000E+03	4.256641E-16	1.974073E-17
5.590000E+03	4.277087E-16	1.969891E-17
5.600000E+03	4.297874E-16	1.965692E-17
5.610000E+03	4.319101E-16	1.961518E-17
5.620000E+03	4.340690E-16	1.957329E-17
5.630000E+03	4.362696E-16	1.953149E-17
5.640000E+03	4.385173E-16	1.948995E-17
5.650000E+03	4.408046E-16	1.944832E-17
5.660000E+03	4.431369E-16	1.940678E-17
5.670000E+03	4.455153E-16	1.936536E-17
5.680000E+03	4.479410E-16	1.932406E-17
5.690000E+03	4.504152E-16	1.928290E-17
5.700000E+03	4.529433E-16	1.924205E-17
5.710000E+03	4.555178E-16	1.920116E-17
5.720000E+03	4.581441E-16	1.916042E-17
5.730000E+03	4.608236E-16	1.911984E-17
5.740000E+03	4.635572E-16	1.907941E-17
5.750000E+03	4.663464E-16	1.903916E-17
5.760000E+03	4.691920E-16	1.899907E-17
5.770000E+03	4.720908E-16	1.895896E-17
5.780000E+03	4.750484E-16	1.891904E-17
5.790000E+03	4.780660E-16	1.887929E-17
5.800000E+03	4.811401E-16	1.883953E-17
5.810000E+03	4.842764E-16	1.879995E-17
5.820000E+03	4.874712E-16	1.876037E-17
5.830000E+03	4.907255E-16	1.872078E-17
5.840000E+03	4.940403E-16	1.868118E-17
5.850000E+03	4.974166E-16	1.864157E-17
5.860000E+03	5.008551E-16	1.860195E-17
5.870000E+03	5.043568E-16	1.856232E-17
5.880000E+03	5.079175E-16	1.852249E-17
5.890000E+03	5.115427E-16	1.848264E-17
5.900000E+03	5.152233E-16	1.844240E-17
5.910000E+03	5.189696E-16	1.840213E-17
5.920000E+03	5.227722E-16	1.836146E-17
5.930000E+03	5.266363E-16	1.832058E-17
5.940000E+03	5.305570E-16	1.827928E-17
5.950000E+03	5.345344E-16	1.823758E-17
5.960000E+03	5.385684E-16	1.819547E-17
5.970000E+03	5.426538E-16	1.815276E-17
5.980000E+03	5.467899E-16	1.810945E-17
5.990000E+03	5.509816E-16	1.806572E-17
6.000000E+03	5.552123E-16	1.802104E-17
6.010000E+03	5.594918E-16	1.797575E-17
6.020000E+03	5.638133E-16	1.792969E-17
6.030000E+03	5.681759E-16	1.788285E-17
6.040000E+03	5.725667E-16	1.783488E-17
6.050000E+03	5.769896E-16	1.778599E-17
6.060000E+03	5.814424E-16	1.773616E-17
6.070000E+03	5.859172E-16	1.768523E-17
6.080000E+03	5.904058E-16	1.763307E-17
6.090000E+03	5.949108E-16	1.757984E-17
6.100000E+03	5.994235E-16	1.752541E-17
6.110000E+03	6.039400E-16	1.746979E-17
6.120000E+03	6.084569E-16	1.741302E-17
6.130000E+03	6.129701E-16	1.735514E-17
6.140000E+03	6.174690E-16	1.729600E-17
6.150000E+03	6.219612E-16	1.723601E-17
6.160000E+03	6.264418E-16	1.717520E-17
6.170000E+03	6.308997E-16	1.711346E-17
6.180000E+03	6.353356E-16	1.705104E-17
6.190000E+03	6.397501E-16	1.698816E-17
6.200000E+03	6.441249E-16	1.692456E-17
6.210000E+03	6.484664E-16	1.686068E-17
6.220000E+03	6.527685E-16	1.679662E-17
6.230000E+03	6.570120E-16	1.673214E-17
6.240000E+03	6.611971E-16	1.666755E-17
6.250000E+03	6.653174E-16	1.660300E-17
6.260000E+03	6.693662E-16	1.653863E-17
6.270000E+03	6.733431E-16	1.647476E-17
6.280000E+03	6.772413E-16	1.641157E-17
6.290000E+03	6.810468E-16	1.634905E-17
6.300000E+03	6.847726E-16	1.628789E-17
6.310000E+03	6.883980E-16	1.622794E-17
6.320000E+03	6.919292E-16	1.616974E-17
6.330000E+03	6.953519E-16	1.611332E-17
6.340000E+03	6.986803E-16	1.605938E-17
6.350000E+03	7.018934E-16	1.600784E-17
6.360000E+03	7.049991E-16	1.595924E-17
6.370000E+03	7.079914E-16	1.591385E-17
6.380000E+03	7.108726E-16	1.587207E-17
6.390000E+03	7.136313E-16	1.583404E-17
6.400000E+03	7.162860E-16	1.580052E-17
6.410000E+03	7.188351E-16	1.577184E-17
6.420000E+03	7.212711E-16	1.574817E-17
6.430000E+03	7.236103E-16	1.573020E-17
6.440000E+03	7.258632E-16	1.571848E-17
6.450000E+03	7.280294E-16	1.571328E-17
6.460000E+03	7.301080E-16	1.571486E-17
6.470000E+03	7.320911E-16	1.572333E-17
6.480000E+03	7.339882E-16	1.573913E-17
6.490000E+03	7.357949E-16	1.576237E-17
6.500000E+03	7.375083E-16	1.579320E-17
6.510000E+03	7.391266E-16	1.583157E-17
6.520000E+03	7.406485E-16	1.587740E-17
6.530000E+03	7.420663E-16	1.593041E-17
6.540000E+03	7.433802E-16	1.599048E-17
6.550000E+03	7.445834E-16	1.605731E-17
6.560000E+03	7.456851E-16	1.613093E-17
6.570000E+03	7.466710E-16	1.621083E-17
6.580000E+03	7.475508E-16	1.629702E-17
6.590000E+03	7.483268E-16	1.638930E-17
6.600000E+03	7.489928E-16	1.648729E-17
6.610000E+03	7.495510E-16	1.659078E-17
6.620000E+03	7.500036E-16	1.669955E-17
6.630000E+03	7.503444E-16	1.681316E-17
6.640000E+03	7.505921E-16	1.693175E-17
6.650000E+03	7.507405E-16	1.705486E-17
6.660000E+03	7.507916E-16	1.718226E-17
6.670000E+03	7.507394E-16	1.731347E-17
6.680000E+03	7.506023E-16	1.744863E-17
6.690000E+03	7.503653E-16	1.758706E-17
6.700000E+03	7.500474E-16	1.772890E-17
6.710000E+03	7.496334E-16	1.787349E-17
6.720000E+03	7.491420E-16	1.802095E-17
6.730000E+03	7.485664E-16	1.817082E-17
6.740000E+03	7.479169E-16	1.832307E-17
6.750000E+03	7.471865E-16	1.847721E-17
6.760000E+03	7.463771E-16	1.863302E-17
6.770000E+03	7.454988E-16	1.879045E-17
6.780000E+03	7.445447E-16	1.894906E-17
6.790000E+03	7.435249E-16	1.910885E-17
6.800000E+03	7.424411E-16	1.926959E-17
6.810000E+03	7.412948E-16	1.943107E-17
6.820000E+03	7.400794E-16	1.959288E-17
6.830000E+03	7.388048E-16	1.975504E-17
6.840000E+03	7.374730E-16	1.991737E-17
6.850000E+03	7.360940E-16	2.007992E-17
6.860000E+03	7.346525E-16	2.024207E-17
6.870000E+03	7.331588E-16	2.040390E-17
6.880000E+03	7.316146E-16	2.056525E-17
6.890000E+03	7.300219E-16	2.072598E-17
6.900000E+03	7.283824E-16	2.088598E-17
6.910000E+03	7.267066E-16	2.104536E-17
6.920000E+03	7.249877E-16	2.120376E-17
6.930000E+03	7.232191E-16	2.136085E-17
6.940000E+03	7.214200E-16	2.151701E-17
6.950000E+03	7.195839E-16	2.167193E-17
6.960000E+03	7.177210E-16	2.182578E-17
6.970000E+03	7.158167E-16	2.197797E-17
6.980000E+03	7.138900E-16	2.212898E-17
6.990000E+03	7.119258E-16	2.227821E-17
7.000000E+03	7.099434E-16	2.242616E-17
7.010000E+03	7.079452E-16	2.257280E-17
7.020000E+03	7.059161E-16	2.271756E-17
7.030000E+03	7.038755E-16	2.286097E-17
7.040000E+03	7.018084E-16	2.300246E-17
7.050000E+03	6.997346E-16	2.314258E-17
7.060000E+03	6.976474E-16	2.328106E-17
7.070000E+03	6.955494E-16	2.341791E-17
7.080000E+03	6.934428E-16	2.355314E-17
7.090000E+03	6.913386E-16	2.368706E-17
7.100000E+03	6.892221E-16	2.381913E-17
7.110000E+03	6.871129E-16	2.394996E-17
7.120000E+03	6.849961E-16	2.407901E-17
7.130000E+03	6.828914E-16	2.420691E-17
7.140000E+03	6.807926E-16	2.433343E-17
7.150000E+03	6.787023E-16	2.445862E-17
7.160000E+03	6.766229E-16	2.458255E-17
7.170000E+03	6.745567E-16	2.470528E-17
7.180000E+03	6.725065E-16	2.482689E-17
7.190000E+03	6.704747E-16	2.494747E-17
7.200000E+03	6.684721E-16	2.506741E-17
7.210000E+03	6.664846E-16	2.518618E-17
7.220000E+03	6.645312E-16	2.530449E-17
7.230000E+03	6.625980E-16	2.542182E-17
7.240000E+03	6.607040E-16	2.553891E-17
7.250000E+03	6.588435E-16	2.565554E-17
7.260000E+03	6.570188E-16	2.577183E-17
7.270000E+03	6.552326E-16	2.588789E-17
7.280000E+03	6.534958E-16	2.600418E-17
7.290000E+03	6.517939E-16	2.612015E-17
7.300000E+03	6.501465E-16	2.623660E-17
7.310000E+03	6.485473E-16	2.635332E-17
7.320000E+03	6.469990E-16	2.647045E-17
7.330000E+03	6.455125E-16	2.658847E-17
7.340000E+03	6.440815E-16	2.670716E-17
7.350000E+03	6.427089E-16	2.682668E-17
7.360000E+03	6.413967E-16	2.694716E-17
7.370000E+03	6.401556E-16	2.706909E-17
7.380000E+03	6.389716E-16	2.719194E-17
7.390000E+03	6.378634E-16	2.731654E-17
7.400000E+03	6.368333E-16	2.744305E-17
7.410000E+03	6.358670E-16	2.757090E-17
7.420000E+03	6.349748E-16	2.770060E-17
7.430000E+03	6.341591E-16	2.783231E-17
7.440000E+03	6.334300E-16	2.796653E-17
7.450000E+03	6.327731E-16	2.810267E-17
7.460000E+03	6.321985E-16	2.824127E-17
7.470000E+03	6.317082E-16	2.838245E-17
7.480000E+03	6.313041E-16	2.852638E-17
7.490000E+03	6.309877E-16	2.867317E-17
7.500000E+03	6.307608E-16	2.882299E-17
7.510000E+03	6.306249E-16	2.897596E-17
7.520000E+03	6.305814E-16	2.913222E-17
7.530000E+03	6.306234E-16	2.929152E-17
7.540000E+03	6.307688E-16	2.945475E-17
7.550000E+03	6.310022E-16	2.962126E-17
7.560000E+03	6.313327E-16	2.979155E-17
7.570000E+03	6.317617E-16	2.996575E-17
7.580000E+03	6.322813E-16	3.014356E-17
7.590000E+03	6.328924E-16	3.032508E-17
7.600000E+03	6.336126E-16	3.051122E-17
7.610000E+03	6.344255E-16	3.070126E-17
7.620000E+03	6.353318E-16	3.089530E-17
7.630000E+03	6.363315E-16	3.109341E-17
7.640000E+03	6.374337E-16	3.129608E-17
7.650000E+03	6.386389E-16	3.150342E-17
7.660000E+03	6.399300E-16	3.171464E-17
7.670000E+03	6.413243E-16	3.193067E-17
7.680000E+03	6.428135E-16	3.215114E-17
7.690000E+03	6.443977E-16	3.237613E-17
7.700000E+03	6.460856E-16	3.260614E-17
7.710000E+03	6.478686E-16	3.284079E-17
7.720000E+03	6.497468E-16	3.308016E-17
7.730000E+03	6.517203E-16	3.332430E-17
7.740000E+03	6.537977E-16	3.357371E-17
7.750000E+03	6.559707E-16	3.382803E-17
7.760000E+03	6.582390E-16	3.408731E-17
