#wls	flux	fluxerr
1.600000E+03	2.072642E-17	4.548721E-18
1.640000E+03	2.071201E-17	4.537897E-18
1.680000E+03	2.070362E-17	4.528197E-18
1.720000E+03	2.070882E-17	4.521267E-18
1.760000E+03	2.072388E-17	4.516269E-18
1.800000E+03	2.074883E-17	4.513198E-18
1.840000E+03	2.078746E-17	4.512855E-18
1.880000E+03	2.083608E-17	4.514419E-18
1.920000E+03	2.090216E-17	4.519488E-18
1.960000E+03	2.098203E-17	4.527239E-18
2.000000E+03	2.107573E-17	4.537653E-18
2.040000E+03	2.118702E-17	4.551511E-18
2.080000E+03	2.131594E-17	4.568789E-18
2.120000E+03	2.146253E-17	4.589461E-18
2.160000E+03	2.162688E-17	4.613508E-18
2.200000E+03	2.181639E-17	4.642466E-18
2.240000E+03	2.202745E-17	4.675519E-18
2.280000E+03	2.226015E-17	4.712636E-18
2.320000E+03	2.252189E-17	4.755330E-18
2.360000E+03	2.280910E-17	4.802786E-18
2.400000E+03	2.312553E-17	4.855728E-18
2.440000E+03	2.347494E-17	4.914876E-18
2.480000E+03	2.385744E-17	4.980171E-18
2.520000E+03	2.427680E-17	5.052314E-18
2.560000E+03	2.473312E-17	5.131236E-18
2.600000E+03	2.523383E-17	5.218374E-18
2.640000E+03	2.577908E-17	5.313642E-18
2.680000E+03	2.637260E-17	5.417688E-18
2.720000E+03	2.702184E-17	5.531902E-18
2.760000E+03	2.772689E-17	5.656151E-18
2.800000E+03	2.849150E-17	5.791037E-18
2.840000E+03	2.932671E-17	5.938621E-18
2.880000E+03	3.023621E-17	6.099441E-18
2.920000E+03	3.122363E-17	6.274009E-18
2.960000E+03	3.229623E-17	6.463537E-18
3.000000E+03	3.346115E-17	6.669186E-18
3.010000E+03	3.377139E-17	6.723996E-18
3.020000E+03	3.408552E-17	6.779416E-18
3.030000E+03	3.440355E-17	6.835441E-18
3.040000E+03	3.473284E-17	6.893533E-18
3.050000E+03	3.506602E-17	6.952219E-18
3.060000E+03	3.540674E-17	7.012221E-18
3.070000E+03	3.575502E-17	7.073535E-18
3.080000E+03	3.611084E-17	7.136151E-18
3.090000E+03	3.647418E-17	7.200061E-18
3.100000E+03	3.684504E-17	7.265256E-18
3.110000E+03	3.722341E-17	7.331730E-18
3.120000E+03	3.760925E-17	7.399469E-18
3.130000E+03	3.800628E-17	7.469196E-18
3.140000E+03	3.840705E-17	7.539442E-18
3.150000E+03	3.881897E-17	7.611655E-18
3.160000E+03	3.924202E-17	7.685822E-18
3.170000E+03	3.966875E-17	7.760477E-18
3.180000E+03	4.010658E-17	7.837065E-18
3.190000E+03	4.055545E-17	7.915570E-18
3.200000E+03	4.101166E-17	7.995254E-18
3.210000E+03	4.147888E-17	8.076831E-18
3.220000E+03	4.195337E-17	8.159562E-18
3.230000E+03	4.244252E-17	8.244878E-18
3.240000E+03	4.293889E-17	8.331322E-18
3.250000E+03	4.344614E-17	8.419597E-18
3.260000E+03	4.396054E-17	8.508970E-18
3.270000E+03	4.448946E-17	8.600862E-18
3.280000E+03	4.502916E-17	8.694538E-18
3.290000E+03	4.557960E-17	8.789979E-18
3.300000E+03	4.614444E-17	8.887882E-18
3.310000E+03	4.671620E-17	8.986797E-18
3.320000E+03	4.730227E-17	9.088137E-18
3.330000E+03	4.789888E-17	9.191163E-18
3.340000E+03	4.850969E-17	9.296570E-18
3.350000E+03	4.913464E-17	9.404333E-18
3.360000E+03	4.976996E-17	9.513718E-18
3.370000E+03	5.041928E-17	9.625412E-18
3.380000E+03	5.108255E-17	9.739389E-18
3.390000E+03	5.175597E-17	9.854914E-18
3.400000E+03	5.244691E-17	9.973379E-18
3.410000E+03	5.315156E-17	1.009405E-17
3.420000E+03	5.386984E-17	1.021689E-17
3.430000E+03	5.460539E-17	1.034258E-17
3.440000E+03	5.535065E-17	1.046968E-17
3.450000E+03	5.611671E-17	1.060026E-17
3.460000E+03	5.689602E-17	1.073290E-17
3.470000E+03	5.768846E-17	1.086754E-17
3.480000E+03	5.850136E-17	1.100557E-17
3.490000E+03	5.932717E-17	1.114554E-17
3.500000E+03	6.016948E-17	1.128811E-17
3.510000E+03	6.102816E-17	1.143324E-17
3.520000E+03	6.190679E-17	1.158159E-17
3.530000E+03	6.280150E-17	1.173242E-17
3.540000E+03	6.371216E-17	1.188568E-17
3.550000E+03	6.464231E-17	1.204202E-17
3.560000E+03	6.559181E-17	1.220140E-17
3.570000E+03	6.655674E-17	1.236307E-17
3.580000E+03	6.754438E-17	1.252837E-17
3.590000E+03	6.854712E-17	1.269585E-17
3.600000E+03	6.956845E-17	1.286617E-17
3.610000E+03	7.061190E-17	1.303993E-17
3.620000E+03	7.167355E-17	1.321642E-17
3.630000E+03	7.275688E-17	1.339624E-17
3.640000E+03	7.385796E-17	1.357865E-17
3.650000E+03	7.498027E-17	1.376428E-17
3.660000E+03	7.612354E-17	1.395305E-17
3.670000E+03	7.728753E-17	1.414490E-17
3.680000E+03	7.847564E-17	1.434043E-17
3.690000E+03	7.968028E-17	1.453823E-17
3.700000E+03	8.090842E-17	1.473956E-17
3.710000E+03	8.215992E-17	1.494436E-17
3.720000E+03	8.343069E-17	1.515187E-17
3.730000E+03	8.472407E-17	1.536268E-17
3.740000E+03	8.603985E-17	1.557672E-17
3.750000E+03	8.737756E-17	1.579389E-17
3.760000E+03	8.873692E-17	1.601412E-17
3.770000E+03	9.011762E-17	1.623732E-17
3.780000E+03	9.152286E-17	1.646405E-17
3.790000E+03	9.295219E-17	1.669420E-17
3.800000E+03	9.440173E-17	1.692706E-17
3.810000E+03	9.587826E-17	1.716382E-17
3.820000E+03	9.737410E-17	1.740307E-17
3.830000E+03	9.889245E-17	1.764537E-17
3.840000E+03	1.004329E-16	1.789062E-17
3.850000E+03	1.019986E-16	1.813935E-17
3.860000E+03	1.035854E-16	1.839081E-17
3.870000E+03	1.051965E-16	1.864555E-17
3.880000E+03	1.068314E-16	1.890343E-17
3.890000E+03	1.084859E-16	1.916371E-17
3.900000E+03	1.101633E-16	1.942694E-17
3.910000E+03	1.118628E-16	1.969295E-17
3.920000E+03	1.135841E-16	1.996167E-17
3.930000E+03	1.153266E-16	2.023296E-17
3.940000E+03	1.170896E-16	2.050670E-17
3.950000E+03	1.188762E-16	2.078339E-17
3.960000E+03	1.206823E-16	2.106229E-17
3.970000E+03	1.225073E-16	2.134327E-17
3.980000E+03	1.243541E-16	2.162683E-17
3.990000E+03	1.262186E-16	2.191223E-17
4.000000E+03	1.281003E-16	2.219935E-17
4.010000E+03	1.300019E-16	2.248865E-17
4.020000E+03	1.319228E-16	2.278001E-17
4.030000E+03	1.338590E-16	2.307271E-17
4.040000E+03	1.358099E-16	2.336663E-17
4.050000E+03	1.377783E-16	2.366223E-17
4.060000E+03	1.397600E-16	2.395879E-17
4.070000E+03	1.417545E-16	2.425619E-17
4.080000E+03	1.437647E-16	2.455490E-17
4.090000E+03	1.457863E-16	2.485420E-17
4.100000E+03	1.478155E-16	2.515342E-17
4.110000E+03	1.498584E-16	2.545358E-17
4.120000E+03	1.519077E-16	2.575342E-17
4.130000E+03	1.539660E-16	2.605339E-17
4.140000E+03	1.560296E-16	2.635284E-17
4.150000E+03	1.580978E-16	2.665165E-17
4.160000E+03	1.601700E-16	2.694973E-17
4.170000E+03	1.622425E-16	2.724643E-17
4.180000E+03	1.643181E-16	2.754222E-17
4.190000E+03	1.663896E-16	2.783590E-17
4.200000E+03	1.684601E-16	2.812797E-17
4.210000E+03	1.705255E-16	2.841780E-17
4.220000E+03	1.725826E-16	2.870479E-17
4.230000E+03	1.746340E-16	2.898944E-17
4.240000E+03	1.766731E-16	2.927062E-17
4.250000E+03	1.786995E-16	2.954830E-17
4.260000E+03	1.807131E-16	2.982247E-17
4.270000E+03	1.827073E-16	3.009205E-17
4.280000E+03	1.846820E-16	3.035706E-17
4.290000E+03	1.866342E-16	3.061699E-17
4.300000E+03	1.885636E-16	3.087187E-17
4.310000E+03	1.904642E-16	3.112070E-17
4.320000E+03	1.923363E-16	3.136356E-17
4.330000E+03	1.941736E-16	3.159947E-17
4.340000E+03	1.959767E-16	3.182857E-17
4.350000E+03	1.977398E-16	3.204995E-17
4.360000E+03	1.994604E-16	3.226321E-17
4.370000E+03	2.011389E-16	3.246852E-17
4.380000E+03	2.027671E-16	3.266457E-17
4.390000E+03	2.043427E-16	3.285105E-17
4.400000E+03	2.058667E-16	3.302817E-17
4.410000E+03	2.073311E-16	3.319470E-17
4.420000E+03	2.087399E-16	3.335136E-17
4.430000E+03	2.100855E-16	3.349699E-17
4.440000E+03	2.113663E-16	3.363139E-17
4.450000E+03	2.125865E-16	3.375532E-17
4.460000E+03	2.137392E-16	3.386772E-17
4.470000E+03	2.148313E-16	3.396979E-17
4.480000E+03	2.158620E-16	3.406142E-17
4.490000E+03	2.168298E-16	3.414249E-17
4.500000E+03	2.177395E-16	3.421378E-17
4.510000E+03	2.185956E-16	3.427610E-17
4.520000E+03	2.193973E-16	3.432934E-17
4.530000E+03	2.201490E-16	3.437429E-17
4.540000E+03	2.208500E-16	3.441087E-17
4.550000E+03	2.215107E-16	3.444074E-17
4.560000E+03	2.221273E-16	3.446341E-17
4.570000E+03	2.227048E-16	3.447964E-17
4.580000E+03	2.232479E-16	3.449024E-17
4.590000E+03	2.237558E-16	3.449513E-17
4.600000E+03	2.242363E-16	3.449553E-17
4.610000E+03	2.246915E-16	3.449180E-17
4.620000E+03	2.251207E-16	3.448388E-17
4.630000E+03	2.255289E-16	3.447256E-17
4.640000E+03	2.259212E-16	3.445862E-17
4.650000E+03	2.262995E-16	3.444241E-17
4.660000E+03	2.266636E-16	3.442391E-17
4.670000E+03	2.270184E-16	3.440387E-17
4.680000E+03	2.273662E-16	3.438268E-17
4.690000E+03	2.277069E-16	3.436031E-17
4.700000E+03	2.280427E-16	3.433712E-17
4.710000E+03	2.283786E-16	3.431387E-17
4.720000E+03	2.287119E-16	3.429016E-17
4.730000E+03	2.290474E-16	3.426674E-17
4.740000E+03	2.293824E-16	3.424319E-17
4.750000E+03	2.297193E-16	3.421989E-17
4.760000E+03	2.300630E-16	3.419756E-17
4.770000E+03	2.304132E-16	3.417617E-17
4.780000E+03	2.307721E-16	3.415605E-17
4.790000E+03	2.311445E-16	3.413789E-17
4.800000E+03	2.315297E-16	3.412162E-17
4.810000E+03	2.319350E-16	3.410827E-17
4.820000E+03	2.323621E-16	3.409809E-17
4.830000E+03	2.328124E-16	3.409131E-17
4.840000E+03	2.332930E-16	3.408889E-17
4.850000E+03	2.338047E-16	3.409099E-17
4.860000E+03	2.343539E-16	3.409849E-17
4.870000E+03	2.349414E-16	3.411149E-17
4.880000E+03	2.355675E-16	3.413001E-17
4.890000E+03	2.362352E-16	3.415445E-17
4.900000E+03	2.369493E-16	3.418548E-17
4.910000E+03	2.377044E-16	3.422230E-17
4.920000E+03	2.385051E-16	3.426554E-17
4.930000E+03	2.393508E-16	3.431507E-17
4.940000E+03	2.402431E-16	3.437111E-17
4.950000E+03	2.411784E-16	3.443311E-17
4.960000E+03	2.421583E-16	3.450126E-17
4.970000E+03	2.431841E-16	3.457571E-17
4.980000E+03	2.442495E-16	3.465550E-17
4.990000E+03	2.453608E-16	3.474151E-17
5.000000E+03	2.465113E-16	3.483277E-17
5.010000E+03	2.477025E-16	3.492940E-17
5.020000E+03	2.489326E-16	3.503117E-17
5.030000E+03	2.502027E-16	3.513817E-17
5.040000E+03	2.515088E-16	3.524981E-17
5.050000E+03	2.528519E-16	3.536621E-17
5.060000E+03	2.542306E-16	3.548711E-17
5.070000E+03	2.556430E-16	3.561227E-17
5.080000E+03	2.570879E-16	3.574144E-17
5.090000E+03	2.585635E-16	3.587438E-17
5.100000E+03	2.600683E-16	3.601085E-17
5.110000E+03	2.616036E-16	3.615099E-17
5.120000E+03	2.631677E-16	3.629456E-17
5.130000E+03	2.647593E-16	3.644135E-17
5.140000E+03	2.663741E-16	3.659075E-17
5.150000E+03	2.680133E-16	3.674291E-17
5.160000E+03	2.696785E-16	3.689803E-17
5.170000E+03	2.713625E-16	3.705509E-17
5.180000E+03	2.730668E-16	3.721430E-17
5.190000E+03	2.747931E-16	3.737586E-17
5.200000E+03	2.765368E-16	3.753916E-17
5.210000E+03	2.782970E-16	3.770403E-17
5.220000E+03	2.800723E-16	3.787030E-17
5.230000E+03	2.818645E-16	3.803817E-17
5.240000E+03	2.836664E-16	3.820669E-17
5.250000E+03	2.854827E-16	3.837648E-17
5.260000E+03	2.873096E-16	3.854700E-17
5.270000E+03	2.891487E-16	3.871848E-17
5.280000E+03	2.909931E-16	3.889000E-17
5.290000E+03	2.928448E-16	3.906179E-17
5.300000E+03	2.947027E-16	3.923373E-17
5.310000E+03	2.965659E-16	3.940569E-17
5.320000E+03	2.984335E-16	3.957756E-17
5.330000E+03	3.003016E-16	3.974880E-17
5.340000E+03	3.021691E-16	3.991929E-17
5.350000E+03	3.040385E-16	4.008936E-17
5.360000E+03	3.059027E-16	4.025807E-17
5.370000E+03	3.077670E-16	4.042613E-17
5.380000E+03	3.096216E-16	4.059225E-17
5.390000E+03	3.114718E-16	4.075716E-17
5.400000E+03	3.133138E-16	4.092035E-17
5.410000E+03	3.151406E-16	4.108093E-17
5.420000E+03	3.169580E-16	4.123966E-17
5.430000E+03	3.187556E-16	4.139522E-17
5.440000E+03	3.205329E-16	4.154754E-17
5.450000E+03	3.222858E-16	4.169615E-17
5.460000E+03	3.240107E-16	4.184055E-17
5.470000E+03	3.256969E-16	4.197945E-17
5.480000E+03	3.273406E-16	4.211236E-17
5.490000E+03	3.289409E-16	4.223921E-17
5.500000E+03	3.304940E-16	4.235955E-17
5.510000E+03	3.320024E-16	4.247375E-17
5.520000E+03	3.334790E-16	4.258349E-17
5.530000E+03	3.349235E-16	4.268876E-17
5.540000E+03	3.363424E-16	4.279042E-17
5.550000E+03	3.377422E-16	4.288932E-17
5.560000E+03	3.391264E-16	4.298593E-17
5.570000E+03	3.404952E-16	4.308029E-17
5.580000E+03	3.418520E-16	4.317287E-17
5.590000E+03	3.432042E-16	4.326459E-17
5.600000E+03	3.445451E-16	4.335464E-17
5.610000E+03	3.458819E-16	4.344394E-17
5.620000E+03	3.472153E-16	4.353259E-17
5.630000E+03	3.485424E-16	4.362024E-17
5.640000E+03	3.498706E-16	4.370783E-17
5.650000E+03	3.511973E-16	4.379504E-17
5.660000E+03	3.525266E-16	4.388241E-17
5.670000E+03	3.538594E-16	4.397006E-17
5.680000E+03	3.551967E-16	4.405813E-17
5.690000E+03	3.565357E-16	4.414626E-17
5.700000E+03	3.578848E-16	4.423553E-17
5.710000E+03	3.592414E-16	4.432561E-17
5.720000E+03	3.606105E-16	4.441713E-17
5.730000E+03	3.619894E-16	4.450978E-17
5.740000E+03	3.633797E-16	4.460376E-17
5.750000E+03	3.647864E-16	4.469968E-17
5.760000E+03	3.662074E-16	4.479731E-17
5.770000E+03	3.676478E-16	4.489728E-17
5.780000E+03	3.691095E-16	4.499981E-17
5.790000E+03	3.705904E-16	4.510467E-17
5.800000E+03	3.720963E-16	4.521257E-17
5.810000E+03	3.736290E-16	4.532374E-17
5.820000E+03	3.751869E-16	4.543798E-17
5.830000E+03	3.767758E-16	4.555601E-17
5.840000E+03	3.783943E-16	4.567766E-17
5.850000E+03	3.800486E-16	4.580369E-17
5.860000E+03	3.817413E-16	4.593441E-17
5.870000E+03	3.834709E-16	4.606966E-17
5.880000E+03	3.852405E-16	4.620979E-17
5.890000E+03	3.870566E-16	4.635561E-17
5.900000E+03	3.889144E-16	4.650653E-17
5.910000E+03	3.908249E-16	4.666390E-17
5.920000E+03	3.927834E-16	4.682714E-17
5.930000E+03	3.947973E-16	4.699713E-17
5.940000E+03	3.968702E-16	4.717431E-17
5.950000E+03	3.990016E-16	4.735864E-17
5.960000E+03	4.011954E-16	4.755056E-17
5.970000E+03	4.034554E-16	4.775055E-17
5.980000E+03	4.057858E-16	4.795909E-17
5.990000E+03	4.081865E-16	4.817619E-17
6.000000E+03	4.106620E-16	4.840238E-17
6.010000E+03	4.132165E-16	4.863816E-17
6.020000E+03	4.158547E-16	4.888409E-17
6.030000E+03	4.185729E-16	4.913974E-17
6.040000E+03	4.213841E-16	4.940664E-17
6.050000E+03	4.242804E-16	4.968388E-17
6.060000E+03	4.272752E-16	4.997305E-17
6.070000E+03	4.303603E-16	5.027319E-17
6.080000E+03	4.335495E-16	5.058592E-17
6.090000E+03	4.368386E-16	5.091077E-17
6.100000E+03	4.402280E-16	5.124780E-17
6.110000E+03	4.437267E-16	5.159810E-17
6.120000E+03	4.473301E-16	5.196113E-17
6.130000E+03	4.510425E-16	5.233742E-17
6.140000E+03	4.548677E-16	5.272744E-17
6.150000E+03	4.588047E-16	5.313110E-17
6.160000E+03	4.628519E-16	5.354825E-17
6.170000E+03	4.670215E-16	5.398034E-17
6.180000E+03	4.713109E-16	5.442710E-17
6.190000E+03	4.757166E-16	5.488817E-17
6.200000E+03	4.802441E-16	5.536425E-17
6.210000E+03	4.848930E-16	5.585531E-17
6.220000E+03	4.896618E-16	5.636125E-17
6.230000E+03	4.945476E-16	5.688179E-17
6.240000E+03	4.995510E-16	5.741707E-17
6.250000E+03	5.046718E-16	5.796711E-17
6.260000E+03	5.098980E-16	5.853062E-17
6.270000E+03	5.152322E-16	5.910799E-17
6.280000E+03	5.206605E-16	5.969768E-17
6.290000E+03	5.261731E-16	6.029866E-17
6.300000E+03	5.317757E-16	6.091169E-17
6.310000E+03	5.374407E-16	6.153371E-17
6.320000E+03	5.431672E-16	6.216469E-17
6.330000E+03	5.489423E-16	6.280324E-17
6.340000E+03	5.547524E-16	6.344785E-17
6.350000E+03	5.605837E-16	6.409700E-17
6.360000E+03	5.664156E-16	6.474838E-17
6.370000E+03	5.722449E-16	6.540170E-17
6.380000E+03	5.780506E-16	6.605460E-17
6.390000E+03	5.838172E-16	6.670536E-17
6.400000E+03	5.895290E-16	6.735226E-17
6.410000E+03	5.951642E-16	6.799283E-17
6.420000E+03	6.007198E-16	6.862680E-17
6.430000E+03	6.061678E-16	6.925101E-17
6.440000E+03	6.114933E-16	6.986380E-17
6.450000E+03	6.166817E-16	7.046354E-17
6.460000E+03	6.217257E-16	7.104944E-17
6.470000E+03	6.266056E-16	7.161925E-17
6.480000E+03	6.313020E-16	7.217081E-17
6.490000E+03	6.358097E-16	7.270352E-17
6.500000E+03	6.401176E-16	7.321612E-17
6.510000E+03	6.442150E-16	7.370743E-17
6.520000E+03	6.480925E-16	7.417632E-17
6.530000E+03	6.517411E-16	7.462176E-17
6.540000E+03	6.551604E-16	7.504367E-17
6.550000E+03	6.583435E-16	7.544119E-17
6.560000E+03	6.612842E-16	7.581356E-17
6.570000E+03	6.639921E-16	7.616183E-17
6.580000E+03	6.664627E-16	7.648541E-17
6.590000E+03	6.686848E-16	7.678294E-17
6.600000E+03	6.706780E-16	7.705660E-17
6.610000E+03	6.724325E-16	7.730518E-17
6.620000E+03	6.739468E-16	7.752843E-17
6.630000E+03	6.752354E-16	7.772791E-17
6.640000E+03	6.762827E-16	7.790174E-17
6.650000E+03	6.771118E-16	7.805249E-17
6.660000E+03	6.777241E-16	7.818020E-17
6.670000E+03	6.781132E-16	7.828405E-17
6.680000E+03	6.782806E-16	7.836410E-17
6.690000E+03	6.782525E-16	7.842329E-17
6.700000E+03	6.780081E-16	7.845907E-17
6.710000E+03	6.775739E-16	7.847445E-17
6.720000E+03	6.769459E-16	7.846881E-17
6.730000E+03	6.761277E-16	7.844248E-17
6.740000E+03	6.751314E-16	7.839675E-17
6.750000E+03	6.739614E-16	7.833202E-17
6.760000E+03	6.726224E-16	7.824875E-17
6.770000E+03	6.711190E-16	7.814734E-17
6.780000E+03	6.694645E-16	7.802925E-17
6.790000E+03	6.676558E-16	7.789402E-17
6.800000E+03	6.657064E-16	7.774310E-17
6.810000E+03	6.636217E-16	7.757703E-17
6.820000E+03	6.613991E-16	7.739541E-17
6.830000E+03	6.590604E-16	7.720069E-17
6.840000E+03	6.566031E-16	7.699249E-17
6.850000E+03	6.540330E-16	7.677140E-17
6.860000E+03	6.513640E-16	7.653894E-17
6.870000E+03	6.485935E-16	7.629476E-17
6.880000E+03	6.457357E-16	7.604039E-17
6.890000E+03	6.427880E-16	7.577550E-17
6.900000E+03	6.397566E-16	7.550071E-17
6.910000E+03	6.366628E-16	7.521847E-17
6.920000E+03	6.334967E-16	7.492752E-17
6.930000E+03	6.302716E-16	7.462940E-17
6.940000E+03	6.269855E-16	7.432379E-17
6.950000E+03	6.236517E-16	7.401221E-17
6.960000E+03	6.202760E-16	7.369526E-17
6.970000E+03	6.168635E-16	7.337354E-17
6.980000E+03	6.134198E-16	7.304764E-17
6.990000E+03	6.099424E-16	7.271721E-17
7.000000E+03	6.064444E-16	7.238377E-17
7.010000E+03	6.029233E-16	7.204699E-17
7.020000E+03	5.993995E-16	7.170926E-17
7.030000E+03	5.958628E-16	7.136933E-17
7.040000E+03	5.923182E-16	7.102776E-17
7.050000E+03	5.887783E-16	7.068603E-17
7.060000E+03	5.852478E-16	7.034469E-17
7.070000E+03	5.817239E-16	7.000338E-17
7.080000E+03	5.782114E-16	6.966264E-17
7.090000E+03	5.747150E-16	6.932305E-17
7.100000E+03	5.712466E-16	6.898599E-17
7.110000E+03	5.678033E-16	6.865113E-17
7.120000E+03	5.643895E-16	6.831898E-17
7.130000E+03	5.610023E-16	6.798919E-17
7.140000E+03	5.576606E-16	6.766404E-17
7.150000E+03	5.543542E-16	6.734229E-17
7.160000E+03	5.510872E-16	6.702446E-17
7.170000E+03	5.478710E-16	6.671191E-17
7.180000E+03	5.447095E-16	6.640514E-17
7.190000E+03	5.415927E-16	6.610293E-17
7.200000E+03	5.385318E-16	6.580667E-17
7.210000E+03	5.355236E-16	6.551596E-17
7.220000E+03	5.325860E-16	6.523301E-17
7.230000E+03	5.297020E-16	6.495577E-17
7.240000E+03	5.268825E-16	6.468558E-17
7.250000E+03	5.241313E-16	6.442292E-17
7.260000E+03	5.214452E-16	6.416743E-17
7.270000E+03	5.188350E-16	6.392045E-17
7.280000E+03	5.162907E-16	6.368077E-17
7.290000E+03	5.138161E-16	6.344890E-17
7.300000E+03	5.114149E-16	6.322531E-17
7.310000E+03	5.090908E-16	6.301048E-17
7.320000E+03	5.068408E-16	6.280406E-17
7.330000E+03	5.046618E-16	6.260571E-17
7.340000E+03	5.025573E-16	6.241588E-17
7.350000E+03	5.005246E-16	6.223427E-17
7.360000E+03	4.985669E-16	6.206131E-17
7.370000E+03	4.966813E-16	6.189665E-17
7.380000E+03	4.948712E-16	6.174075E-17
7.390000E+03	4.931270E-16	6.159245E-17
7.400000E+03	4.914520E-16	6.145217E-17
7.410000E+03	4.898428E-16	6.131955E-17
7.420000E+03	4.883091E-16	6.119578E-17
7.430000E+03	4.868408E-16	6.107968E-17
7.440000E+03	4.854472E-16	6.097241E-17
7.450000E+03	4.841310E-16	6.087434E-17
7.460000E+03	4.828944E-16	6.078580E-17
7.470000E+03	4.817461E-16	6.070791E-17
7.480000E+03	4.806882E-16	6.064097E-17
7.490000E+03	4.797288E-16	6.058604E-17
7.500000E+03	4.788759E-16	6.054420E-17
7.510000E+03	4.781310E-16	6.051566E-17
7.520000E+03	4.775016E-16	6.050142E-17
7.530000E+03	4.769890E-16	6.050170E-17
7.540000E+03	4.765939E-16	6.051664E-17
7.550000E+03	4.763232E-16	6.054716E-17
7.560000E+03	4.761836E-16	6.059419E-17
7.570000E+03	4.761689E-16	6.065697E-17
7.580000E+03	4.762851E-16	6.073632E-17
7.590000E+03	4.765382E-16	6.083304E-17
7.600000E+03	4.769213E-16	6.094632E-17
7.610000E+03	4.774464E-16	6.107772E-17
7.620000E+03	4.780999E-16	6.122557E-17
7.630000E+03	4.788874E-16	6.139063E-17
7.640000E+03	4.798141E-16	6.157362E-17
7.650000E+03	4.808792E-16	6.177448E-17
7.660000E+03	4.820751E-16	6.199228E-17
7.670000E+03	4.834071E-16	6.222777E-17
7.680000E+03	4.848740E-16	6.248084E-17
7.690000E+03	4.864746E-16	6.275138E-17
7.700000E+03	4.882077E-16	6.303928E-17
7.710000E+03	4.900718E-16	6.334442E-17
7.720000E+03	4.920726E-16	6.366755E-17
7.730000E+03	4.941952E-16	6.400683E-17
7.740000E+03	4.964517E-16	6.436385E-17
7.750000E+03	4.988342E-16	6.473764E-17
7.760000E+03	5.013412E-16	6.512806E-17
