#wls	flux	fluxerr
1.600000E+03	2.164450E-17	1.264114E-18
1.640000E+03	2.177576E-17	1.268894E-18
1.680000E+03	2.191204E-17	1.273852E-18
1.720000E+03	2.206488E-17	1.279650E-18
1.760000E+03	2.222702E-17	1.285857E-18
1.800000E+03	2.240251E-17	1.292701E-18
1.840000E+03	2.258783E-17	1.299968E-18
1.880000E+03	2.278712E-17	1.307888E-18
1.920000E+03	2.300455E-17	1.316688E-18
1.960000E+03	2.323281E-17	1.325939E-18
2.000000E+03	2.347996E-17	1.336088E-18
2.040000E+03	2.374258E-17	1.346927E-18
2.080000E+03	2.402110E-17	1.358465E-18
2.120000E+03	2.431986E-17	1.370935E-18
2.160000E+03	2.463940E-17	1.384349E-18
2.200000E+03	2.498028E-17	1.398720E-18
2.240000E+03	2.533905E-17	1.413837E-18
2.280000E+03	2.572433E-17	1.430161E-18
2.320000E+03	2.613277E-17	1.447482E-18
2.360000E+03	2.656503E-17	1.465815E-18
2.400000E+03	2.703004E-17	1.485627E-18
2.440000E+03	2.752046E-17	1.506484E-18
2.480000E+03	2.804120E-17	1.528628E-18
2.520000E+03	2.859320E-17	1.552080E-18
2.560000E+03	2.918163E-17	1.577085E-18
2.600000E+03	2.980758E-17	1.603666E-18
2.640000E+03	3.046793E-17	1.631613E-18
2.680000E+03	3.117244E-17	1.661410E-18
2.720000E+03	3.191810E-17	1.692849E-18
2.760000E+03	3.271069E-17	1.726189E-18
2.800000E+03	3.355169E-17	1.761453E-18
2.840000E+03	3.444267E-17	1.798668E-18
2.880000E+03	3.538529E-17	1.837862E-18
2.920000E+03	3.638585E-17	1.879297E-18
2.960000E+03	3.745093E-17	1.923243E-18
3.000000E+03	3.857799E-17	1.969492E-18
3.010000E+03	3.886688E-17	1.981275E-18
3.020000E+03	3.916246E-17	1.993339E-18
3.030000E+03	3.946479E-17	2.005686E-18
3.040000E+03	3.976914E-17	2.018074E-18
3.050000E+03	4.008032E-17	2.030746E-18
3.060000E+03	4.039361E-17	2.043461E-18
3.070000E+03	4.071381E-17	2.056460E-18
3.080000E+03	4.103617E-17	2.069503E-18
3.090000E+03	4.136071E-17	2.082588E-18
3.100000E+03	4.169713E-17	2.096204E-18
3.110000E+03	4.203096E-17	2.109621E-18
3.120000E+03	4.237680E-17	2.123569E-18
3.130000E+03	4.272009E-17	2.137318E-18
3.140000E+03	4.307553E-17	2.151602E-18
3.150000E+03	4.343334E-17	2.165931E-18
3.160000E+03	4.379359E-17	2.180306E-18
3.170000E+03	4.416123E-17	2.194972E-18
3.180000E+03	4.453632E-17	2.209931E-18
3.190000E+03	4.491395E-17	2.224937E-18
3.200000E+03	4.529915E-17	2.240237E-18
3.210000E+03	4.568694E-17	2.255584E-18
3.220000E+03	4.608240E-17	2.271226E-18
3.230000E+03	4.648054E-17	2.286917E-18
3.240000E+03	4.688645E-17	2.302903E-18
3.250000E+03	4.730019E-17	2.319188E-18
3.260000E+03	4.771674E-17	2.335521E-18
3.270000E+03	4.814123E-17	2.352153E-18
3.280000E+03	4.857374E-17	2.369085E-18
3.290000E+03	4.900917E-17	2.386067E-18
3.300000E+03	4.945275E-17	2.403350E-18
3.310000E+03	4.989933E-17	2.420683E-18
3.320000E+03	5.035415E-17	2.438319E-18
3.330000E+03	5.081729E-17	2.456258E-18
3.340000E+03	5.128359E-17	2.474249E-18
3.350000E+03	5.175832E-17	2.492544E-18
3.360000E+03	5.223628E-17	2.510891E-18
3.370000E+03	5.272807E-17	2.529798E-18
3.380000E+03	5.321792E-17	2.548504E-18
3.390000E+03	5.372178E-17	2.567771E-18
3.400000E+03	5.422906E-17	2.587092E-18
3.410000E+03	5.474518E-17	2.606721E-18
3.420000E+03	5.526484E-17	2.626406E-18
3.430000E+03	5.579885E-17	2.646656E-18
3.440000E+03	5.633112E-17	2.666705E-18
3.450000E+03	5.687790E-17	2.687323E-18
3.460000E+03	5.742843E-17	2.707995E-18
3.470000E+03	5.798823E-17	2.728982E-18
3.480000E+03	5.855187E-17	2.750025E-18
3.490000E+03	5.913042E-17	2.771640E-18
3.500000E+03	5.971294E-17	2.793313E-18
3.510000E+03	6.029951E-17	2.815044E-18
3.520000E+03	6.090125E-17	2.837350E-18
3.530000E+03	6.150717E-17	2.859716E-18
3.540000E+03	6.211727E-17	2.882141E-18
3.550000E+03	6.274285E-17	2.905144E-18
3.560000E+03	6.337279E-17	2.928208E-18
3.570000E+03	6.400711E-17	2.951333E-18
3.580000E+03	6.465721E-17	2.975040E-18
3.590000E+03	6.531184E-17	2.998808E-18
3.600000E+03	6.597677E-17	3.022900E-18
3.610000E+03	6.664635E-17	3.047055E-18
3.620000E+03	6.733214E-17	3.071797E-18
3.630000E+03	6.802275E-17	3.096603E-18
3.640000E+03	6.871822E-17	3.121473E-18
3.650000E+03	6.943023E-17	3.146935E-18
3.660000E+03	7.014727E-17	3.172463E-18
3.670000E+03	7.086937E-17	3.198055E-18
3.680000E+03	7.160837E-17	3.224244E-18
3.690000E+03	7.235260E-17	3.250501E-18
3.700000E+03	7.310211E-17	3.276824E-18
3.710000E+03	7.386890E-17	3.303749E-18
3.720000E+03	7.464114E-17	3.330742E-18
3.730000E+03	7.542490E-17	3.358072E-18
3.740000E+03	7.621429E-17	3.385473E-18
3.750000E+03	7.701538E-17	3.413213E-18
3.760000E+03	7.782831E-17	3.441293E-18
3.770000E+03	7.865321E-17	3.469716E-18
3.780000E+03	7.948408E-17	3.498213E-18
3.790000E+03	8.032098E-17	3.526785E-18
3.800000E+03	8.117628E-17	3.555973E-18
3.810000E+03	8.203782E-17	3.585237E-18
3.820000E+03	8.290568E-17	3.614581E-18
3.830000E+03	8.379235E-17	3.644546E-18
3.840000E+03	8.468556E-17	3.674592E-18
3.850000E+03	8.558536E-17	3.704720E-18
3.860000E+03	8.649813E-17	3.735203E-18
3.870000E+03	8.742402E-17	3.766044E-18
3.880000E+03	8.835680E-17	3.796970E-18
3.890000E+03	8.930295E-17	3.828258E-18
3.900000E+03	9.025620E-17	3.859636E-18
3.910000E+03	9.122305E-17	3.891377E-18
3.920000E+03	9.219722E-17	3.923212E-18
3.930000E+03	9.318527E-17	3.955416E-18
3.940000E+03	9.418735E-17	3.987991E-18
3.950000E+03	9.519709E-17	4.020664E-18
3.960000E+03	9.621460E-17	4.053438E-18
3.970000E+03	9.724652E-17	4.086590E-18
3.980000E+03	9.829305E-17	4.120123E-18
3.990000E+03	9.934108E-17	4.153485E-18
4.000000E+03	1.004106E-16	4.187511E-18
4.010000E+03	1.014818E-16	4.221370E-18
4.020000E+03	1.025750E-16	4.255899E-18
4.030000E+03	1.036700E-16	4.290265E-18
4.040000E+03	1.047804E-16	4.325029E-18
4.050000E+03	1.058997E-16	4.359913E-18
4.060000E+03	1.070349E-16	4.395201E-18
4.070000E+03	1.081791E-16	4.430616E-18
4.080000E+03	1.093326E-16	4.466160E-18
4.090000E+03	1.105024E-16	4.502118E-18
4.100000E+03	1.116817E-16	4.538211E-18
4.110000E+03	1.128707E-16	4.574442E-18
4.120000E+03	1.140694E-16	4.610813E-18
4.130000E+03	1.152850E-16	4.647613E-18
4.140000E+03	1.165108E-16	4.684559E-18
4.150000E+03	1.177467E-16	4.721657E-18
4.160000E+03	1.189929E-16	4.758907E-18
4.170000E+03	1.202495E-16	4.796315E-18
4.180000E+03	1.215239E-16	4.834168E-18
4.190000E+03	1.228019E-16	4.871899E-18
4.200000E+03	1.240978E-16	4.910081E-18
4.210000E+03	1.254047E-16	4.948433E-18
4.220000E+03	1.267155E-16	4.986672E-18
4.230000E+03	1.280446E-16	5.025371E-18
4.240000E+03	1.293852E-16	5.064252E-18
4.250000E+03	1.307371E-16	5.103312E-18
4.260000E+03	1.321005E-16	5.142555E-18
4.270000E+03	1.334756E-16	5.181986E-18
4.280000E+03	1.348549E-16	5.221316E-18
4.290000E+03	1.362535E-16	5.261125E-18
4.300000E+03	1.376563E-16	5.300836E-18
4.310000E+03	1.390787E-16	5.341035E-18
4.320000E+03	1.405054E-16	5.381135E-18
4.330000E+03	1.419441E-16	5.421433E-18
4.340000E+03	1.433946E-16	5.461921E-18
4.350000E+03	1.448495E-16	5.502315E-18
4.360000E+03	1.463241E-16	5.543200E-18
4.370000E+03	1.478028E-16	5.583979E-18
4.380000E+03	1.492934E-16	5.624954E-18
4.390000E+03	1.507879E-16	5.665820E-18
4.400000E+03	1.522939E-16	5.706870E-18
4.410000E+03	1.538116E-16	5.748105E-18
4.420000E+03	1.553404E-16	5.789511E-18
4.430000E+03	1.568725E-16	5.830792E-18
4.440000E+03	1.584074E-16	5.871935E-18
4.450000E+03	1.599607E-16	5.913527E-18
4.460000E+03	1.615163E-16	5.954963E-18
4.470000E+03	1.630735E-16	5.996230E-18
4.480000E+03	1.646402E-16	6.037616E-18
4.490000E+03	1.662074E-16	6.078803E-18
4.500000E+03	1.677829E-16	6.120071E-18
4.510000E+03	1.693578E-16	6.161107E-18
4.520000E+03	1.709398E-16	6.202192E-18
4.530000E+03	1.725196E-16	6.242990E-18
4.540000E+03	1.741048E-16	6.283792E-18
4.550000E+03	1.756861E-16	6.324258E-18
4.560000E+03	1.772623E-16	6.364358E-18
4.570000E+03	1.788322E-16	6.404056E-18
4.580000E+03	1.804033E-16	6.443629E-18
4.590000E+03	1.819743E-16	6.483032E-18
4.600000E+03	1.835264E-16	6.521610E-18
4.610000E+03	1.850753E-16	6.559930E-18
4.620000E+03	1.866110E-16	6.597642E-18
4.630000E+03	1.881401E-16	6.634996E-18
4.640000E+03	1.896521E-16	6.671630E-18
4.650000E+03	1.911362E-16	6.707173E-18
4.660000E+03	1.926169E-16	6.742500E-18
4.670000E+03	1.940652E-16	6.776611E-18
4.680000E+03	1.954966E-16	6.810055E-18
4.690000E+03	1.968909E-16	6.842148E-18
4.700000E+03	1.982634E-16	6.873433E-18
4.710000E+03	1.996026E-16	6.903527E-18
4.720000E+03	2.009057E-16	6.932353E-18
4.730000E+03	2.021794E-16	6.960153E-18
4.740000E+03	2.034026E-16	6.986219E-18
4.750000E+03	2.045908E-16	7.011107E-18
4.760000E+03	2.057325E-16	7.034431E-18
4.770000E+03	2.068249E-16	7.056122E-18
4.780000E+03	2.078566E-16	7.075805E-18
4.790000E+03	2.088528E-16	7.094361E-18
4.800000E+03	2.097839E-16	7.110802E-18
4.810000E+03	2.106573E-16	7.125398E-18
4.820000E+03	2.114716E-16	7.138126E-18
4.830000E+03	2.122354E-16	7.149286E-18
4.840000E+03	2.129292E-16	7.158249E-18
4.850000E+03	2.135624E-16	7.165348E-18
4.860000E+03	2.141439E-16	7.170900E-18
4.870000E+03	2.146648E-16	7.174622E-18
4.880000E+03	2.151170E-16	7.176267E-18
4.890000E+03	2.155214E-16	7.176543E-18
4.900000E+03	2.158715E-16	7.175249E-18
4.910000E+03	2.161610E-16	7.172194E-18
4.920000E+03	2.164111E-16	7.168095E-18
4.930000E+03	2.166158E-16	7.162761E-18
4.940000E+03	2.167782E-16	7.156311E-18
4.950000E+03	2.169014E-16	7.148843E-18
4.960000E+03	2.169884E-16	7.140464E-18
4.970000E+03	2.170426E-16	7.131280E-18
4.980000E+03	2.170667E-16	7.121385E-18
4.990000E+03	2.170640E-16	7.110880E-18
5.000000E+03	2.170372E-16	7.099855E-18
5.010000E+03	2.169894E-16	7.088405E-18
5.020000E+03	2.169233E-16	7.076617E-18
5.030000E+03	2.168415E-16	7.064572E-18
5.040000E+03	2.167555E-16	7.052638E-18
5.050000E+03	2.166500E-16	7.040312E-18
5.060000E+03	2.165362E-16	7.027956E-18
5.070000E+03	2.164164E-16	7.015635E-18
5.080000E+03	2.163015E-16	7.003700E-18
5.090000E+03	2.161758E-16	6.991635E-18
5.100000E+03	2.160590E-16	6.980069E-18
5.110000E+03	2.159352E-16	6.968481E-18
5.120000E+03	2.158235E-16	6.957486E-18
5.130000E+03	2.157082E-16	6.946564E-18
5.140000E+03	2.156082E-16	6.936321E-18
5.150000E+03	2.155160E-16	6.926505E-18
5.160000E+03	2.154331E-16	6.917160E-18
5.170000E+03	2.153606E-16	6.908309E-18
5.180000E+03	2.152995E-16	6.899985E-18
5.190000E+03	2.152510E-16	6.892211E-18
5.200000E+03	2.152161E-16	6.885015E-18
5.210000E+03	2.151955E-16	6.878414E-18
5.220000E+03	2.151987E-16	6.872701E-18
5.230000E+03	2.152094E-16	6.867346E-18
5.240000E+03	2.152452E-16	6.862909E-18
5.250000E+03	2.152899E-16	6.858861E-18
5.260000E+03	2.153611E-16	6.855759E-18
5.270000E+03	2.154507E-16	6.853337E-18
5.280000E+03	2.155593E-16	6.851605E-18
5.290000E+03	2.156874E-16	6.850571E-18
5.300000E+03	2.158438E-16	6.850511E-18
5.310000E+03	2.160120E-16	6.850889E-18
5.320000E+03	2.162093E-16	6.852252E-18
5.330000E+03	2.164192E-16	6.854066E-18
5.340000E+03	2.166589E-16	6.856869E-18
5.350000E+03	2.169201E-16	6.860395E-18
5.360000E+03	2.172116E-16	6.864911E-18
5.370000E+03	2.175168E-16	6.869884E-18
5.380000E+03	2.178528E-16	6.875855E-18
5.390000E+03	2.182027E-16	6.882277E-18
5.400000E+03	2.185840E-16	6.889695E-18
5.410000E+03	2.189968E-16	6.898109E-18
5.420000E+03	2.194241E-16	6.906972E-18
5.430000E+03	2.198832E-16	6.916826E-18
5.440000E+03	2.203572E-16	6.927131E-18
5.450000E+03	2.208719E-16	6.938692E-18
5.460000E+03	2.214019E-16	6.950702E-18
5.470000E+03	2.219557E-16	6.963422E-18
5.480000E+03	2.225421E-16	6.977122E-18
5.490000E+03	2.231527E-16	6.991533E-18
5.500000E+03	2.237964E-16	7.006923E-18
5.510000E+03	2.244558E-16	7.022741E-18
5.520000E+03	2.251485E-16	7.039535E-18
5.530000E+03	2.258659E-16	7.057024E-18
5.540000E+03	2.266169E-16	7.075483E-18
5.550000E+03	2.273841E-16	7.094358E-18
5.560000E+03	2.281940E-16	7.114471E-18
5.570000E+03	2.290203E-16	7.134993E-18
5.580000E+03	2.298807E-16	7.156475E-18
5.590000E+03	2.307667E-16	7.178634E-18
5.600000E+03	2.316782E-16	7.201466E-18
5.610000E+03	2.326244E-16	7.225250E-18
5.620000E+03	2.335964E-16	7.249700E-18
5.630000E+03	2.345943E-16	7.274813E-18
5.640000E+03	2.356273E-16	7.300867E-18
5.650000E+03	2.366865E-16	7.327573E-18
5.660000E+03	2.377809E-16	7.355210E-18
5.670000E+03	2.389017E-16	7.383491E-18
5.680000E+03	2.400487E-16	7.412406E-18
5.690000E+03	2.412316E-16	7.442244E-18
5.700000E+03	2.424501E-16	7.472991E-18
5.710000E+03	2.436859E-16	7.504068E-18
5.720000E+03	2.449575E-16	7.536041E-18
5.730000E+03	2.462650E-16	7.568906E-18
5.740000E+03	2.475989E-16	7.602358E-18
5.750000E+03	2.489593E-16	7.636392E-18
5.760000E+03	2.503556E-16	7.671289E-18
5.770000E+03	2.517877E-16	7.707034E-18
5.780000E+03	2.532361E-16	7.743024E-18
5.790000E+03	2.547298E-16	7.780138E-18
5.800000E+03	2.562491E-16	7.817760E-18
5.810000E+03	2.577936E-16	7.855869E-18
5.820000E+03	2.593729E-16	7.894749E-18
5.830000E+03	2.609767E-16	7.934079E-18
5.840000E+03	2.626144E-16	7.974133E-18
5.850000E+03	2.642858E-16	8.014895E-18
5.860000E+03	2.659800E-16	8.056021E-18
5.870000E+03	2.676960E-16	8.097477E-18
5.880000E+03	2.694436E-16	8.139543E-18
5.890000E+03	2.712220E-16	8.182189E-18
5.900000E+03	2.730194E-16	8.225049E-18
5.910000E+03	2.748454E-16	8.268400E-18
5.920000E+03	2.766989E-16	8.312198E-18
5.930000E+03	2.785677E-16	8.356067E-18
5.940000E+03	2.804500E-16	8.399944E-18
5.950000E+03	2.823662E-16	8.444427E-18
5.960000E+03	2.842922E-16	8.488792E-18
5.970000E+03	2.862260E-16	8.532963E-18
5.980000E+03	2.881764E-16	8.577195E-18
5.990000E+03	2.901411E-16	8.621411E-18
6.000000E+03	2.921173E-16	8.665520E-18
6.010000E+03	2.940907E-16	8.709086E-18
6.020000E+03	2.960581E-16	8.752009E-18
6.030000E+03	2.980391E-16	8.794863E-18
6.040000E+03	3.000070E-16	8.836845E-18
6.050000E+03	3.019695E-16	8.878185E-18
6.060000E+03	3.039106E-16	8.918400E-18
6.070000E+03	3.058376E-16	8.957704E-18
6.080000E+03	3.077460E-16	8.995959E-18
6.090000E+03	3.096310E-16	9.033022E-18
6.100000E+03	3.114752E-16	9.068383E-18
6.110000E+03	3.132854E-16	9.102241E-18
6.120000E+03	3.150564E-16	9.134444E-18
6.130000E+03	3.167700E-16	9.164465E-18
6.140000E+03	3.184333E-16	9.192513E-18
6.150000E+03	3.200406E-16	9.218429E-18
6.160000E+03	3.215866E-16	9.242067E-18
6.170000E+03	3.230661E-16	9.263280E-18
6.180000E+03	3.244615E-16	9.281575E-18
6.190000E+03	3.257811E-16	9.297201E-18
6.200000E+03	3.270212E-16	9.310060E-18
6.210000E+03	3.281653E-16	9.319699E-18
6.220000E+03	3.292371E-16	9.326805E-18
6.230000E+03	3.302091E-16	9.330609E-18
6.240000E+03	3.310935E-16	9.331477E-18
6.250000E+03	3.318909E-16	9.329440E-18
6.260000E+03	3.325889E-16	9.324167E-18
6.270000E+03	3.332158E-16	9.316467E-18
6.280000E+03	3.337468E-16	9.305666E-18
6.290000E+03	3.341982E-16	9.292234E-18
6.300000E+03	3.345726E-16	9.276264E-18
6.310000E+03	3.348735E-16	9.257866E-18
6.320000E+03	3.351042E-16	9.237148E-18
6.330000E+03	3.352547E-16	9.213853E-18
6.340000E+03	3.353422E-16	9.188468E-18
6.350000E+03	3.353834E-16	9.161471E-18
6.360000E+03	3.353552E-16	9.132236E-18
6.370000E+03	3.352741E-16	9.101237E-18
6.380000E+03	3.351437E-16	9.068581E-18
6.390000E+03	3.349670E-16	9.034363E-18
6.400000E+03	3.347335E-16	8.998316E-18
6.410000E+03	3.344730E-16	8.961256E-18
6.420000E+03	3.341615E-16	8.922545E-18
6.430000E+03	3.338283E-16	8.882982E-18
6.440000E+03	3.334487E-16	8.841923E-18
6.450000E+03	3.330523E-16	8.800160E-18
6.460000E+03	3.326147E-16	8.757059E-18
6.470000E+03	3.321517E-16	8.713049E-18
6.480000E+03	3.316658E-16	8.668206E-18
6.490000E+03	3.311592E-16	8.622589E-18
6.500000E+03	3.306339E-16	8.576257E-18
6.510000E+03	3.300919E-16	8.529273E-18
6.520000E+03	3.295350E-16	8.481687E-18
6.530000E+03	3.289649E-16	8.433546E-18
6.540000E+03	3.283832E-16	8.384898E-18
6.550000E+03	3.277913E-16	8.335784E-18
6.560000E+03	3.271908E-16	8.286247E-18
6.570000E+03	3.265829E-16	8.236324E-18
6.580000E+03	3.259686E-16	8.186045E-18
6.590000E+03	3.253493E-16	8.135449E-18
6.600000E+03	3.247260E-16	8.084564E-18
6.610000E+03	3.240998E-16	8.033419E-18
6.620000E+03	3.234715E-16	7.982042E-18
6.630000E+03	3.228419E-16	7.930453E-18
6.640000E+03	3.222122E-16	7.878685E-18
6.650000E+03	3.215829E-16	7.826754E-18
6.660000E+03	3.209550E-16	7.774687E-18
6.670000E+03	3.203290E-16	7.722501E-18
6.680000E+03	3.197059E-16	7.670218E-18
6.690000E+03	3.190862E-16	7.617858E-18
6.700000E+03	3.184707E-16	7.565440E-18
6.710000E+03	3.178733E-16	7.513294E-18
6.720000E+03	3.172680E-16	7.460811E-18
6.730000E+03	3.166689E-16	7.408324E-18
6.740000E+03	3.160898E-16	7.356156E-18
6.750000E+03	3.155048E-16	7.303710E-18
6.760000E+03	3.149410E-16	7.251615E-18
6.770000E+03	3.143728E-16	7.199278E-18
6.780000E+03	3.138270E-16	7.147323E-18
6.790000E+03	3.132912E-16	7.095461E-18
6.800000E+03	3.127660E-16	7.043710E-18
6.810000E+03	3.122389E-16	6.991794E-18
6.820000E+03	3.117369E-16	6.940318E-18
6.830000E+03	3.112476E-16	6.889005E-18
6.840000E+03	3.107845E-16	6.838156E-18
6.850000E+03	3.103224E-16	6.787216E-18
6.860000E+03	3.098749E-16	6.736487E-18
6.870000E+03	3.094429E-16	6.685989E-18
6.880000E+03	3.090401E-16	6.636021E-18
6.890000E+03	3.086412E-16	6.586035E-18
6.900000E+03	3.082599E-16	6.536335E-18
6.910000E+03	3.079100E-16	6.487209E-18
6.920000E+03	3.075793E-16	6.438400E-18
6.930000E+03	3.072557E-16	6.389656E-18
6.940000E+03	3.069657E-16	6.341535E-18
6.950000E+03	3.066974E-16	6.293787E-18
6.960000E+03	3.064515E-16	6.246428E-18
6.970000E+03	3.062289E-16	6.199479E-18
6.980000E+03	3.060303E-16	6.152956E-18
6.990000E+03	3.058567E-16	6.106880E-18
7.000000E+03	3.057089E-16	6.061270E-18
7.010000E+03	3.055877E-16	6.016146E-18
7.020000E+03	3.054941E-16	5.971528E-18
7.030000E+03	3.054419E-16	5.927688E-18
7.040000E+03	3.054060E-16	5.884139E-18
7.050000E+03	3.054002E-16	5.841153E-18
7.060000E+03	3.054386E-16	5.799003E-18
7.070000E+03	3.054958E-16	5.757208E-18
7.080000E+03	3.055857E-16	5.716039E-18
7.090000E+03	3.057224E-16	5.675762E-18
7.100000E+03	3.058806E-16	5.635909E-18
7.110000E+03	3.060872E-16	5.596986E-18
7.120000E+03	3.063169E-16	5.558534E-18
7.130000E+03	3.065969E-16	5.521054E-18
7.140000E+03	3.069014E-16	5.484090E-18
7.150000E+03	3.072446E-16	5.447906E-18
7.160000E+03	3.076404E-16	5.412758E-18
7.170000E+03	3.080629E-16	5.378198E-18
7.180000E+03	3.085397E-16	5.344720E-18
7.190000E+03	3.090445E-16	5.311881E-18
7.200000E+03	3.095913E-16	5.279940E-18
7.210000E+03	3.101806E-16	5.248920E-18
7.220000E+03	3.108267E-16	5.219075E-18
7.230000E+03	3.115026E-16	5.189973E-18
7.240000E+03	3.122225E-16	5.161870E-18
7.250000E+03	3.129865E-16	5.134792E-18
7.260000E+03	3.137949E-16	5.108766E-18
7.270000E+03	3.146476E-16	5.083816E-18
7.280000E+03	3.155309E-16	5.059751E-18
7.290000E+03	3.164722E-16	5.037041E-18
7.300000E+03	3.174575E-16	5.015492E-18
7.310000E+03	3.184723E-16	4.994910E-18
7.320000E+03	3.195300E-16	4.975546E-18
7.330000E+03	3.206296E-16	4.957426E-18
7.340000E+03	3.217846E-16	4.940795E-18
7.350000E+03	3.229652E-16	4.925243E-18
7.360000E+03	3.241698E-16	4.910798E-18
7.370000E+03	3.254255E-16	4.897918E-18
7.380000E+03	3.267158E-16	4.886410E-18
7.390000E+03	3.280238E-16	4.876078E-18
7.400000E+03	3.293613E-16	4.867158E-18
7.410000E+03	3.307252E-16	4.859667E-18
7.420000E+03	3.321119E-16	4.853618E-18
7.430000E+03	3.335173E-16	4.849019E-18
7.440000E+03	3.349222E-16	4.845660E-18
7.450000E+03	3.363358E-16	4.843751E-18
7.460000E+03	3.377528E-16	4.843288E-18
7.470000E+03	3.391662E-16	4.844249E-18
7.480000E+03	3.405689E-16	4.846609E-18
7.490000E+03	3.419372E-16	4.850112E-18
7.500000E+03	3.432771E-16	4.854920E-18
7.510000E+03	3.445782E-16	4.860968E-18
7.520000E+03	3.458290E-16	4.868173E-18
7.530000E+03	3.470012E-16	4.876210E-18
7.540000E+03	3.480962E-16	4.885177E-18
7.550000E+03	3.490994E-16	4.894938E-18
7.560000E+03	3.500114E-16	4.905566E-18
7.570000E+03	3.508300E-16	4.917094E-18
7.580000E+03	3.516006E-16	4.930210E-18
7.590000E+03	3.522876E-16	4.944465E-18
7.600000E+03	3.529502E-16	4.960721E-18
7.610000E+03	3.535667E-16	4.978660E-18
7.620000E+03	3.541625E-16	4.998617E-18
7.630000E+03	3.547464E-16	5.020691E-18
7.640000E+03	3.553098E-16	5.044730E-18
7.650000E+03	3.558763E-16	5.071035E-18
7.660000E+03	3.564524E-16	5.099668E-18
7.670000E+03	3.570276E-16	5.130443E-18
7.680000E+03	3.576240E-16	5.163641E-18
7.690000E+03	3.582464E-16	5.199295E-18
7.700000E+03	3.588830E-16	5.237199E-18
7.710000E+03	3.595712E-16	5.277861E-18
7.720000E+03	3.602649E-16	5.320573E-18
7.730000E+03	3.610176E-16	5.366084E-18
7.740000E+03	3.617992E-16	5.413919E-18
7.750000E+03	3.626125E-16	5.464083E-18
7.760000E+03	3.634940E-16	5.517096E-18
