#wls	flux	fluxerr
1.600000E+03	2.200510E-17	2.811326E-18
1.640000E+03	2.219117E-17	2.826078E-18
1.680000E+03	2.238504E-17	2.841416E-18
1.720000E+03	2.259490E-17	2.858351E-18
1.760000E+03	2.281336E-17	2.875920E-18
1.800000E+03	2.304477E-17	2.894645E-18
1.840000E+03	2.328561E-17	2.914051E-18
1.880000E+03	2.354437E-17	2.935168E-18
1.920000E+03	2.381354E-17	2.957023E-18
1.960000E+03	2.409770E-17	2.980149E-18
2.000000E+03	2.439741E-17	3.004575E-18
2.040000E+03	2.471333E-17	3.030338E-18
2.080000E+03	2.504191E-17	3.056958E-18
2.120000E+03	2.539221E-17	3.085496E-18
2.160000E+03	2.576082E-17	3.115480E-18
2.200000E+03	2.614850E-17	3.146946E-18
2.240000E+03	2.655609E-17	3.179935E-18
2.280000E+03	2.698446E-17	3.214490E-18
2.320000E+03	2.743453E-17	3.250651E-18
2.360000E+03	2.790726E-17	3.288464E-18
2.400000E+03	2.840832E-17	3.328514E-18
2.440000E+03	2.893427E-17	3.370315E-18
2.480000E+03	2.948628E-17	3.413913E-18
2.520000E+03	3.006557E-17	3.459359E-18
2.560000E+03	3.067831E-17	3.507261E-18
2.600000E+03	3.132112E-17	3.557120E-18
2.640000E+03	3.199545E-17	3.608988E-18
2.680000E+03	3.270795E-17	3.663493E-18
2.720000E+03	3.345528E-17	3.720124E-18
2.760000E+03	3.424443E-17	3.779520E-18
2.800000E+03	3.507213E-17	3.841162E-18
2.840000E+03	3.594576E-17	3.905703E-18
2.880000E+03	3.686207E-17	3.972612E-18
2.920000E+03	3.782889E-17	4.042550E-18
2.960000E+03	3.884303E-17	4.114979E-18
3.000000E+03	3.991278E-17	4.190569E-18
3.010000E+03	4.018740E-17	4.209775E-18
3.020000E+03	4.047090E-17	4.229728E-18
3.030000E+03	4.075146E-17	4.249185E-18
3.040000E+03	4.104104E-17	4.269392E-18
3.050000E+03	4.132767E-17	4.289101E-18
3.060000E+03	4.162348E-17	4.309565E-18
3.070000E+03	4.192246E-17	4.330159E-18
3.080000E+03	4.222468E-17	4.350883E-18
3.090000E+03	4.253014E-17	4.371738E-18
3.100000E+03	4.283892E-17	4.392724E-18
3.110000E+03	4.315103E-17	4.413840E-18
3.120000E+03	4.346653E-17	4.435089E-18
3.130000E+03	4.379174E-17	4.457110E-18
3.140000E+03	4.411415E-17	4.478624E-18
3.150000E+03	4.444644E-17	4.500916E-18
3.160000E+03	4.477594E-17	4.522697E-18
3.170000E+03	4.511546E-17	4.545259E-18
3.180000E+03	4.545869E-17	4.567958E-18
3.190000E+03	4.580566E-17	4.590793E-18
3.200000E+03	4.615643E-17	4.613766E-18
3.210000E+03	4.651103E-17	4.636875E-18
3.220000E+03	4.686950E-17	4.660121E-18
3.230000E+03	4.723857E-17	4.684164E-18
3.240000E+03	4.760498E-17	4.707686E-18
3.250000E+03	4.798215E-17	4.732009E-18
3.260000E+03	4.835670E-17	4.755808E-18
3.270000E+03	4.874216E-17	4.780410E-18
3.280000E+03	4.913187E-17	4.805153E-18
3.290000E+03	4.952586E-17	4.830036E-18
3.300000E+03	4.992419E-17	4.855059E-18
3.310000E+03	5.032692E-17	4.880223E-18
3.320000E+03	5.073407E-17	4.905525E-18
3.330000E+03	5.114573E-17	4.930967E-18
3.340000E+03	5.156900E-17	4.957229E-18
3.350000E+03	5.198982E-17	4.982949E-18
3.360000E+03	5.242246E-17	5.009493E-18
3.370000E+03	5.285267E-17	5.035491E-18
3.380000E+03	5.329489E-17	5.062316E-18
3.390000E+03	5.374198E-17	5.089279E-18
3.400000E+03	5.419402E-17	5.116382E-18
3.410000E+03	5.465107E-17	5.143624E-18
3.420000E+03	5.511315E-17	5.171003E-18
3.430000E+03	5.558034E-17	5.198518E-18
3.440000E+03	5.605269E-17	5.226170E-18
3.450000E+03	5.653024E-17	5.253954E-18
3.460000E+03	5.702070E-17	5.282579E-18
3.470000E+03	5.750889E-17	5.310632E-18
3.480000E+03	5.801018E-17	5.339526E-18
3.490000E+03	5.851701E-17	5.368554E-18
3.500000E+03	5.902159E-17	5.396999E-18
3.510000E+03	5.953959E-17	5.426287E-18
3.520000E+03	6.006328E-17	5.455703E-18
3.530000E+03	6.059272E-17	5.485247E-18
3.540000E+03	6.112796E-17	5.514915E-18
3.550000E+03	6.166907E-17	5.544706E-18
3.560000E+03	6.221610E-17	5.574619E-18
3.570000E+03	6.277727E-17	5.605381E-18
3.580000E+03	6.333635E-17	5.635531E-18
3.590000E+03	6.390150E-17	5.665795E-18
3.600000E+03	6.448113E-17	5.696908E-18
3.610000E+03	6.505865E-17	5.727394E-18
3.620000E+03	6.565085E-17	5.758727E-18
3.630000E+03	6.624946E-17	5.790169E-18
3.640000E+03	6.684596E-17	5.820968E-18
3.650000E+03	6.745747E-17	5.852613E-18
3.660000E+03	6.807552E-17	5.884355E-18
3.670000E+03	6.870018E-17	5.916191E-18
3.680000E+03	6.933148E-17	5.948117E-18
3.690000E+03	6.996948E-17	5.980131E-18
3.700000E+03	7.061421E-17	6.012227E-18
3.710000E+03	7.126573E-17	6.044402E-18
3.720000E+03	7.192406E-17	6.076651E-18
3.730000E+03	7.259836E-17	6.109735E-18
3.740000E+03	7.327053E-17	6.142120E-18
3.750000E+03	7.394964E-17	6.174566E-18
3.760000E+03	7.464501E-17	6.207839E-18
3.770000E+03	7.533817E-17	6.240392E-18
3.780000E+03	7.604777E-17	6.273766E-18
3.790000E+03	7.675508E-17	6.306403E-18
3.800000E+03	7.747904E-17	6.339855E-18
3.810000E+03	7.820062E-17	6.372553E-18
3.820000E+03	7.893903E-17	6.406059E-18
3.830000E+03	7.968470E-17	6.439581E-18
3.840000E+03	8.043768E-17	6.473115E-18
3.850000E+03	8.118807E-17	6.505861E-18
3.860000E+03	8.195560E-17	6.539395E-18
3.870000E+03	8.273045E-17	6.572917E-18
3.880000E+03	8.351262E-17	6.606423E-18
3.890000E+03	8.430205E-17	6.639896E-18
3.900000E+03	8.509885E-17	6.673342E-18
3.910000E+03	8.590295E-17	6.706745E-18
3.920000E+03	8.671424E-17	6.740090E-18
3.930000E+03	8.753281E-17	6.773377E-18
3.940000E+03	8.835865E-17	6.806598E-18
3.950000E+03	8.919158E-17	6.839732E-18
3.960000E+03	9.003169E-17	6.872779E-18
3.970000E+03	9.087887E-17	6.905725E-18
3.980000E+03	9.173313E-17	6.938563E-18
3.990000E+03	9.259429E-17	6.971275E-18
4.000000E+03	9.346244E-17	7.003861E-18
4.010000E+03	9.433731E-17	7.036295E-18
4.020000E+03	9.521906E-17	7.068584E-18
4.030000E+03	9.610737E-17	7.100698E-18
4.040000E+03	9.700223E-17	7.132633E-18
4.050000E+03	9.790364E-17	7.164383E-18
4.060000E+03	9.881134E-17	7.195925E-18
4.070000E+03	9.972517E-17	7.227244E-18
4.080000E+03	1.006451E-16	7.258336E-18
4.090000E+03	1.015710E-16	7.289187E-18
4.100000E+03	1.025028E-16	7.319780E-18
4.110000E+03	1.034400E-16	7.350096E-18
4.120000E+03	1.043827E-16	7.380129E-18
4.130000E+03	1.053307E-16	7.409858E-18
4.140000E+03	1.062837E-16	7.439272E-18
4.150000E+03	1.072415E-16	7.468352E-18
4.160000E+03	1.082039E-16	7.497084E-18
4.170000E+03	1.091708E-16	7.525460E-18
4.180000E+03	1.101418E-16	7.553456E-18
4.190000E+03	1.111166E-16	7.581056E-18
4.200000E+03	1.120825E-16	7.607392E-18
4.210000E+03	1.130643E-16	7.634160E-18
4.220000E+03	1.140490E-16	7.660481E-18
4.230000E+03	1.150235E-16	7.685485E-18
4.240000E+03	1.160133E-16	7.710871E-18
4.250000E+03	1.170051E-16	7.735769E-18
4.260000E+03	1.179855E-16	7.759297E-18
4.270000E+03	1.189802E-16	7.783157E-18
4.280000E+03	1.199626E-16	7.805616E-18
4.290000E+03	1.209455E-16	7.827521E-18
4.300000E+03	1.219417E-16	7.849709E-18
4.310000E+03	1.229242E-16	7.870446E-18
4.320000E+03	1.239058E-16	7.890576E-18
4.330000E+03	1.248861E-16	7.910083E-18
4.340000E+03	1.258646E-16	7.928956E-18
4.350000E+03	1.268409E-16	7.947176E-18
4.360000E+03	1.278145E-16	7.964734E-18
4.370000E+03	1.287848E-16	7.981609E-18
4.380000E+03	1.297514E-16	7.997790E-18
4.390000E+03	1.307137E-16	8.013267E-18
4.400000E+03	1.316572E-16	8.027165E-18
4.410000E+03	1.326095E-16	8.041198E-18
4.420000E+03	1.335416E-16	8.053630E-18
4.430000E+03	1.344816E-16	8.066176E-18
4.440000E+03	1.354003E-16	8.077105E-18
4.450000E+03	1.363114E-16	8.087273E-18
4.460000E+03	1.372290E-16	8.097535E-18
4.470000E+03	1.381234E-16	8.106165E-18
4.480000E+03	1.390086E-16	8.114017E-18
4.490000E+03	1.398840E-16	8.121094E-18
4.500000E+03	1.407344E-16	8.126538E-18
4.510000E+03	1.415888E-16	8.132067E-18
4.520000E+03	1.424320E-16	8.136830E-18
4.530000E+03	1.432486E-16	8.139980E-18
4.540000E+03	1.440679E-16	8.143228E-18
4.550000E+03	1.448595E-16	8.144884E-18
4.560000E+03	1.456381E-16	8.145816E-18
4.570000E+03	1.464033E-16	8.146039E-18
4.580000E+03	1.471548E-16	8.145576E-18
4.590000E+03	1.478924E-16	8.144452E-18
4.600000E+03	1.486158E-16	8.142686E-18
4.610000E+03	1.493250E-16	8.140319E-18
4.620000E+03	1.500043E-16	8.136542E-18
4.630000E+03	1.506848E-16	8.133078E-18
4.640000E+03	1.513354E-16	8.128287E-18
4.650000E+03	1.519719E-16	8.123064E-18
4.660000E+03	1.526102E-16	8.118297E-18
4.670000E+03	1.532194E-16	8.112373E-18
4.680000E+03	1.538000E-16	8.105372E-18
4.690000E+03	1.543839E-16	8.099016E-18
4.700000E+03	1.549564E-16	8.092567E-18
4.710000E+03	1.555025E-16	8.085281E-18
4.720000E+03	1.560550E-16	8.078904E-18
4.730000E+03	1.565835E-16	8.071895E-18
4.740000E+03	1.571054E-16	8.065192E-18
4.750000E+03	1.576223E-16	8.058917E-18
4.760000E+03	1.581364E-16	8.053201E-18
4.770000E+03	1.586496E-16	8.048188E-18
4.780000E+03	1.591486E-16	8.043227E-18
4.790000E+03	1.596680E-16	8.040106E-18
4.800000E+03	1.601787E-16	8.037383E-18
4.810000E+03	1.607164E-16	8.036875E-18
4.820000E+03	1.612518E-16	8.037138E-18
4.830000E+03	1.618038E-16	8.039153E-18
4.840000E+03	1.623595E-16	8.042295E-18
4.850000E+03	1.629548E-16	8.048368E-18
4.860000E+03	1.635773E-16	8.056784E-18
4.870000E+03	1.642149E-16	8.066965E-18
4.880000E+03	1.648853E-16	8.079806E-18
4.890000E+03	1.656022E-16	8.095997E-18
4.900000E+03	1.663303E-16	8.113815E-18
4.910000E+03	1.670669E-16	8.133154E-18
4.920000E+03	1.678431E-16	8.155531E-18
4.930000E+03	1.686402E-16	8.180061E-18
4.940000E+03	1.694399E-16	8.205864E-18
4.950000E+03	1.702571E-16	8.233689E-18
4.960000E+03	1.711072E-16	8.264274E-18
4.970000E+03	1.719549E-16	8.295918E-18
4.980000E+03	1.727988E-16	8.328545E-18
4.990000E+03	1.736714E-16	8.363710E-18
5.000000E+03	1.745548E-16	8.400543E-18
5.010000E+03	1.754306E-16	8.438161E-18
5.020000E+03	1.763151E-16	8.477326E-18
5.030000E+03	1.772248E-16	8.518825E-18
5.040000E+03	1.781244E-16	8.560956E-18
5.050000E+03	1.790132E-16	8.603669E-18
5.060000E+03	1.799254E-16	8.648597E-18
5.070000E+03	1.808432E-16	8.694874E-18
5.080000E+03	1.817486E-16	8.741617E-18
5.090000E+03	1.826587E-16	8.789637E-18
5.100000E+03	1.835911E-16	8.839766E-18
5.110000E+03	1.845101E-16	8.890270E-18
5.120000E+03	1.854154E-16	8.941114E-18
5.130000E+03	1.863424E-16	8.993993E-18
5.140000E+03	1.872734E-16	9.048037E-18
5.150000E+03	1.881901E-16	9.102342E-18
5.160000E+03	1.891107E-16	9.157762E-18
5.170000E+03	1.900349E-16	9.214276E-18
5.180000E+03	1.909629E-16	9.271866E-18
5.190000E+03	1.918948E-16	9.330518E-18
5.200000E+03	1.928307E-16	9.390217E-18
5.210000E+03	1.937520E-16	9.450042E-18
5.220000E+03	1.946961E-16	9.511786E-18
5.230000E+03	1.956256E-16	9.573615E-18
5.240000E+03	1.965595E-16	9.636426E-18
5.250000E+03	1.974978E-16	9.700198E-18
5.260000E+03	1.984407E-16	9.764924E-18
5.270000E+03	1.993884E-16	9.830591E-18
5.280000E+03	2.003219E-16	9.896240E-18
5.290000E+03	2.012795E-16	9.963740E-18
5.300000E+03	2.022231E-16	1.003118E-17
5.310000E+03	2.031720E-16	1.009951E-17
5.320000E+03	2.041264E-16	1.016869E-17
5.330000E+03	2.050864E-16	1.023873E-17
5.340000E+03	2.060326E-16	1.030863E-17
5.350000E+03	2.070042E-16	1.038032E-17
5.360000E+03	2.079623E-16	1.045184E-17
5.370000E+03	2.089462E-16	1.052514E-17
5.380000E+03	2.099166E-16	1.059822E-17
5.390000E+03	2.108933E-16	1.067206E-17
5.400000E+03	2.118765E-16	1.074665E-17
5.410000E+03	2.128663E-16	1.082196E-17
5.420000E+03	2.138426E-16	1.089696E-17
5.430000E+03	2.148458E-16	1.097368E-17
5.440000E+03	2.158355E-16	1.105004E-17
5.450000E+03	2.168320E-16	1.112705E-17
5.460000E+03	2.178352E-16	1.120470E-17
5.470000E+03	2.188453E-16	1.128297E-17
5.480000E+03	2.198624E-16	1.136185E-17
5.490000E+03	2.208862E-16	1.144130E-17
5.500000E+03	2.218961E-16	1.152023E-17
5.510000E+03	2.229338E-16	1.160079E-17
5.520000E+03	2.239571E-16	1.168077E-17
5.530000E+03	2.249871E-16	1.176123E-17
5.540000E+03	2.260237E-16	1.184216E-17
5.550000E+03	2.270667E-16	1.192354E-17
5.560000E+03	2.281161E-16	1.200533E-17
5.570000E+03	2.291718E-16	1.208752E-17
5.580000E+03	2.302336E-16	1.217008E-17
5.590000E+03	2.312797E-16	1.225184E-17
5.600000E+03	2.323315E-16	1.233390E-17
5.610000E+03	2.334105E-16	1.241739E-17
5.620000E+03	2.344730E-16	1.249998E-17
5.630000E+03	2.355405E-16	1.258278E-17
5.640000E+03	2.366129E-16	1.266577E-17
5.650000E+03	2.376674E-16	1.274772E-17
5.660000E+03	2.387484E-16	1.283098E-17
5.670000E+03	2.398333E-16	1.291432E-17
5.680000E+03	2.408994E-16	1.299651E-17
5.690000E+03	2.419685E-16	1.307870E-17
5.700000E+03	2.430404E-16	1.316087E-17
5.710000E+03	2.441375E-16	1.324420E-17
5.720000E+03	2.452140E-16	1.332619E-17
5.730000E+03	2.462690E-16	1.340679E-17
5.740000E+03	2.473481E-16	1.348845E-17
5.750000E+03	2.484281E-16	1.356989E-17
5.760000E+03	2.494850E-16	1.364978E-17
5.770000E+03	2.505650E-16	1.373063E-17
5.780000E+03	2.516210E-16	1.380986E-17
5.790000E+03	2.526992E-16	1.388996E-17
5.800000E+03	2.537521E-16	1.396833E-17
5.810000E+03	2.548027E-16	1.404620E-17
5.820000E+03	2.558505E-16	1.412353E-17
5.830000E+03	2.568950E-16	1.420028E-17
5.840000E+03	2.579115E-16	1.427506E-17
5.850000E+03	2.589474E-16	1.435049E-17
5.860000E+03	2.599784E-16	1.442519E-17
5.870000E+03	2.609795E-16	1.449777E-17
5.880000E+03	2.619742E-16	1.456953E-17
5.890000E+03	2.629866E-16	1.464177E-17
5.900000E+03	2.639670E-16	1.471173E-17
5.910000E+03	2.649394E-16	1.478071E-17
5.920000E+03	2.659032E-16	1.484868E-17
5.930000E+03	2.668579E-16	1.491560E-17
5.940000E+03	2.678028E-16	1.498141E-17
5.950000E+03	2.687374E-16	1.504606E-17
5.960000E+03	2.696360E-16	1.510812E-17
5.970000E+03	2.705483E-16	1.517034E-17
5.980000E+03	2.714487E-16	1.523129E-17
5.990000E+03	2.723114E-16	1.528949E-17
6.000000E+03	2.731609E-16	1.534632E-17
6.010000E+03	2.740226E-16	1.540319E-17
6.020000E+03	2.748448E-16	1.545718E-17
6.030000E+03	2.756526E-16	1.550970E-17
6.040000E+03	2.764457E-16	1.556071E-17
6.050000E+03	2.772236E-16	1.561019E-17
6.060000E+03	2.779860E-16	1.565810E-17
6.070000E+03	2.787328E-16	1.570442E-17
6.080000E+03	2.794634E-16	1.574912E-17
6.090000E+03	2.801515E-16	1.579072E-17
6.100000E+03	2.808493E-16	1.583213E-17
6.110000E+03	2.815041E-16	1.587040E-17
6.120000E+03	2.821684E-16	1.590845E-17
6.130000E+03	2.827895E-16	1.594333E-17
6.140000E+03	2.834200E-16	1.597800E-17
6.150000E+03	2.840070E-16	1.600946E-17
6.160000E+03	2.845771E-16	1.603921E-17
6.170000E+03	2.851302E-16	1.606724E-17
6.180000E+03	2.856664E-16	1.609356E-17
6.190000E+03	2.861859E-16	1.611817E-17
6.200000E+03	2.866887E-16	1.614107E-17
6.210000E+03	2.871751E-16	1.616228E-17
6.220000E+03	2.876451E-16	1.618179E-17
6.230000E+03	2.880985E-16	1.619960E-17
6.240000E+03	2.885349E-16	1.621568E-17
6.250000E+03	2.889268E-16	1.622848E-17
6.260000E+03	2.893278E-16	1.624102E-17
6.270000E+03	2.896831E-16	1.625022E-17
6.280000E+03	2.900468E-16	1.625911E-17
6.290000E+03	2.903640E-16	1.626462E-17
6.300000E+03	2.906888E-16	1.626978E-17
6.310000E+03	2.909665E-16	1.627153E-17
6.320000E+03	2.912241E-16	1.627137E-17
6.330000E+03	2.914887E-16	1.627084E-17
6.340000E+03	2.917054E-16	1.626686E-17
6.350000E+03	2.919016E-16	1.626097E-17
6.360000E+03	2.920770E-16	1.625316E-17
6.370000E+03	2.922318E-16	1.624345E-17
6.380000E+03	2.923660E-16	1.623183E-17
6.390000E+03	2.924796E-16	1.621831E-17
6.400000E+03	2.925726E-16	1.620291E-17
6.410000E+03	2.926451E-16	1.618563E-17
6.420000E+03	2.926971E-16	1.616648E-17
6.430000E+03	2.927009E-16	1.614394E-17
6.440000E+03	2.927119E-16	1.612108E-17
6.450000E+03	2.927025E-16	1.609638E-17
6.460000E+03	2.926452E-16	1.606834E-17
6.470000E+03	2.925956E-16	1.604002E-17
6.480000E+03	2.924987E-16	1.600840E-17
6.490000E+03	2.924101E-16	1.597654E-17
6.500000E+03	2.922747E-16	1.594142E-17
6.510000E+03	2.921480E-16	1.590609E-17
6.520000E+03	2.919749E-16	1.586754E-17
6.530000E+03	2.918109E-16	1.582882E-17
6.540000E+03	2.916011E-16	1.578693E-17
6.550000E+03	2.913732E-16	1.574340E-17
6.560000E+03	2.911276E-16	1.569826E-17
6.570000E+03	2.908922E-16	1.565300E-17
6.580000E+03	2.906120E-16	1.560470E-17
6.590000E+03	2.903152E-16	1.555486E-17
6.600000E+03	2.900020E-16	1.550352E-17
6.610000E+03	2.896730E-16	1.545072E-17
6.620000E+03	2.893284E-16	1.539647E-17
6.630000E+03	2.889689E-16	1.534083E-17
6.640000E+03	2.885947E-16	1.528382E-17
6.650000E+03	2.882066E-16	1.522550E-17
6.660000E+03	2.878050E-16	1.516589E-17
6.670000E+03	2.873632E-16	1.510361E-17
6.680000E+03	2.869362E-16	1.504156E-17
6.690000E+03	2.864975E-16	1.497836E-17
6.700000E+03	2.860475E-16	1.491405E-17
6.710000E+03	2.855597E-16	1.484726E-17
6.720000E+03	2.850890E-16	1.478086E-17
6.730000E+03	2.846088E-16	1.471348E-17
6.740000E+03	2.840927E-16	1.464378E-17
6.750000E+03	2.835954E-16	1.457458E-17
6.760000E+03	2.830904E-16	1.450455E-17
6.770000E+03	2.825514E-16	1.443234E-17
6.780000E+03	2.820058E-16	1.435939E-17
6.790000E+03	2.814814E-16	1.428711E-17
6.800000E+03	2.809246E-16	1.421280E-17
6.810000E+03	2.803900E-16	1.413924E-17
6.820000E+03	2.798243E-16	1.406376E-17
6.830000E+03	2.792550E-16	1.398776E-17
6.840000E+03	2.787094E-16	1.391262E-17
6.850000E+03	2.781344E-16	1.383570E-17
6.860000E+03	2.775574E-16	1.375840E-17
6.870000E+03	2.769788E-16	1.368074E-17
6.880000E+03	2.764257E-16	1.360408E-17
6.890000E+03	2.758454E-16	1.352584E-17
6.900000E+03	2.752651E-16	1.344738E-17
6.910000E+03	2.746849E-16	1.336873E-17
6.920000E+03	2.741056E-16	1.328992E-17
6.930000E+03	2.735274E-16	1.321101E-17
6.940000E+03	2.729507E-16	1.313202E-17
6.950000E+03	2.723761E-16	1.305299E-17
6.960000E+03	2.718037E-16	1.297397E-17
6.970000E+03	2.712341E-16	1.289499E-17
6.980000E+03	2.706414E-16	1.281484E-17
6.990000E+03	2.700781E-16	1.273604E-17
7.000000E+03	2.695186E-16	1.265739E-17
7.010000E+03	2.689631E-16	1.257892E-17
7.020000E+03	2.684119E-16	1.250067E-17
7.030000E+03	2.678394E-16	1.242146E-17
7.040000E+03	2.672977E-16	1.234375E-17
7.050000E+03	2.667612E-16	1.226635E-17
7.060000E+03	2.662042E-16	1.218813E-17
7.070000E+03	2.656787E-16	1.211148E-17
7.080000E+03	2.651335E-16	1.203409E-17
7.090000E+03	2.646200E-16	1.195833E-17
7.100000E+03	2.640873E-16	1.188190E-17
7.110000E+03	2.635869E-16	1.180717E-17
7.120000E+03	2.630678E-16	1.173186E-17
7.130000E+03	2.625558E-16	1.165716E-17
7.140000E+03	2.620767E-16	1.158425E-17
7.150000E+03	2.615798E-16	1.151089E-17
7.160000E+03	2.610907E-16	1.143826E-17
7.170000E+03	2.606099E-16	1.136639E-17
7.180000E+03	2.601374E-16	1.129534E-17
7.190000E+03	2.596990E-16	1.122623E-17
7.200000E+03	2.592443E-16	1.115692E-17
7.210000E+03	2.587990E-16	1.108854E-17
7.220000E+03	2.583635E-16	1.102116E-17
7.230000E+03	2.579380E-16	1.095481E-17
7.240000E+03	2.575232E-16	1.088955E-17
7.250000E+03	2.571194E-16	1.082542E-17
7.260000E+03	2.567021E-16	1.076143E-17
7.270000E+03	2.563222E-16	1.069976E-17
7.280000E+03	2.559549E-16	1.063940E-17
7.290000E+03	2.556011E-16	1.058042E-17
7.300000E+03	2.552365E-16	1.052184E-17
7.310000E+03	2.549120E-16	1.046582E-17
7.320000E+03	2.546035E-16	1.041138E-17
7.330000E+03	2.542869E-16	1.035759E-17
7.340000E+03	2.540135E-16	1.030657E-17
7.350000E+03	2.537344E-16	1.025637E-17
7.360000E+03	2.535010E-16	1.020912E-17
7.370000E+03	2.532648E-16	1.016288E-17
7.380000E+03	2.530524E-16	1.011879E-17
7.390000E+03	2.528905E-16	1.007793E-17
7.400000E+03	2.527312E-16	1.003843E-17
7.410000E+03	2.526017E-16	1.000142E-17
7.420000E+03	2.525042E-16	9.967028E-18
7.430000E+03	2.524414E-16	9.935398E-18
7.440000E+03	2.524161E-16	9.906675E-18
7.450000E+03	2.524315E-16	9.881030E-18
7.460000E+03	2.524910E-16	9.858632E-18
7.470000E+03	2.525984E-16	9.839674E-18
7.480000E+03	2.527579E-16	9.824354E-18
7.490000E+03	2.529740E-16	9.812895E-18
7.500000E+03	2.532518E-16	9.805532E-18
7.510000E+03	2.535716E-16	9.801550E-18
7.520000E+03	2.539898E-16	9.803177E-18
7.530000E+03	2.544881E-16	9.809743E-18
7.540000E+03	2.550483E-16	9.820601E-18
7.550000E+03	2.557287E-16	9.838046E-18
7.560000E+03	2.564787E-16	9.860185E-18
7.570000E+03	2.573175E-16	9.887809E-18
7.580000E+03	2.582648E-16	9.921741E-18
7.590000E+03	2.592636E-16	9.959852E-18
7.600000E+03	2.603347E-16	1.000297E-17
7.610000E+03	2.614734E-16	1.005092E-17
7.620000E+03	2.626753E-16	1.010353E-17
7.630000E+03	2.639632E-16	1.016167E-17
7.640000E+03	2.652805E-16	1.022319E-17
7.650000E+03	2.666237E-16	1.028794E-17
7.660000E+03	2.680434E-16	1.035786E-17
7.670000E+03	2.695100E-16	1.043183E-17
7.680000E+03	2.710211E-16	1.050976E-17
7.690000E+03	2.725747E-16	1.059157E-17
7.700000E+03	2.741408E-16	1.067609E-17
7.710000E+03	2.757727E-16	1.076540E-17
7.720000E+03	2.774133E-16	1.085727E-17
7.730000E+03	2.791169E-16	1.095383E-17
7.740000E+03	2.808257E-16	1.105280E-17
7.750000E+03	2.825952E-16	1.115637E-17
7.760000E+03	2.843670E-16	1.126224E-17
