#wls	flux	fluxerr
1.600000E+03	1.730763E-17	1.471046E-18
1.640000E+03	1.748518E-17	1.482148E-18
1.680000E+03	1.766713E-17	1.493435E-18
1.720000E+03	1.786002E-17	1.505448E-18
1.760000E+03	1.806110E-17	1.517943E-18
1.800000E+03	1.827394E-17	1.531207E-18
1.840000E+03	1.849579E-17	1.544996E-18
1.880000E+03	1.872707E-17	1.559329E-18
1.920000E+03	1.897150E-17	1.574502E-18
1.960000E+03	1.922631E-17	1.590266E-18
2.000000E+03	1.949536E-17	1.606923E-18
2.040000E+03	1.977585E-17	1.624223E-18
2.080000E+03	2.006831E-17	1.642189E-18
2.120000E+03	2.037331E-17	1.660849E-18
2.160000E+03	2.069857E-17	1.680808E-18
2.200000E+03	2.103416E-17	1.701233E-18
2.240000E+03	2.138795E-17	1.722736E-18
2.280000E+03	2.175703E-17	1.745057E-18
2.320000E+03	2.214596E-17	1.768530E-18
2.360000E+03	2.255185E-17	1.792893E-18
2.400000E+03	2.297942E-17	1.818488E-18
2.440000E+03	2.342577E-17	1.845049E-18
2.480000E+03	2.389588E-17	1.872930E-18
2.520000E+03	2.438679E-17	1.901859E-18
2.560000E+03	2.490376E-17	1.932202E-18
2.600000E+03	2.544383E-17	1.963682E-18
2.640000E+03	2.601250E-17	1.996675E-18
2.680000E+03	2.660682E-17	2.030902E-18
2.720000E+03	2.722805E-17	2.066405E-18
2.760000E+03	2.788218E-17	2.103581E-18
2.800000E+03	2.857093E-17	2.142491E-18
2.840000E+03	2.929128E-17	2.182840E-18
2.880000E+03	3.004975E-17	2.225045E-18
2.920000E+03	3.084329E-17	2.268799E-18
2.960000E+03	3.167365E-17	2.314154E-18
3.000000E+03	3.254796E-17	2.361544E-18
3.010000E+03	3.277550E-17	2.373850E-18
3.020000E+03	3.300029E-17	2.385879E-18
3.030000E+03	3.323306E-17	2.398403E-18
3.040000E+03	3.346308E-17	2.410648E-18
3.050000E+03	3.370120E-17	2.423394E-18
3.060000E+03	3.394207E-17	2.436253E-18
3.070000E+03	3.418018E-17	2.448830E-18
3.080000E+03	3.442660E-17	2.461916E-18
3.090000E+03	3.467585E-17	2.475115E-18
3.100000E+03	3.492798E-17	2.488432E-18
3.110000E+03	3.518302E-17	2.501864E-18
3.120000E+03	3.543530E-17	2.515010E-18
3.130000E+03	3.569622E-17	2.528677E-18
3.140000E+03	3.596016E-17	2.542462E-18
3.150000E+03	3.622715E-17	2.556367E-18
3.160000E+03	3.649722E-17	2.570392E-18
3.170000E+03	3.677041E-17	2.584539E-18
3.180000E+03	3.704676E-17	2.598807E-18
3.190000E+03	3.732630E-17	2.613198E-18
3.200000E+03	3.760907E-17	2.627712E-18
3.210000E+03	3.789510E-17	2.642349E-18
3.220000E+03	3.819053E-17	2.657535E-18
3.230000E+03	3.848324E-17	2.672424E-18
3.240000E+03	3.877934E-17	2.687438E-18
3.250000E+03	3.907887E-17	2.702580E-18
3.260000E+03	3.938184E-17	2.717848E-18
3.270000E+03	3.969459E-17	2.733677E-18
3.280000E+03	4.000463E-17	2.749202E-18
3.290000E+03	4.031825E-17	2.764856E-18
3.300000E+03	4.063547E-17	2.780639E-18
3.310000E+03	4.096281E-17	2.796993E-18
3.320000E+03	4.128742E-17	2.813038E-18
3.330000E+03	4.161575E-17	2.829214E-18
3.340000E+03	4.195445E-17	2.845967E-18
3.350000E+03	4.229040E-17	2.862407E-18
3.360000E+03	4.263690E-17	2.879430E-18
3.370000E+03	4.298064E-17	2.896135E-18
3.380000E+03	4.333509E-17	2.913428E-18
3.390000E+03	4.368677E-17	2.930401E-18
3.400000E+03	4.404935E-17	2.947966E-18
3.410000E+03	4.440913E-17	2.965206E-18
3.420000E+03	4.477998E-17	2.983045E-18
3.430000E+03	4.514803E-17	3.000553E-18
3.440000E+03	4.552733E-17	3.018665E-18
3.450000E+03	4.591095E-17	3.036914E-18
3.460000E+03	4.629172E-17	3.054827E-18
3.470000E+03	4.668403E-17	3.073350E-18
3.480000E+03	4.708076E-17	3.092011E-18
3.490000E+03	4.747462E-17	3.110329E-18
3.500000E+03	4.788029E-17	3.129263E-18
3.510000E+03	4.829050E-17	3.148334E-18
3.520000E+03	4.869780E-17	3.167055E-18
3.530000E+03	4.911719E-17	3.186398E-18
3.540000E+03	4.954125E-17	3.205878E-18
3.550000E+03	4.997003E-17	3.225494E-18
3.560000E+03	5.040354E-17	3.245246E-18
3.570000E+03	5.083404E-17	3.264631E-18
3.580000E+03	5.127711E-17	3.284649E-18
3.590000E+03	5.172504E-17	3.304802E-18
3.600000E+03	5.217786E-17	3.325088E-18
3.610000E+03	5.263562E-17	3.345506E-18
3.620000E+03	5.309834E-17	3.366055E-18
3.630000E+03	5.356607E-17	3.386735E-18
3.640000E+03	5.403059E-17	3.407025E-18
3.650000E+03	5.450835E-17	3.427960E-18
3.660000E+03	5.499121E-17	3.449022E-18
3.670000E+03	5.547920E-17	3.470210E-18
3.680000E+03	5.597235E-17	3.491523E-18
3.690000E+03	5.647069E-17	3.512959E-18
3.700000E+03	5.697424E-17	3.534516E-18
3.710000E+03	5.748304E-17	3.556194E-18
3.720000E+03	5.799710E-17	3.577989E-18
3.730000E+03	5.851645E-17	3.599902E-18
3.740000E+03	5.904113E-17	3.621929E-18
3.750000E+03	5.957113E-17	3.644068E-18
3.760000E+03	6.010650E-17	3.666318E-18
3.770000E+03	6.064725E-17	3.688677E-18
3.780000E+03	6.119338E-17	3.711142E-18
3.790000E+03	6.174492E-17	3.733710E-18
3.800000E+03	6.230188E-17	3.756379E-18
3.810000E+03	6.286428E-17	3.779147E-18
3.820000E+03	6.343213E-17	3.802012E-18
3.830000E+03	6.400542E-17	3.824969E-18
3.840000E+03	6.458417E-17	3.848016E-18
3.850000E+03	6.516839E-17	3.871150E-18
3.860000E+03	6.575807E-17	3.894369E-18
3.870000E+03	6.635321E-17	3.917667E-18
3.880000E+03	6.695381E-17	3.941043E-18
3.890000E+03	6.755988E-17	3.964493E-18
3.900000E+03	6.817139E-17	3.988012E-18
3.910000E+03	6.878835E-17	4.011599E-18
3.920000E+03	6.941073E-17	4.035247E-18
3.930000E+03	7.003853E-17	4.058954E-18
3.940000E+03	7.067172E-17	4.082715E-18
3.950000E+03	7.131030E-17	4.106526E-18
3.960000E+03	7.195423E-17	4.130383E-18
3.970000E+03	7.260348E-17	4.154281E-18
3.980000E+03	7.325803E-17	4.178216E-18
3.990000E+03	7.391786E-17	4.202183E-18
4.000000E+03	7.458291E-17	4.226176E-18
4.010000E+03	7.525317E-17	4.250193E-18
4.020000E+03	7.592857E-17	4.274226E-18
4.030000E+03	7.660909E-17	4.298271E-18
4.040000E+03	7.729468E-17	4.322323E-18
4.050000E+03	7.798527E-17	4.346376E-18
4.060000E+03	7.868083E-17	4.370425E-18
4.070000E+03	7.938129E-17	4.394464E-18
4.080000E+03	8.008659E-17	4.418488E-18
4.090000E+03	8.079667E-17	4.442490E-18
4.100000E+03	8.151147E-17	4.466466E-18
4.110000E+03	8.223090E-17	4.490409E-18
4.120000E+03	8.295491E-17	4.514313E-18
4.130000E+03	8.367126E-17	4.537514E-18
4.140000E+03	8.440413E-17	4.561322E-18
4.150000E+03	8.514120E-17	4.585066E-18
4.160000E+03	8.588259E-17	4.608752E-18
4.170000E+03	8.662815E-17	4.632368E-18
4.180000E+03	8.737766E-17	4.655903E-18
4.190000E+03	8.811851E-17	4.678686E-18
4.200000E+03	8.887584E-17	4.702052E-18
4.210000E+03	8.963686E-17	4.725320E-18
4.220000E+03	9.040161E-17	4.748490E-18
4.230000E+03	9.115680E-17	4.770867E-18
4.240000E+03	9.192834E-17	4.793809E-18
4.250000E+03	9.270318E-17	4.816629E-18
4.260000E+03	9.346797E-17	4.838637E-18
4.270000E+03	9.424903E-17	4.861197E-18
4.280000E+03	9.501949E-17	4.882921E-18
4.290000E+03	9.580621E-17	4.905193E-18
4.300000E+03	9.659565E-17	4.927314E-18
4.310000E+03	9.737390E-17	4.948579E-18
4.320000E+03	9.816827E-17	4.970378E-18
4.330000E+03	9.895092E-17	4.991300E-18
4.340000E+03	9.974968E-17	5.012753E-18
4.350000E+03	1.005363E-16	5.033315E-18
4.360000E+03	1.013246E-16	5.053688E-18
4.370000E+03	1.021290E-16	5.074586E-18
4.380000E+03	1.029204E-16	5.094568E-18
4.390000E+03	1.037279E-16	5.115073E-18
4.400000E+03	1.045220E-16	5.134646E-18
4.410000E+03	1.053171E-16	5.154008E-18
4.420000E+03	1.061131E-16	5.173155E-18
4.430000E+03	1.069249E-16	5.192811E-18
4.440000E+03	1.077225E-16	5.211518E-18
4.450000E+03	1.085206E-16	5.230000E-18
4.460000E+03	1.093190E-16	5.248253E-18
4.470000E+03	1.101177E-16	5.266276E-18
4.480000E+03	1.109166E-16	5.284069E-18
4.490000E+03	1.117155E-16	5.301622E-18
4.500000E+03	1.125300E-16	5.319689E-18
4.510000E+03	1.133287E-16	5.336779E-18
4.520000E+03	1.141271E-16	5.353627E-18
4.530000E+03	1.149089E-16	5.369491E-18
4.540000E+03	1.157063E-16	5.385868E-18
4.550000E+03	1.165030E-16	5.402009E-18
4.560000E+03	1.172990E-16	5.417917E-18
4.570000E+03	1.180942E-16	5.433591E-18
4.580000E+03	1.188885E-16	5.449039E-18
4.590000E+03	1.196654E-16	5.463502E-18
4.600000E+03	1.204578E-16	5.478499E-18
4.610000E+03	1.212492E-16	5.493279E-18
4.620000E+03	1.220228E-16	5.507089E-18
4.630000E+03	1.228120E-16	5.521452E-18
4.640000E+03	1.236003E-16	5.535617E-18
4.650000E+03	1.243705E-16	5.548826E-18
4.660000E+03	1.251569E-16	5.562626E-18
4.670000E+03	1.259250E-16	5.575483E-18
4.680000E+03	1.266924E-16	5.588188E-18
4.690000E+03	1.274766E-16	5.601521E-18
4.700000E+03	1.282429E-16	5.613957E-18
4.710000E+03	1.290269E-16	5.627066E-18
4.720000E+03	1.297932E-16	5.639312E-18
4.730000E+03	1.305602E-16	5.651506E-18
4.740000E+03	1.313282E-16	5.663668E-18
4.750000E+03	1.320979E-16	5.675833E-18
4.760000E+03	1.328700E-16	5.688043E-18
4.770000E+03	1.336637E-16	5.701116E-18
4.780000E+03	1.344435E-16	5.713549E-18
4.790000E+03	1.352287E-16	5.726171E-18
4.800000E+03	1.360207E-16	5.739047E-18
4.810000E+03	1.368024E-16	5.751460E-18
4.820000E+03	1.376121E-16	5.765034E-18
4.830000E+03	1.384322E-16	5.779027E-18
4.840000E+03	1.392636E-16	5.793483E-18
4.850000E+03	1.401074E-16	5.808453E-18
4.860000E+03	1.409459E-16	5.823206E-18
4.870000E+03	1.418189E-16	5.839397E-18
4.880000E+03	1.427080E-16	5.856260E-18
4.890000E+03	1.435928E-16	5.872970E-18
4.900000E+03	1.445113E-16	5.891082E-18
4.910000E+03	1.454233E-16	5.908967E-18
4.920000E+03	1.463678E-16	5.928210E-18
4.930000E+03	1.473042E-16	5.947170E-18
4.940000E+03	1.482719E-16	5.967444E-18
4.950000E+03	1.492303E-16	5.987399E-18
4.960000E+03	1.501988E-16	6.007831E-18
4.970000E+03	1.511976E-16	6.029542E-18
4.980000E+03	1.521854E-16	6.050889E-18
4.990000E+03	1.531823E-16	6.072678E-18
5.000000E+03	1.541878E-16	6.094883E-18
5.010000E+03	1.552019E-16	6.117495E-18
5.020000E+03	1.562242E-16	6.140506E-18
5.030000E+03	1.572546E-16	6.163897E-18
5.040000E+03	1.582927E-16	6.187659E-18
5.050000E+03	1.593385E-16	6.211783E-18
5.060000E+03	1.603918E-16	6.236254E-18
5.070000E+03	1.614523E-16	6.261066E-18
5.080000E+03	1.624981E-16	6.285361E-18
5.090000E+03	1.635726E-16	6.310822E-18
5.100000E+03	1.646540E-16	6.336594E-18
5.110000E+03	1.657198E-16	6.361812E-18
5.120000E+03	1.668143E-16	6.388173E-18
5.130000E+03	1.679152E-16	6.414818E-18
5.140000E+03	1.689997E-16	6.440867E-18
5.150000E+03	1.701128E-16	6.468043E-18
5.160000E+03	1.712090E-16	6.494602E-18
5.170000E+03	1.723108E-16	6.521398E-18
5.180000E+03	1.734411E-16	6.549293E-18
5.190000E+03	1.745536E-16	6.576534E-18
5.200000E+03	1.756711E-16	6.603975E-18
5.210000E+03	1.767937E-16	6.631616E-18
5.220000E+03	1.779447E-16	6.660328E-18
5.230000E+03	1.790766E-16	6.688325E-18
5.240000E+03	1.802130E-16	6.716485E-18
5.250000E+03	1.813536E-16	6.744794E-18
5.260000E+03	1.824982E-16	6.773238E-18
5.270000E+03	1.836468E-16	6.801814E-18
5.280000E+03	1.847989E-16	6.830501E-18
5.290000E+03	1.859547E-16	6.859293E-18
5.300000E+03	1.870887E-16	6.887258E-18
5.310000E+03	1.882507E-16	6.916216E-18
5.320000E+03	1.894156E-16	6.945239E-18
5.330000E+03	1.905832E-16	6.974318E-18
5.340000E+03	1.917278E-16	7.002507E-18
5.350000E+03	1.929000E-16	7.031654E-18
5.360000E+03	1.940485E-16	7.059876E-18
5.370000E+03	1.952245E-16	7.089041E-18
5.380000E+03	1.963761E-16	7.117249E-18
5.390000E+03	1.975550E-16	7.146379E-18
5.400000E+03	1.987088E-16	7.174522E-18
5.410000E+03	1.998631E-16	7.202606E-18
5.420000E+03	2.010446E-16	7.231587E-18
5.430000E+03	2.021997E-16	7.259526E-18
5.440000E+03	2.033548E-16	7.287376E-18
5.450000E+03	2.045095E-16	7.315113E-18
5.460000E+03	2.056909E-16	7.343707E-18
5.470000E+03	2.068444E-16	7.371194E-18
5.480000E+03	2.079967E-16	7.398534E-18
5.490000E+03	2.091478E-16	7.425714E-18
5.500000E+03	2.102971E-16	7.452719E-18
5.510000E+03	2.114445E-16	7.479533E-18
5.520000E+03	2.125898E-16	7.506151E-18
5.530000E+03	2.137043E-16	7.531556E-18
5.540000E+03	2.148442E-16	7.557727E-18
5.550000E+03	2.159810E-16	7.583655E-18
5.560000E+03	2.171144E-16	7.609329E-18
5.570000E+03	2.182153E-16	7.633728E-18
5.580000E+03	2.193409E-16	7.658851E-18
5.590000E+03	2.204624E-16	7.683684E-18
5.600000E+03	2.215499E-16	7.707189E-18
5.610000E+03	2.226616E-16	7.731390E-18
5.620000E+03	2.237385E-16	7.754234E-18
5.630000E+03	2.248394E-16	7.777759E-18
5.640000E+03	2.259044E-16	7.799893E-18
5.650000E+03	2.269931E-16	7.822689E-18
5.660000E+03	2.280450E-16	7.844068E-18
5.670000E+03	2.290898E-16	7.865049E-18
5.680000E+03	2.301273E-16	7.885624E-18
5.690000E+03	2.311874E-16	7.906822E-18
5.700000E+03	2.322090E-16	7.926550E-18
5.710000E+03	2.332223E-16	7.945840E-18
5.720000E+03	2.342268E-16	7.964679E-18
5.730000E+03	2.352223E-16	7.983062E-18
5.740000E+03	2.362083E-16	8.000975E-18
5.750000E+03	2.371848E-16	8.018416E-18
5.760000E+03	2.381512E-16	8.035374E-18
5.770000E+03	2.391074E-16	8.051842E-18
5.780000E+03	2.400530E-16	8.067813E-18
5.790000E+03	2.409879E-16	8.083286E-18
5.800000E+03	2.419116E-16	8.098248E-18
5.810000E+03	2.428241E-16	8.112703E-18
5.820000E+03	2.436928E-16	8.125573E-18
5.830000E+03	2.445818E-16	8.138994E-18
5.840000E+03	2.454588E-16	8.151899E-18
5.850000E+03	2.463236E-16	8.164286E-18
5.860000E+03	2.471436E-16	8.175082E-18
5.870000E+03	2.479836E-16	8.186436E-18
5.880000E+03	2.487782E-16	8.196195E-18
5.890000E+03	2.495928E-16	8.206527E-18
5.900000E+03	2.503618E-16	8.215276E-18
5.910000E+03	2.511509E-16	8.224610E-18
5.920000E+03	2.518942E-16	8.232373E-18
5.930000E+03	2.526579E-16	8.240741E-18
5.940000E+03	2.533756E-16	8.247560E-18
5.950000E+03	2.540809E-16	8.253927E-18
5.960000E+03	2.548072E-16	8.260942E-18
5.970000E+03	2.554878E-16	8.266448E-18
5.980000E+03	2.561565E-16	8.271554E-18
5.990000E+03	2.568138E-16	8.276280E-18
6.000000E+03	2.574937E-16	8.281739E-18
6.010000E+03	2.581291E-16	8.285774E-18
6.020000E+03	2.587545E-16	8.289507E-18
6.030000E+03	2.593702E-16	8.292966E-18
6.040000E+03	2.599768E-16	8.296177E-18
6.050000E+03	2.605754E-16	8.299185E-18
6.060000E+03	2.611663E-16	8.302015E-18
6.070000E+03	2.617507E-16	8.304713E-18
6.080000E+03	2.623293E-16	8.307317E-18
6.090000E+03	2.629030E-16	8.309866E-18
6.100000E+03	2.634730E-16	8.312406E-18
6.110000E+03	2.640400E-16	8.314979E-18
6.120000E+03	2.646054E-16	8.317635E-18
6.130000E+03	2.651698E-16	8.320408E-18
6.140000E+03	2.656995E-16	8.322257E-18
6.150000E+03	2.662650E-16	8.325403E-18
6.160000E+03	2.668325E-16	8.328799E-18
6.170000E+03	2.674024E-16	8.332470E-18
6.180000E+03	2.679401E-16	8.335353E-18
6.190000E+03	2.685161E-16	8.339657E-18
6.200000E+03	2.690954E-16	8.344307E-18
6.210000E+03	2.696418E-16	8.348197E-18
6.220000E+03	2.702259E-16	8.353523E-18
6.230000E+03	2.707762E-16	8.358094E-18
6.240000E+03	2.713642E-16	8.364130E-18
6.250000E+03	2.719181E-16	8.369435E-18
6.260000E+03	2.725092E-16	8.376219E-18
6.270000E+03	2.730650E-16	8.382266E-18
6.280000E+03	2.736562E-16	8.389764E-18
6.290000E+03	2.742098E-16	8.396486E-18
6.300000E+03	2.747964E-16	8.404614E-18
6.310000E+03	2.753422E-16	8.411902E-18
6.320000E+03	2.758817E-16	8.419424E-18
6.330000E+03	2.764495E-16	8.428253E-18
6.340000E+03	2.769712E-16	8.436131E-18
6.350000E+03	2.774811E-16	8.444128E-18
6.360000E+03	2.779778E-16	8.452210E-18
6.370000E+03	2.784959E-16	8.461449E-18
6.380000E+03	2.789603E-16	8.469582E-18
6.390000E+03	2.794061E-16	8.477686E-18
6.400000E+03	2.798315E-16	8.485726E-18
6.410000E+03	2.802349E-16	8.493670E-18
6.420000E+03	2.806146E-16	8.501482E-18
6.430000E+03	2.809692E-16	8.509134E-18
6.440000E+03	2.813346E-16	8.517724E-18
6.450000E+03	2.816354E-16	8.524992E-18
6.460000E+03	2.819093E-16	8.532087E-18
6.470000E+03	2.821566E-16	8.539021E-18
6.480000E+03	2.823778E-16	8.545790E-18
6.490000E+03	2.825735E-16	8.552397E-18
6.500000E+03	2.827444E-16	8.558846E-18
6.510000E+03	2.828910E-16	8.565134E-18
6.520000E+03	2.829770E-16	8.570138E-18
6.530000E+03	2.830775E-16	8.576117E-18
6.540000E+03	2.831561E-16	8.581951E-18
6.550000E+03	2.832136E-16	8.587636E-18
6.560000E+03	2.832508E-16	8.593182E-18
6.570000E+03	2.832684E-16	8.598590E-18
6.580000E+03	2.832298E-16	8.602723E-18
6.590000E+03	2.832108E-16	8.607865E-18
6.600000E+03	2.831747E-16	8.612875E-18
6.610000E+03	2.831221E-16	8.617760E-18
6.620000E+03	2.830166E-16	8.621380E-18
6.630000E+03	2.829336E-16	8.626015E-18
6.640000E+03	2.828366E-16	8.630532E-18
6.650000E+03	2.826889E-16	8.633785E-18
6.660000E+03	2.825658E-16	8.638057E-18
6.670000E+03	2.824308E-16	8.642211E-18
6.680000E+03	2.822473E-16	8.645103E-18
6.690000E+03	2.820904E-16	8.649013E-18
6.700000E+03	2.818863E-16	8.651659E-18
6.710000E+03	2.817102E-16	8.655330E-18
6.720000E+03	2.815254E-16	8.658876E-18
6.730000E+03	2.812952E-16	8.661148E-18
6.740000E+03	2.810948E-16	8.664444E-18
6.750000E+03	2.808502E-16	8.666463E-18
6.760000E+03	2.805994E-16	8.668353E-18
6.770000E+03	2.803798E-16	8.671259E-18
6.780000E+03	2.801180E-16	8.672888E-18
6.790000E+03	2.798885E-16	8.675528E-18
6.800000E+03	2.796177E-16	8.676884E-18
6.810000E+03	2.793803E-16	8.679252E-18
6.820000E+03	2.791027E-16	8.680332E-18
6.830000E+03	2.788225E-16	8.681275E-18
6.840000E+03	2.785770E-16	8.683226E-18
6.850000E+03	2.782929E-16	8.683886E-18
6.860000E+03	2.780077E-16	8.684405E-18
6.870000E+03	2.777217E-16	8.684780E-18
6.880000E+03	2.774724E-16	8.686166E-18
6.890000E+03	2.771865E-16	8.686261E-18
6.900000E+03	2.769013E-16	8.686212E-18
6.910000E+03	2.766172E-16	8.686021E-18
6.920000E+03	2.763348E-16	8.685693E-18
6.930000E+03	2.760913E-16	8.686384E-18
6.940000E+03	2.758136E-16	8.685784E-18
6.950000E+03	2.755390E-16	8.685049E-18
6.960000E+03	2.752680E-16	8.684186E-18
6.970000E+03	2.750009E-16	8.683194E-18
6.980000E+03	2.747383E-16	8.682080E-18
6.990000E+03	2.744807E-16	8.680844E-18
7.000000E+03	2.742286E-16	8.679497E-18
7.010000E+03	2.739824E-16	8.678037E-18
7.020000E+03	2.737426E-16	8.676471E-18
7.030000E+03	2.735097E-16	8.674804E-18
7.040000E+03	2.732843E-16	8.673045E-18
7.050000E+03	2.730668E-16	8.671199E-18
7.060000E+03	2.728577E-16	8.669272E-18
7.070000E+03	2.726576E-16	8.667272E-18
7.080000E+03	2.724669E-16	8.665206E-18
7.090000E+03	2.722863E-16	8.663082E-18
7.100000E+03	2.721161E-16	8.660909E-18
7.110000E+03	2.719206E-16	8.657538E-18
7.120000E+03	2.717732E-16	8.655296E-18
7.130000E+03	2.716379E-16	8.653030E-18
7.140000E+03	2.715153E-16	8.650750E-18
7.150000E+03	2.714060E-16	8.648471E-18
7.160000E+03	2.712741E-16	8.645041E-18
7.170000E+03	2.711930E-16	8.642787E-18
7.180000E+03	2.711267E-16	8.640560E-18
7.190000E+03	2.710760E-16	8.638372E-18
7.200000E+03	2.710050E-16	8.635078E-18
7.210000E+03	2.709870E-16	8.633000E-18
7.220000E+03	2.709860E-16	8.630989E-18
7.230000E+03	2.709665E-16	8.627904E-18
7.240000E+03	2.710015E-16	8.626064E-18
7.250000E+03	2.710188E-16	8.623165E-18
7.260000E+03	2.710918E-16	8.621529E-18
7.270000E+03	2.711845E-16	8.620010E-18
7.280000E+03	2.712610E-16	8.617455E-18
7.290000E+03	2.713946E-16	8.616189E-18
7.300000E+03	2.715127E-16	8.613896E-18
7.310000E+03	2.716888E-16	8.612899E-18
7.320000E+03	2.718500E-16	8.610886E-18
7.330000E+03	2.720699E-16	8.610173E-18
7.340000E+03	2.722753E-16	8.608437E-18
7.350000E+03	2.725031E-16	8.606843E-18
7.360000E+03	2.727903E-16	8.606543E-18
7.370000E+03	2.730632E-16	8.605207E-18
7.380000E+03	2.733956E-16	8.605148E-18
7.390000E+03	2.737134E-16	8.604030E-18
7.400000E+03	2.740535E-16	8.603002E-18
7.410000E+03	2.744154E-16	8.602042E-18
7.420000E+03	2.748360E-16	8.602295E-18
7.430000E+03	2.752405E-16	8.601407E-18
7.440000E+03	2.756654E-16	8.600517E-18
7.450000E+03	2.761476E-16	8.600759E-18
7.460000E+03	2.766113E-16	8.599769E-18
7.470000E+03	2.770933E-16	8.598676E-18
7.480000E+03	2.775924E-16	8.597442E-18
7.490000E+03	2.781081E-16	8.596035E-18
7.500000E+03	2.786391E-16	8.594412E-18
7.510000E+03	2.791846E-16	8.592536E-18
7.520000E+03	2.797817E-16	8.591536E-18
7.530000E+03	2.803537E-16	8.589048E-18
7.540000E+03	2.809378E-16	8.586209E-18
7.550000E+03	2.815335E-16	8.582990E-18
7.560000E+03	2.821407E-16	8.579384E-18
7.570000E+03	2.827599E-16	8.575395E-18
7.580000E+03	2.833917E-16	8.571035E-18
7.590000E+03	2.840367E-16	8.566309E-18
7.600000E+03	2.846958E-16	8.561232E-18
7.610000E+03	2.853309E-16	8.554653E-18
7.620000E+03	2.860207E-16	8.548919E-18
7.630000E+03	2.867269E-16	8.542871E-18
7.640000E+03	2.874507E-16	8.536527E-18
7.650000E+03	2.881928E-16	8.529898E-18
7.660000E+03	2.889538E-16	8.522988E-18
7.670000E+03	2.896948E-16	8.514640E-18
7.680000E+03	2.904955E-16	8.507184E-18
7.690000E+03	2.913169E-16	8.499455E-18
7.700000E+03	2.921594E-16	8.491452E-18
7.710000E+03	2.929830E-16	8.482003E-18
7.720000E+03	2.938681E-16	8.473423E-18
7.730000E+03	2.947748E-16	8.464536E-18
7.740000E+03	2.956626E-16	8.454170E-18
7.750000E+03	2.966121E-16	8.444620E-18
7.760000E+03	2.975831E-16	8.434713E-18
