#wls	flux	fluxerr
1.600000E+03	2.330779E-17	6.624508E-19
1.640000E+03	2.358920E-17	6.701760E-19
1.680000E+03	2.388113E-17	6.781846E-19
1.720000E+03	2.418833E-17	6.866113E-19
1.760000E+03	2.450261E-17	6.952220E-19
1.800000E+03	2.482871E-17	7.041504E-19
1.840000E+03	2.517160E-17	7.135365E-19
1.880000E+03	2.552282E-17	7.231388E-19
1.920000E+03	2.589197E-17	7.332286E-19
1.960000E+03	2.627505E-17	7.436912E-19
2.000000E+03	2.666790E-17	7.544071E-19
2.040000E+03	2.708053E-17	7.656582E-19
2.080000E+03	2.750886E-17	7.773276E-19
2.120000E+03	2.795354E-17	7.894318E-19
2.160000E+03	2.841520E-17	8.019871E-19
2.200000E+03	2.889455E-17	8.150114E-19
2.240000E+03	2.939753E-17	8.286701E-19
2.280000E+03	2.991450E-17	8.426895E-19
2.320000E+03	3.045138E-17	8.572341E-19
2.360000E+03	3.101450E-17	8.724796E-19
2.400000E+03	3.159375E-17	8.881388E-19
2.440000E+03	3.220113E-17	9.045466E-19
2.480000E+03	3.283204E-17	9.215709E-19
2.520000E+03	3.348148E-17	9.390680E-19
2.560000E+03	3.416220E-17	9.573924E-19
2.600000E+03	3.486937E-17	9.764053E-19
2.640000E+03	3.560404E-17	9.961322E-19
2.680000E+03	3.636730E-17	1.016600E-18
2.720000E+03	3.716026E-17	1.037835E-18
2.760000E+03	3.799078E-17	1.060053E-18
2.800000E+03	3.884678E-17	1.082911E-18
2.840000E+03	3.973608E-17	1.106622E-18
2.880000E+03	4.066706E-17	1.131416E-18
2.920000E+03	4.162687E-17	1.156929E-18
2.960000E+03	4.263135E-17	1.183595E-18
3.000000E+03	4.366704E-17	1.211033E-18
3.010000E+03	4.393214E-17	1.218049E-18
3.020000E+03	4.420752E-17	1.225343E-18
3.030000E+03	4.447773E-17	1.232488E-18
3.040000E+03	4.475051E-17	1.239697E-18
3.050000E+03	4.502586E-17	1.246972E-18
3.060000E+03	4.530382E-17	1.254312E-18
3.070000E+03	4.559241E-17	1.261939E-18
3.080000E+03	4.587570E-17	1.269413E-18
3.090000E+03	4.616167E-17	1.276954E-18
3.100000E+03	4.645034E-17	1.284562E-18
3.110000E+03	4.674172E-17	1.292239E-18
3.120000E+03	4.703585E-17	1.299984E-18
3.130000E+03	4.734105E-17	1.308028E-18
3.140000E+03	4.764079E-17	1.315914E-18
3.150000E+03	4.794334E-17	1.323869E-18
3.160000E+03	4.824874E-17	1.331896E-18
3.170000E+03	4.856550E-17	1.340228E-18
3.180000E+03	4.887671E-17	1.348400E-18
3.190000E+03	4.919081E-17	1.356643E-18
3.200000E+03	4.950785E-17	1.364959E-18
3.210000E+03	4.982785E-17	1.373348E-18
3.220000E+03	5.015960E-17	1.382053E-18
3.230000E+03	5.048565E-17	1.390593E-18
3.240000E+03	5.081471E-17	1.399207E-18
3.250000E+03	5.114684E-17	1.407896E-18
3.260000E+03	5.149105E-17	1.416910E-18
3.270000E+03	5.182941E-17	1.425753E-18
3.280000E+03	5.217090E-17	1.434673E-18
3.290000E+03	5.251555E-17	1.443671E-18
3.300000E+03	5.287261E-17	1.453001E-18
3.310000E+03	5.322369E-17	1.462157E-18
3.320000E+03	5.357799E-17	1.471392E-18
3.330000E+03	5.393556E-17	1.480707E-18
3.340000E+03	5.430587E-17	1.490362E-18
3.350000E+03	5.467006E-17	1.499839E-18
3.360000E+03	5.503759E-17	1.509397E-18
3.370000E+03	5.540846E-17	1.519037E-18
3.380000E+03	5.579243E-17	1.529025E-18
3.390000E+03	5.617015E-17	1.538831E-18
3.400000E+03	5.655128E-17	1.548720E-18
3.410000E+03	5.693587E-17	1.558693E-18
3.420000E+03	5.733391E-17	1.569023E-18
3.430000E+03	5.772553E-17	1.579166E-18
3.440000E+03	5.812068E-17	1.589395E-18
3.450000E+03	5.852956E-17	1.599987E-18
3.460000E+03	5.893190E-17	1.610389E-18
3.470000E+03	5.933783E-17	1.620877E-18
3.480000E+03	5.974739E-17	1.631452E-18
3.490000E+03	6.017106E-17	1.642401E-18
3.500000E+03	6.058800E-17	1.653153E-18
3.510000E+03	6.100865E-17	1.663994E-18
3.520000E+03	6.143302E-17	1.674924E-18
3.530000E+03	6.187188E-17	1.686237E-18
3.540000E+03	6.230384E-17	1.697348E-18
3.550000E+03	6.273959E-17	1.708549E-18
3.560000E+03	6.319013E-17	1.720139E-18
3.570000E+03	6.363362E-17	1.731524E-18
3.580000E+03	6.408098E-17	1.743001E-18
3.590000E+03	6.454343E-17	1.754874E-18
3.600000E+03	6.499868E-17	1.766537E-18
3.610000E+03	6.545786E-17	1.778293E-18
3.620000E+03	6.592102E-17	1.790142E-18
3.630000E+03	6.639966E-17	1.802397E-18
3.640000E+03	6.687089E-17	1.814436E-18
3.650000E+03	6.734616E-17	1.826569E-18
3.660000E+03	6.783723E-17	1.839116E-18
3.670000E+03	6.832072E-17	1.851442E-18
3.680000E+03	6.880832E-17	1.863863E-18
3.690000E+03	6.930004E-17	1.876380E-18
3.700000E+03	6.980801E-17	1.889321E-18
3.710000E+03	7.030814E-17	1.902033E-18
3.720000E+03	7.081247E-17	1.914843E-18
3.730000E+03	7.133336E-17	1.928083E-18
3.740000E+03	7.184624E-17	1.941090E-18
3.750000E+03	7.236338E-17	1.954195E-18
3.760000E+03	7.289742E-17	1.967739E-18
3.770000E+03	7.342324E-17	1.981043E-18
3.780000E+03	7.395340E-17	1.994446E-18
3.790000E+03	7.448790E-17	2.007949E-18
3.800000E+03	7.503974E-17	2.021900E-18
3.810000E+03	7.558310E-17	2.035604E-18
3.820000E+03	7.613087E-17	2.049409E-18
3.830000E+03	7.669632E-17	2.063670E-18
3.840000E+03	7.725306E-17	2.077677E-18
3.850000E+03	7.781428E-17	2.091785E-18
3.860000E+03	7.838000E-17	2.105995E-18
3.870000E+03	7.896385E-17	2.120671E-18
3.880000E+03	7.953869E-17	2.135086E-18
3.890000E+03	8.011809E-17	2.149602E-18
3.900000E+03	8.071596E-17	2.164592E-18
3.910000E+03	8.130461E-17	2.179315E-18
3.920000E+03	8.189785E-17	2.194139E-18
3.930000E+03	8.249571E-17	2.209065E-18
3.940000E+03	8.311251E-17	2.224477E-18
3.950000E+03	8.371975E-17	2.239610E-18
3.960000E+03	8.433166E-17	2.254846E-18
3.970000E+03	8.494825E-17	2.270185E-18
3.980000E+03	8.558424E-17	2.286019E-18
3.990000E+03	8.621032E-17	2.301565E-18
4.000000E+03	8.684113E-17	2.317213E-18
4.010000E+03	8.749172E-17	2.333366E-18
4.020000E+03	8.813210E-17	2.349222E-18
4.030000E+03	8.877724E-17	2.365180E-18
4.040000E+03	8.942715E-17	2.381242E-18
4.050000E+03	9.009730E-17	2.397817E-18
4.060000E+03	9.075687E-17	2.414085E-18
4.070000E+03	9.142123E-17	2.430455E-18
4.080000E+03	9.209039E-17	2.446926E-18
4.090000E+03	9.278027E-17	2.463923E-18
4.100000E+03	9.345916E-17	2.480600E-18
4.110000E+03	9.414286E-17	2.497379E-18
4.120000E+03	9.483137E-17	2.514258E-18
4.130000E+03	9.552470E-17	2.531238E-18
4.140000E+03	9.623934E-17	2.548754E-18
4.150000E+03	9.694242E-17	2.565937E-18
4.160000E+03	9.765032E-17	2.583218E-18
4.170000E+03	9.836304E-17	2.600599E-18
4.180000E+03	9.909753E-17	2.618526E-18
4.190000E+03	9.981998E-17	2.636106E-18
4.200000E+03	1.005472E-16	2.653782E-18
4.210000E+03	1.012793E-16	2.671555E-18
4.220000E+03	1.020161E-16	2.689425E-18
4.230000E+03	1.027752E-16	2.707852E-18
4.240000E+03	1.035217E-16	2.725914E-18
4.250000E+03	1.042729E-16	2.744069E-18
4.260000E+03	1.050288E-16	2.762318E-18
4.270000E+03	1.057894E-16	2.780657E-18
4.280000E+03	1.065729E-16	2.799567E-18
4.290000E+03	1.073431E-16	2.818093E-18
4.300000E+03	1.081178E-16	2.836706E-18
4.310000E+03	1.088972E-16	2.855409E-18
4.320000E+03	1.096811E-16	2.874196E-18
4.330000E+03	1.104697E-16	2.893070E-18
4.340000E+03	1.112817E-16	2.912525E-18
4.350000E+03	1.120793E-16	2.931570E-18
4.360000E+03	1.128815E-16	2.950697E-18
4.370000E+03	1.136881E-16	2.969907E-18
4.380000E+03	1.144990E-16	2.989193E-18
4.390000E+03	1.153144E-16	3.008558E-18
4.400000E+03	1.161340E-16	3.027999E-18
4.410000E+03	1.169779E-16	3.048036E-18
4.420000E+03	1.178061E-16	3.067628E-18
4.430000E+03	1.186386E-16	3.087294E-18
4.440000E+03	1.194753E-16	3.107032E-18
4.450000E+03	1.203161E-16	3.126836E-18
4.460000E+03	1.211609E-16	3.146708E-18
4.470000E+03	1.220098E-16	3.166650E-18
4.480000E+03	1.228627E-16	3.186654E-18
4.490000E+03	1.237195E-16	3.206722E-18
4.500000E+03	1.246016E-16	3.227404E-18
4.510000E+03	1.254664E-16	3.247598E-18
4.520000E+03	1.263352E-16	3.267857E-18
4.530000E+03	1.272077E-16	3.288171E-18
4.540000E+03	1.280842E-16	3.308548E-18
4.550000E+03	1.289645E-16	3.328979E-18
4.560000E+03	1.298488E-16	3.349473E-18
4.570000E+03	1.307368E-16	3.370021E-18
4.580000E+03	1.316288E-16	3.390630E-18
4.590000E+03	1.325247E-16	3.411297E-18
4.600000E+03	1.334246E-16	3.432024E-18
4.610000E+03	1.343285E-16	3.452811E-18
4.620000E+03	1.352365E-16	3.473660E-18
4.630000E+03	1.361487E-16	3.494573E-18
4.640000E+03	1.370652E-16	3.515550E-18
4.650000E+03	1.379861E-16	3.536598E-18
4.660000E+03	1.389116E-16	3.557716E-18
4.670000E+03	1.398417E-16	3.578911E-18
4.680000E+03	1.407767E-16	3.600183E-18
4.690000E+03	1.417168E-16	3.621537E-18
4.700000E+03	1.426620E-16	3.642978E-18
4.710000E+03	1.436126E-16	3.664509E-18
4.720000E+03	1.445686E-16	3.686132E-18
4.730000E+03	1.455304E-16	3.707853E-18
4.740000E+03	1.464980E-16	3.729674E-18
4.750000E+03	1.474716E-16	3.751599E-18
4.760000E+03	1.484513E-16	3.773631E-18
4.770000E+03	1.494370E-16	3.795767E-18
4.780000E+03	1.504289E-16	3.818010E-18
4.790000E+03	1.514269E-16	3.840358E-18
4.800000E+03	1.524308E-16	3.862806E-18
4.810000E+03	1.534148E-16	3.884697E-18
4.820000E+03	1.544303E-16	3.907334E-18
4.830000E+03	1.554511E-16	3.930056E-18
4.840000E+03	1.564771E-16	3.952857E-18
4.850000E+03	1.575079E-16	3.975725E-18
4.860000E+03	1.585431E-16	3.998650E-18
4.870000E+03	1.595823E-16	4.021625E-18
4.880000E+03	1.606249E-16	4.044633E-18
4.890000E+03	1.616708E-16	4.067666E-18
4.900000E+03	1.626917E-16	4.090020E-18
4.910000E+03	1.637422E-16	4.113063E-18
4.920000E+03	1.647944E-16	4.136094E-18
4.930000E+03	1.658479E-16	4.159102E-18
4.940000E+03	1.669022E-16	4.182075E-18
4.950000E+03	1.679571E-16	4.205007E-18
4.960000E+03	1.689833E-16	4.227168E-18
4.970000E+03	1.700376E-16	4.249973E-18
4.980000E+03	1.710912E-16	4.272707E-18
4.990000E+03	1.721436E-16	4.295356E-18
5.000000E+03	1.731947E-16	4.317915E-18
5.010000E+03	1.742147E-16	4.339643E-18
5.020000E+03	1.752620E-16	4.361995E-18
5.030000E+03	1.763070E-16	4.384234E-18
5.040000E+03	1.773497E-16	4.406359E-18
5.050000E+03	1.783596E-16	4.427614E-18
5.060000E+03	1.793967E-16	4.449487E-18
5.070000E+03	1.804308E-16	4.471231E-18
5.080000E+03	1.814618E-16	4.492842E-18
5.090000E+03	1.824590E-16	4.513558E-18
5.100000E+03	1.834834E-16	4.534893E-18
5.110000E+03	1.845046E-16	4.556091E-18
5.120000E+03	1.855222E-16	4.577147E-18
5.130000E+03	1.865051E-16	4.597289E-18
5.140000E+03	1.875158E-16	4.618060E-18
5.150000E+03	1.885230E-16	4.638689E-18
5.160000E+03	1.894947E-16	4.658390E-18
5.170000E+03	1.904947E-16	4.678730E-18
5.180000E+03	1.914912E-16	4.698930E-18
5.190000E+03	1.924520E-16	4.718197E-18
5.200000E+03	1.934414E-16	4.738111E-18
5.210000E+03	1.944276E-16	4.757889E-18
5.220000E+03	1.953774E-16	4.776723E-18
5.230000E+03	1.963566E-16	4.796222E-18
5.240000E+03	1.972993E-16	4.814773E-18
5.250000E+03	1.982718E-16	4.833997E-18
5.260000E+03	1.992410E-16	4.853087E-18
5.270000E+03	2.001735E-16	4.871225E-18
5.280000E+03	2.011363E-16	4.890050E-18
5.290000E+03	2.020960E-16	4.908744E-18
5.300000E+03	2.030184E-16	4.926477E-18
5.310000E+03	2.039719E-16	4.944912E-18
5.320000E+03	2.048880E-16	4.962384E-18
5.330000E+03	2.058353E-16	4.980561E-18
5.340000E+03	2.067449E-16	4.997772E-18
5.350000E+03	2.076862E-16	5.015695E-18
5.360000E+03	2.085896E-16	5.032650E-18
5.370000E+03	2.095250E-16	5.050325E-18
5.380000E+03	2.104575E-16	5.067877E-18
5.390000E+03	2.113516E-16	5.084450E-18
5.400000E+03	2.122782E-16	5.101753E-18
5.410000E+03	2.131661E-16	5.118074E-18
5.420000E+03	2.140868E-16	5.135130E-18
5.430000E+03	2.149684E-16	5.151198E-18
5.440000E+03	2.158831E-16	5.168007E-18
5.450000E+03	2.167583E-16	5.183820E-18
5.460000E+03	2.176668E-16	5.200377E-18
5.470000E+03	2.185355E-16	5.215935E-18
5.480000E+03	2.194008E-16	5.231360E-18
5.490000E+03	2.202997E-16	5.247535E-18
5.500000E+03	2.211581E-16	5.262698E-18
5.510000E+03	2.220502E-16	5.278614E-18
5.520000E+03	2.229015E-16	5.293508E-18
5.530000E+03	2.237866E-16	5.309156E-18
5.540000E+03	2.246304E-16	5.323776E-18
5.550000E+03	2.254701E-16	5.338254E-18
5.560000E+03	2.263438E-16	5.353487E-18
5.570000E+03	2.271754E-16	5.367677E-18
5.580000E+03	2.280410E-16	5.382621E-18
5.590000E+03	2.288638E-16	5.396511E-18
5.600000E+03	2.296822E-16	5.410250E-18
5.610000E+03	2.305343E-16	5.424738E-18
5.620000E+03	2.313430E-16	5.438159E-18
5.630000E+03	2.321855E-16	5.452330E-18
5.640000E+03	2.329840E-16	5.465421E-18
5.650000E+03	2.337768E-16	5.478339E-18
5.660000E+03	2.346035E-16	5.492004E-18
5.670000E+03	2.353849E-16	5.504568E-18
5.680000E+03	2.361602E-16	5.516947E-18
5.690000E+03	2.369689E-16	5.530067E-18
5.700000E+03	2.377314E-16	5.542064E-18
5.710000E+03	2.384871E-16	5.553866E-18
5.720000E+03	2.392357E-16	5.565461E-18
5.730000E+03	2.400173E-16	5.577786E-18
5.740000E+03	2.407510E-16	5.588959E-18
5.750000E+03	2.414768E-16	5.599912E-18
5.760000E+03	2.422350E-16	5.611580E-18
5.770000E+03	2.429443E-16	5.622077E-18
5.780000E+03	2.436447E-16	5.632334E-18
5.790000E+03	2.443360E-16	5.642346E-18
5.800000E+03	2.450588E-16	5.653052E-18
5.810000E+03	2.457308E-16	5.662555E-18
5.820000E+03	2.463928E-16	5.671794E-18
5.830000E+03	2.470441E-16	5.680758E-18
5.840000E+03	2.477261E-16	5.690396E-18
5.850000E+03	2.483553E-16	5.698793E-18
5.860000E+03	2.489730E-16	5.706897E-18
5.870000E+03	2.495787E-16	5.714700E-18
5.880000E+03	2.501719E-16	5.722193E-18
5.890000E+03	2.507944E-16	5.730329E-18
5.900000E+03	2.513617E-16	5.737180E-18
5.910000E+03	2.519155E-16	5.743701E-18
5.920000E+03	2.524552E-16	5.749880E-18
5.930000E+03	2.529807E-16	5.755714E-18
5.940000E+03	2.534914E-16	5.761193E-18
5.950000E+03	2.540295E-16	5.767278E-18
5.960000E+03	2.545098E-16	5.772032E-18
5.970000E+03	2.549741E-16	5.776408E-18
5.980000E+03	2.554223E-16	5.780408E-18
5.990000E+03	2.558542E-16	5.784022E-18
6.000000E+03	2.562691E-16	5.787246E-18
6.010000E+03	2.566671E-16	5.790075E-18
6.020000E+03	2.570477E-16	5.792504E-18
6.030000E+03	2.574541E-16	5.795507E-18
6.040000E+03	2.577998E-16	5.797135E-18
6.050000E+03	2.581277E-16	5.798361E-18
6.060000E+03	2.584378E-16	5.799183E-18
6.070000E+03	2.587301E-16	5.799604E-18
6.080000E+03	2.590046E-16	5.799626E-18
6.090000E+03	2.592615E-16	5.799254E-18
6.100000E+03	2.595008E-16	5.798493E-18
6.110000E+03	2.597227E-16	5.797347E-18
6.120000E+03	2.599278E-16	5.795831E-18
6.130000E+03	2.601163E-16	5.793951E-18
6.140000E+03	2.602887E-16	5.791721E-18
6.150000E+03	2.604456E-16	5.789155E-18
6.160000E+03	2.605875E-16	5.786266E-18
6.170000E+03	2.607152E-16	5.783074E-18
6.180000E+03	2.608293E-16	5.779593E-18
6.190000E+03	2.609307E-16	5.775846E-18
6.200000E+03	2.610202E-16	5.771849E-18
6.210000E+03	2.610985E-16	5.767623E-18
6.220000E+03	2.611664E-16	5.763182E-18
6.230000E+03	2.612243E-16	5.758542E-18
6.240000E+03	2.612730E-16	5.753715E-18
6.250000E+03	2.613125E-16	5.748708E-18
6.260000E+03	2.613435E-16	5.743530E-18
6.270000E+03	2.613662E-16	5.738192E-18
6.280000E+03	2.613811E-16	5.732698E-18
6.290000E+03	2.613885E-16	5.727061E-18
6.300000E+03	2.613891E-16	5.721292E-18
6.310000E+03	2.613831E-16	5.715396E-18
6.320000E+03	2.613714E-16	5.709392E-18
6.330000E+03	2.613544E-16	5.703290E-18
6.340000E+03	2.613328E-16	5.697106E-18
6.350000E+03	2.613073E-16	5.690851E-18
6.360000E+03	2.612787E-16	5.684545E-18
6.370000E+03	2.612477E-16	5.678200E-18
6.380000E+03	2.612148E-16	5.671831E-18
6.390000E+03	2.611373E-16	5.664508E-18
6.400000E+03	2.611034E-16	5.658143E-18
6.410000E+03	2.610700E-16	5.651805E-18
6.420000E+03	2.610380E-16	5.645507E-18
6.430000E+03	2.610081E-16	5.639266E-18
6.440000E+03	2.609808E-16	5.633093E-18
6.450000E+03	2.609571E-16	5.627008E-18
6.460000E+03	2.609375E-16	5.621021E-18
6.470000E+03	2.608790E-16	5.614205E-18
6.480000E+03	2.608698E-16	5.608459E-18
6.490000E+03	2.608667E-16	5.602849E-18
6.500000E+03	2.608704E-16	5.597392E-18
6.510000E+03	2.608812E-16	5.592092E-18
6.520000E+03	2.608999E-16	5.586964E-18
6.530000E+03	2.609267E-16	5.582013E-18
6.540000E+03	2.609185E-16	5.576317E-18
6.550000E+03	2.609631E-16	5.571749E-18
6.560000E+03	2.610170E-16	5.567381E-18
6.570000E+03	2.610808E-16	5.563220E-18
6.580000E+03	2.611545E-16	5.559269E-18
6.590000E+03	2.611948E-16	5.554603E-18
6.600000E+03	2.612893E-16	5.551088E-18
6.610000E+03	2.613945E-16	5.547793E-18
6.620000E+03	2.615106E-16	5.544722E-18
6.630000E+03	2.616378E-16	5.541880E-18
6.640000E+03	2.617322E-16	5.538333E-18
6.650000E+03	2.618817E-16	5.535945E-18
6.660000E+03	2.620427E-16	5.533786E-18
6.670000E+03	2.622150E-16	5.531856E-18
6.680000E+03	2.623548E-16	5.529226E-18
6.690000E+03	2.625501E-16	5.527753E-18
6.700000E+03	2.627569E-16	5.526507E-18
6.710000E+03	2.629754E-16	5.525489E-18
6.720000E+03	2.631612E-16	5.523769E-18
6.730000E+03	2.634027E-16	5.523199E-18
6.740000E+03	2.636559E-16	5.522855E-18
6.750000E+03	2.639205E-16	5.522729E-18
6.760000E+03	2.641524E-16	5.521898E-18
6.770000E+03	2.644399E-16	5.522207E-18
6.780000E+03	2.647390E-16	5.522734E-18
6.790000E+03	2.650050E-16	5.522547E-18
6.800000E+03	2.653269E-16	5.523499E-18
6.810000E+03	2.656600E-16	5.524657E-18
6.820000E+03	2.660043E-16	5.526023E-18
6.830000E+03	2.663152E-16	5.526663E-18
6.840000E+03	2.666818E-16	5.528433E-18
6.850000E+03	2.670596E-16	5.530401E-18
6.860000E+03	2.674035E-16	5.531638E-18
6.870000E+03	2.678031E-16	5.533996E-18
6.880000E+03	2.682137E-16	5.536545E-18
6.890000E+03	2.685900E-16	5.538354E-18
6.900000E+03	2.690221E-16	5.541279E-18
6.910000E+03	2.694648E-16	5.544386E-18
6.920000E+03	2.698728E-16	5.546741E-18
6.930000E+03	2.703366E-16	5.550207E-18
6.940000E+03	2.707654E-16	5.552914E-18
6.950000E+03	2.712499E-16	5.556726E-18
6.960000E+03	2.717447E-16	5.560706E-18
6.970000E+03	2.722039E-16	5.563919E-18
6.980000E+03	2.727189E-16	5.568229E-18
6.990000E+03	2.732439E-16	5.572699E-18
7.000000E+03	2.737328E-16	5.576391E-18
7.010000E+03	2.742775E-16	5.581173E-18
7.020000E+03	2.747857E-16	5.585168E-18
7.030000E+03	2.753494E-16	5.590246E-18
7.040000E+03	2.759227E-16	5.595471E-18
7.050000E+03	2.764589E-16	5.599896E-18
7.060000E+03	2.770507E-16	5.605398E-18
7.070000E+03	2.776049E-16	5.610091E-18
7.080000E+03	2.782145E-16	5.615854E-18
7.090000E+03	2.788330E-16	5.621745E-18
7.100000E+03	2.794131E-16	5.626810E-18
7.110000E+03	2.800485E-16	5.632938E-18
7.120000E+03	2.806450E-16	5.638230E-18
7.130000E+03	2.812967E-16	5.644578E-18
7.140000E+03	2.819088E-16	5.650079E-18
7.150000E+03	2.825758E-16	5.656625E-18
7.160000E+03	2.832026E-16	5.662311E-18
7.170000E+03	2.838841E-16	5.669038E-18
7.180000E+03	2.845247E-16	5.674888E-18
7.190000E+03	2.852197E-16	5.681770E-18
7.200000E+03	2.859209E-16	5.688716E-18
7.210000E+03	2.865798E-16	5.694766E-18
7.220000E+03	2.872927E-16	5.701828E-18
7.230000E+03	2.879623E-16	5.707974E-18
7.240000E+03	2.886853E-16	5.715119E-18
7.250000E+03	2.893640E-16	5.721331E-18
7.260000E+03	2.900955E-16	5.728524E-18
7.270000E+03	2.907816E-16	5.734764E-18
7.280000E+03	2.915197E-16	5.741971E-18
7.290000E+03	2.922114E-16	5.748202E-18
7.300000E+03	2.929542E-16	5.755382E-18
7.310000E+03	2.936493E-16	5.761564E-18
7.320000E+03	2.943453E-16	5.767703E-18
7.330000E+03	2.950911E-16	5.774760E-18
7.340000E+03	2.957870E-16	5.780781E-18
7.350000E+03	2.965318E-16	5.787699E-18
7.360000E+03	2.972251E-16	5.793553E-18
7.370000E+03	2.979663E-16	5.800281E-18
7.380000E+03	2.986545E-16	5.805919E-18
7.390000E+03	2.993894E-16	5.812407E-18
7.400000E+03	3.000695E-16	5.817774E-18
7.410000E+03	3.007953E-16	5.823970E-18
7.420000E+03	3.014647E-16	5.829017E-18
7.430000E+03	3.021276E-16	5.833885E-18
7.440000E+03	3.028345E-16	5.839547E-18
7.450000E+03	3.034826E-16	5.844020E-18
7.460000E+03	3.041735E-16	5.849264E-18
7.470000E+03	3.048041E-16	5.853297E-18
7.480000E+03	3.054251E-16	5.857094E-18
7.490000E+03	3.060875E-16	5.861635E-18
7.500000E+03	3.066877E-16	5.864935E-18
7.510000E+03	3.073286E-16	5.868966E-18
7.520000E+03	3.079060E-16	5.871738E-18
7.530000E+03	3.084717E-16	5.874241E-18
7.540000E+03	3.090774E-16	5.877460E-18
7.550000E+03	3.096185E-16	5.879409E-18
7.560000E+03	3.101994E-16	5.882073E-18
7.570000E+03	3.107154E-16	5.883464E-18
7.580000E+03	3.112186E-16	5.884576E-18
7.590000E+03	3.117618E-16	5.886409E-18
7.600000E+03	3.122399E-16	5.886975E-18
7.610000E+03	3.127055E-16	5.887272E-18
7.620000E+03	3.132118E-16	5.888304E-18
7.630000E+03	3.136532E-16	5.888085E-18
7.640000E+03	3.140829E-16	5.887618E-18
7.650000E+03	3.145545E-16	5.887908E-18
7.660000E+03	3.149620E-16	5.886972E-18
7.670000E+03	3.153589E-16	5.885816E-18
7.680000E+03	3.157990E-16	5.885444E-18
7.690000E+03	3.161761E-16	5.883876E-18
7.700000E+03	3.165438E-16	5.882117E-18
7.710000E+03	3.169564E-16	5.881175E-18
7.720000E+03	3.173072E-16	5.879070E-18
7.730000E+03	3.176501E-16	5.876805E-18
7.740000E+03	3.180395E-16	5.875389E-18
7.750000E+03	3.183683E-16	5.872843E-18
7.760000E+03	3.186907E-16	5.870171E-18
