#wls	flux	fluxerr
1.600000E+03	3.919692E-17	1.742113E-17
1.640000E+03	4.015214E-17	1.777346E-17
1.680000E+03	4.117698E-17	1.815087E-17
1.720000E+03	4.227274E-17	1.855332E-17
1.760000E+03	4.344434E-17	1.898234E-17
1.800000E+03	4.470010E-17	1.944086E-17
1.840000E+03	4.603309E-17	1.992509E-17
1.880000E+03	4.745481E-17	2.043923E-17
1.920000E+03	4.896524E-17	2.098238E-17
1.960000E+03	5.056414E-17	2.155353E-17
2.000000E+03	5.224743E-17	2.215001E-17
2.040000E+03	5.401452E-17	2.277059E-17
2.080000E+03	5.585752E-17	2.341096E-17
2.120000E+03	5.776158E-17	2.406396E-17
2.160000E+03	5.972255E-17	2.472696E-17
2.200000E+03	6.172247E-17	2.539167E-17
2.240000E+03	6.374725E-17	2.605153E-17
2.280000E+03	6.578990E-17	2.670300E-17
2.320000E+03	6.785016E-17	2.734532E-17
2.360000E+03	6.993746E-17	2.798158E-17
2.400000E+03	7.206390E-17	2.861581E-17
2.440000E+03	7.424077E-17	2.925155E-17
2.480000E+03	7.648814E-17	2.989559E-17
2.520000E+03	7.881537E-17	3.055028E-17
2.560000E+03	8.123720E-17	3.121988E-17
2.600000E+03	8.375804E-17	3.190445E-17
2.640000E+03	8.638459E-17	3.260482E-17
2.680000E+03	8.911675E-17	3.331909E-17
2.720000E+03	9.195383E-17	3.404512E-17
2.760000E+03	9.489463E-17	3.478047E-17
2.800000E+03	9.793454E-17	3.552147E-17
2.840000E+03	1.010686E-16	3.626428E-17
2.880000E+03	1.042970E-16	3.700694E-17
2.920000E+03	1.076139E-16	3.774528E-17
2.960000E+03	1.110266E-16	3.847971E-17
3.000000E+03	1.145335E-16	3.920736E-17
3.010000E+03	1.154285E-16	3.938917E-17
3.020000E+03	1.163280E-16	3.956991E-17
3.030000E+03	1.172319E-16	3.974946E-17
3.040000E+03	1.181451E-16	3.992951E-17
3.050000E+03	1.190648E-16	4.010903E-17
3.060000E+03	1.199907E-16	4.028791E-17
3.070000E+03	1.209253E-16	4.046689E-17
3.080000E+03	1.218656E-16	4.064500E-17
3.090000E+03	1.228116E-16	4.082211E-17
3.100000E+03	1.237680E-16	4.099980E-17
3.110000E+03	1.247295E-16	4.117624E-17
3.120000E+03	1.256983E-16	4.135216E-17
3.130000E+03	1.266718E-16	4.152660E-17
3.140000E+03	1.276572E-16	4.170191E-17
3.150000E+03	1.286468E-16	4.187548E-17
3.160000E+03	1.296427E-16	4.204803E-17
3.170000E+03	1.306473E-16	4.222021E-17
3.180000E+03	1.316602E-16	4.239189E-17
3.190000E+03	1.326762E-16	4.256136E-17
3.200000E+03	1.337025E-16	4.273085E-17
3.210000E+03	1.347340E-16	4.289865E-17
3.220000E+03	1.357726E-16	4.306542E-17
3.230000E+03	1.368159E-16	4.323026E-17
3.240000E+03	1.378660E-16	4.339380E-17
3.250000E+03	1.389225E-16	4.355592E-17
3.260000E+03	1.399852E-16	4.371648E-17
3.270000E+03	1.410515E-16	4.387461E-17
3.280000E+03	1.421235E-16	4.403093E-17
3.290000E+03	1.432009E-16	4.418531E-17
3.300000E+03	1.442811E-16	4.433692E-17
3.310000E+03	1.453663E-16	4.448634E-17
3.320000E+03	1.464538E-16	4.463276E-17
3.330000E+03	1.475458E-16	4.477676E-17
3.340000E+03	1.486396E-16	4.491754E-17
3.350000E+03	1.497351E-16	4.505499E-17
3.360000E+03	1.508321E-16	4.518902E-17
3.370000E+03	1.519302E-16	4.531952E-17
3.380000E+03	1.530294E-16	4.544639E-17
3.390000E+03	1.541271E-16	4.556889E-17
3.400000E+03	1.552255E-16	4.568759E-17
3.410000E+03	1.563197E-16	4.580109E-17
3.420000E+03	1.574142E-16	4.591064E-17
3.430000E+03	1.585044E-16	4.601487E-17
3.440000E+03	1.595900E-16	4.611372E-17
3.450000E+03	1.606710E-16	4.620715E-17
3.460000E+03	1.617450E-16	4.629448E-17
3.470000E+03	1.628142E-16	4.637631E-17
3.480000E+03	1.638762E-16	4.645197E-17
3.490000E+03	1.649288E-16	4.652084E-17
3.500000E+03	1.659719E-16	4.658292E-17
3.510000E+03	1.670035E-16	4.663760E-17
3.520000E+03	1.680255E-16	4.668548E-17
3.530000E+03	1.690316E-16	4.672483E-17
3.540000E+03	1.700240E-16	4.675626E-17
3.550000E+03	1.710007E-16	4.677925E-17
3.560000E+03	1.719615E-16	4.679384E-17
3.570000E+03	1.729026E-16	4.679898E-17
3.580000E+03	1.738220E-16	4.679421E-17
3.590000E+03	1.747219E-16	4.678018E-17
3.600000E+03	1.755962E-16	4.675535E-17
3.610000E+03	1.764474E-16	4.672042E-17
3.620000E+03	1.772735E-16	4.667497E-17
3.630000E+03	1.780708E-16	4.661811E-17
3.640000E+03	1.788377E-16	4.654950E-17
3.650000E+03	1.795743E-16	4.646933E-17
3.660000E+03	1.802773E-16	4.637679E-17
3.670000E+03	1.809487E-16	4.627260E-17
3.680000E+03	1.815834E-16	4.615550E-17
3.690000E+03	1.821815E-16	4.602573E-17
3.700000E+03	1.827418E-16	4.588309E-17
3.710000E+03	1.832646E-16	4.572784E-17
3.720000E+03	1.837468E-16	4.555931E-17
3.730000E+03	1.841887E-16	4.537781E-17
3.740000E+03	1.845891E-16	4.518318E-17
3.750000E+03	1.849485E-16	4.497574E-17
3.760000E+03	1.852657E-16	4.475535E-17
3.770000E+03	1.855412E-16	4.452234E-17
3.780000E+03	1.857739E-16	4.427660E-17
3.790000E+03	1.859625E-16	4.401803E-17
3.800000E+03	1.861112E-16	4.374786E-17
3.810000E+03	1.862154E-16	4.346513E-17
3.820000E+03	1.862773E-16	4.317062E-17
3.830000E+03	1.862996E-16	4.286509E-17
3.840000E+03	1.862791E-16	4.254805E-17
3.850000E+03	1.862167E-16	4.221988E-17
3.860000E+03	1.861146E-16	4.188130E-17
3.870000E+03	1.859737E-16	4.153266E-17
3.880000E+03	1.857943E-16	4.117429E-17
3.890000E+03	1.855756E-16	4.080614E-17
3.900000E+03	1.853198E-16	4.042893E-17
3.910000E+03	1.850275E-16	4.004298E-17
3.920000E+03	1.846994E-16	3.964860E-17
3.930000E+03	1.843360E-16	3.924613E-17
3.940000E+03	1.839380E-16	3.883587E-17
3.950000E+03	1.835076E-16	3.841848E-17
3.960000E+03	1.830455E-16	3.799426E-17
3.970000E+03	1.825504E-16	3.756317E-17
3.980000E+03	1.820262E-16	3.712616E-17
3.990000E+03	1.814719E-16	3.668319E-17
4.000000E+03	1.808896E-16	3.623486E-17
4.010000E+03	1.802799E-16	3.578144E-17
4.020000E+03	1.796415E-16	3.532287E-17
4.030000E+03	1.789783E-16	3.486006E-17
4.040000E+03	1.782891E-16	3.439293E-17
4.050000E+03	1.775760E-16	3.392206E-17
4.060000E+03	1.768395E-16	3.344766E-17
4.070000E+03	1.760799E-16	3.296999E-17
4.080000E+03	1.752978E-16	3.248927E-17
4.090000E+03	1.744951E-16	3.200603E-17
4.100000E+03	1.736707E-16	3.152020E-17
4.110000E+03	1.728251E-16	3.103200E-17
4.120000E+03	1.719617E-16	3.054221E-17
4.130000E+03	1.710778E-16	3.005049E-17
4.140000E+03	1.701755E-16	2.955733E-17
4.150000E+03	1.692550E-16	2.906292E-17
4.160000E+03	1.683167E-16	2.856749E-17
4.170000E+03	1.673612E-16	2.807122E-17
4.180000E+03	1.663886E-16	2.757434E-17
4.190000E+03	1.653995E-16	2.707702E-17
4.200000E+03	1.643942E-16	2.657949E-17
4.210000E+03	1.633730E-16	2.608193E-17
4.220000E+03	1.623364E-16	2.558454E-17
4.230000E+03	1.612833E-16	2.508731E-17
4.240000E+03	1.602140E-16	2.459044E-17
4.250000E+03	1.591305E-16	2.409434E-17
4.260000E+03	1.580329E-16	2.359922E-17
4.270000E+03	1.569190E-16	2.310486E-17
4.280000E+03	1.557905E-16	2.261167E-17
4.290000E+03	1.546479E-16	2.211987E-17
4.300000E+03	1.534914E-16	2.162965E-17
4.310000E+03	1.523215E-16	2.114122E-17
4.320000E+03	1.511372E-16	2.065459E-17
4.330000E+03	1.499417E-16	2.017035E-17
4.340000E+03	1.487325E-16	1.968833E-17
4.350000E+03	1.475128E-16	1.920909E-17
4.360000E+03	1.462830E-16	1.873282E-17
4.370000E+03	1.450446E-16	1.825988E-17
4.380000E+03	1.437980E-16	1.779044E-17
4.390000E+03	1.425449E-16	1.732485E-17
4.400000E+03	1.412857E-16	1.686327E-17
4.410000E+03	1.400230E-16	1.640618E-17
4.420000E+03	1.387573E-16	1.595373E-17
4.430000E+03	1.374889E-16	1.550609E-17
4.440000E+03	1.362205E-16	1.506367E-17
4.450000E+03	1.349524E-16	1.462664E-17
4.460000E+03	1.336861E-16	1.419525E-17
4.470000E+03	1.324243E-16	1.376992E-17
4.480000E+03	1.311661E-16	1.335063E-17
4.490000E+03	1.299140E-16	1.293778E-17
4.500000E+03	1.286695E-16	1.253161E-17
4.510000E+03	1.274329E-16	1.213225E-17
4.520000E+03	1.262055E-16	1.173995E-17
4.530000E+03	1.249888E-16	1.135495E-17
4.540000E+03	1.237840E-16	1.097750E-17
4.550000E+03	1.225927E-16	1.060784E-17
4.560000E+03	1.214149E-16	1.024612E-17
4.570000E+03	1.202510E-16	9.892519E-18
4.580000E+03	1.191046E-16	9.547490E-18
4.590000E+03	1.179747E-16	9.211128E-18
4.600000E+03	1.168616E-16	8.883648E-18
4.610000E+03	1.157678E-16	8.565452E-18
4.620000E+03	1.146947E-16	8.256870E-18
4.630000E+03	1.136404E-16	7.958023E-18
4.640000E+03	1.126094E-16	7.669529E-18
4.650000E+03	1.115989E-16	7.391500E-18
4.660000E+03	1.106125E-16	7.124529E-18
4.670000E+03	1.096504E-16	6.869020E-18
4.680000E+03	1.087131E-16	6.625415E-18
4.690000E+03	1.078009E-16	6.394196E-18
4.700000E+03	1.069142E-16	6.175878E-18
4.710000E+03	1.060557E-16	5.971129E-18
4.720000E+03	1.052246E-16	5.780452E-18
4.730000E+03	1.044216E-16	5.604427E-18
4.740000E+03	1.036480E-16	5.443688E-18
4.750000E+03	1.029024E-16	5.298682E-18
4.760000E+03	1.021883E-16	5.170087E-18
4.770000E+03	1.015031E-16	5.058192E-18
4.780000E+03	1.008493E-16	4.963452E-18
4.790000E+03	1.002273E-16	4.886091E-18
4.800000E+03	9.963519E-17	4.826077E-18
4.810000E+03	9.907400E-17	4.783338E-18
4.820000E+03	9.854430E-17	4.757586E-18
4.830000E+03	9.804333E-17	4.748185E-18
4.840000E+03	9.757112E-17	4.754467E-18
4.850000E+03	9.712658E-17	4.775578E-18
4.860000E+03	9.670760E-17	4.810517E-18
4.870000E+03	9.631304E-17	4.858262E-18
4.880000E+03	9.594277E-17	4.917810E-18
4.890000E+03	9.559475E-17	4.988048E-18
4.900000E+03	9.526890E-17	5.067985E-18
4.910000E+03	9.496230E-17	5.156509E-18
4.920000E+03	9.467500E-17	5.252709E-18
4.930000E+03	9.440613E-17	5.355684E-18
4.940000E+03	9.415391E-17	5.464539E-18
4.950000E+03	9.391854E-17	5.578554E-18
4.960000E+03	9.369836E-17	5.696963E-18
4.970000E+03	9.349367E-17	5.819180E-18
4.980000E+03	9.330289E-17	5.944561E-18
4.990000E+03	9.312548E-17	6.072577E-18
5.000000E+03	9.295995E-17	6.202688E-18
5.010000E+03	9.280774E-17	6.334593E-18
5.020000E+03	9.266650E-17	6.467781E-18
5.030000E+03	9.253584E-17	6.601906E-18
5.040000E+03	9.241634E-17	6.736726E-18
5.050000E+03	9.230672E-17	6.871899E-18
5.060000E+03	9.220667E-17	7.007175E-18
5.070000E+03	9.211592E-17	7.142335E-18
5.080000E+03	9.203423E-17	7.277181E-18
5.090000E+03	9.196043E-17	7.411459E-18
5.100000E+03	9.189431E-17	7.545009E-18
5.110000E+03	9.183666E-17	7.677765E-18
5.120000E+03	9.178541E-17	7.809442E-18
5.130000E+03	9.174233E-17	7.940084E-18
5.140000E+03	9.170446E-17	8.069343E-18
5.150000E+03	9.167359E-17	8.197287E-18
5.160000E+03	9.164868E-17	8.323749E-18
5.170000E+03	9.162967E-17	8.448653E-18
5.180000E+03	9.161649E-17	8.571929E-18
5.190000E+03	9.160816E-17	8.693427E-18
5.200000E+03	9.160463E-17	8.813089E-18
5.210000E+03	9.160496E-17	8.930770E-18
5.220000E+03	9.161098E-17	9.046606E-18
5.230000E+03	9.161988E-17	9.160278E-18
5.240000E+03	9.163261E-17	9.271835E-18
5.250000E+03	9.164916E-17	9.381241E-18
5.260000E+03	9.166954E-17	9.488464E-18
5.270000E+03	9.169192E-17	9.593279E-18
5.280000E+03	9.171725E-17	9.695752E-18
5.290000E+03	9.174462E-17	9.795757E-18
5.300000E+03	9.177408E-17	9.893269E-18
5.310000E+03	9.180472E-17	9.988162E-18
5.320000E+03	9.183752E-17	1.008051E-17
5.330000E+03	9.187066E-17	1.017010E-17
5.340000E+03	9.190419E-17	1.025690E-17
5.350000E+03	9.193723E-17	1.034078E-17
5.360000E+03	9.197077E-17	1.042184E-17
5.370000E+03	9.200206E-17	1.049973E-17
5.380000E+03	9.203209E-17	1.057455E-17
5.390000E+03	9.205999E-17	1.064616E-17
5.400000E+03	9.208488E-17	1.071445E-17
5.410000E+03	9.210405E-17	1.077907E-17
5.420000E+03	9.211662E-17	1.083988E-17
5.430000E+03	9.212172E-17	1.089677E-17
5.440000E+03	9.211477E-17	1.094915E-17
5.450000E+03	9.209492E-17	1.099690E-17
5.460000E+03	9.205850E-17	1.103955E-17
5.470000E+03	9.200372E-17	1.107684E-17
5.480000E+03	9.193339E-17	1.110909E-17
5.490000E+03	9.184662E-17	1.113616E-17
5.500000E+03	9.174623E-17	1.115839E-17
5.510000E+03	9.163316E-17	1.117587E-17
5.520000E+03	9.151115E-17	1.118905E-17
5.530000E+03	9.137927E-17	1.119783E-17
5.540000E+03	9.123941E-17	1.120241E-17
5.550000E+03	9.109156E-17	1.120283E-17
5.560000E+03	9.093852E-17	1.119941E-17
5.570000E+03	9.077936E-17	1.119206E-17
5.580000E+03	9.061501E-17	1.118090E-17
5.590000E+03	9.044548E-17	1.116595E-17
5.600000E+03	9.027260E-17	1.114744E-17
5.610000E+03	9.009544E-17	1.112527E-17
5.620000E+03	8.991493E-17	1.109958E-17
5.630000E+03	8.973197E-17	1.107050E-17
5.640000E+03	8.954656E-17	1.103803E-17
5.650000E+03	8.935959E-17	1.100232E-17
5.660000E+03	8.917013E-17	1.096327E-17
5.670000E+03	8.897908E-17	1.092100E-17
5.680000E+03	8.878735E-17	1.087564E-17
5.690000E+03	8.859490E-17	1.082723E-17
5.700000E+03	8.840171E-17	1.077577E-17
5.710000E+03	8.820776E-17	1.072128E-17
5.720000E+03	8.801487E-17	1.066400E-17
5.730000E+03	8.782114E-17	1.060373E-17
5.740000E+03	8.762841E-17	1.054071E-17
5.750000E+03	8.743664E-17	1.047496E-17
5.760000E+03	8.724485E-17	1.040638E-17
5.770000E+03	8.705396E-17	1.033510E-17
5.780000E+03	8.686484E-17	1.026125E-17
5.790000E+03	8.667653E-17	1.018473E-17
5.800000E+03	8.648898E-17	1.010556E-17
5.810000E+03	8.630403E-17	1.002398E-17
5.820000E+03	8.611975E-17	9.939774E-18
5.830000E+03	8.593704E-17	9.853078E-18
5.840000E+03	8.575586E-17	9.763903E-18
5.850000E+03	8.557615E-17	9.672266E-18
5.860000E+03	8.539882E-17	9.578288E-18
5.870000E+03	8.522193E-17	9.481772E-18
5.880000E+03	8.504733E-17	9.382947E-18
5.890000E+03	8.487401E-17	9.281723E-18
5.900000E+03	8.470194E-17	9.178116E-18
5.910000E+03	8.453105E-17	9.072145E-18
5.920000E+03	8.436131E-17	8.963828E-18
5.930000E+03	8.419362E-17	8.853284E-18
5.940000E+03	8.402602E-17	8.740330E-18
5.950000E+03	8.385847E-17	8.624991E-18
5.960000E+03	8.369186E-17	8.507388E-18
5.970000E+03	8.352615E-17	8.387543E-18
5.980000E+03	8.335938E-17	8.265291E-18
5.990000E+03	8.319342E-17	8.140850E-18
6.000000E+03	8.302532E-17	8.013969E-18
6.010000E+03	8.285795E-17	7.884963E-18
6.020000E+03	8.268836E-17	7.753589E-18
6.030000E+03	8.251650E-17	7.619892E-18
6.040000E+03	8.234330E-17	7.484005E-18
6.050000E+03	8.216774E-17	7.345889E-18
6.060000E+03	8.198980E-17	7.205594E-18
6.070000E+03	8.180748E-17	7.063009E-18
6.080000E+03	8.162270E-17	6.918368E-18
6.090000E+03	8.143251E-17	6.771490E-18
6.100000E+03	8.123884E-17	6.622618E-18
6.110000E+03	8.104069E-17	6.471753E-18
6.120000E+03	8.083706E-17	6.318905E-18
6.130000E+03	8.062795E-17	6.164176E-18
6.140000E+03	8.041436E-17	6.007748E-18
6.150000E+03	8.019531E-17	5.849660E-18
6.160000E+03	7.997084E-17	5.690036E-18
6.170000E+03	7.974299E-17	5.529151E-18
6.180000E+03	7.950983E-17	5.367006E-18
6.190000E+03	7.927243E-17	5.203827E-18
6.200000E+03	7.903191E-17	5.039848E-18
6.210000E+03	7.878941E-17	4.875312E-18
6.220000E+03	7.854408E-17	4.710353E-18
6.230000E+03	7.829610E-17	4.545193E-18
6.240000E+03	7.804670E-17	4.380138E-18
6.250000E+03	7.779510E-17	4.215406E-18
6.260000E+03	7.754261E-17	4.051366E-18
6.270000E+03	7.728954E-17	3.888371E-18
6.280000E+03	7.703729E-17	3.726875E-18
6.290000E+03	7.678629E-17	3.567336E-18
6.300000E+03	7.653700E-17	3.410286E-18
6.310000E+03	7.629101E-17	3.256387E-18
6.320000E+03	7.604995E-17	3.106397E-18
6.330000E+03	7.581348E-17	2.961107E-18
6.340000E+03	7.558340E-17	2.821531E-18
6.350000E+03	7.536164E-17	2.688841E-18
6.360000E+03	7.514811E-17	2.564302E-18
6.370000E+03	7.494601E-17	2.449478E-18
6.380000E+03	7.475657E-17	2.346030E-18
6.390000E+03	7.458115E-17	2.255768E-18
6.400000E+03	7.442122E-17	2.180578E-18
6.410000E+03	7.428057E-17	2.122379E-18
6.420000E+03	7.415978E-17	2.082811E-18
6.430000E+03	7.406262E-17	2.063240E-18
6.440000E+03	7.399017E-17	2.064419E-18
6.450000E+03	7.394259E-17	2.086411E-18
6.460000E+03	7.392009E-17	2.128606E-18
6.470000E+03	7.392112E-17	2.189790E-18
6.480000E+03	7.394504E-17	2.268397E-18
6.490000E+03	7.398788E-17	2.362569E-18
6.500000E+03	7.405027E-17	2.470546E-18
6.510000E+03	7.413077E-17	2.590581E-18
6.520000E+03	7.422691E-17	2.721028E-18
6.530000E+03	7.433868E-17	2.860500E-18
6.540000E+03	7.446504E-17	3.007758E-18
6.550000E+03	7.460509E-17	3.161739E-18
6.560000E+03	7.475801E-17	3.321542E-18
6.570000E+03	7.492430E-17	3.486464E-18
6.580000E+03	7.510214E-17	3.655815E-18
6.590000E+03	7.529099E-17	3.829063E-18
6.600000E+03	7.549161E-17	4.005825E-18
6.610000E+03	7.570360E-17	4.185737E-18
6.620000E+03	7.592537E-17	4.368423E-18
6.630000E+03	7.615789E-17	4.553697E-18
6.640000E+03	7.639965E-17	4.741270E-18
6.650000E+03	7.665300E-17	4.931126E-18
6.660000E+03	7.691523E-17	5.122961E-18
6.670000E+03	7.718618E-17	5.316646E-18
6.680000E+03	7.746707E-17	5.512174E-18
6.690000E+03	7.775785E-17	5.709469E-18
6.700000E+03	7.805714E-17	5.908372E-18
6.710000E+03	7.836490E-17	6.108827E-18
6.720000E+03	7.868250E-17	6.310902E-18
6.730000E+03	7.900860E-17	6.514464E-18
6.740000E+03	7.934463E-17	6.719608E-18
6.750000E+03	7.968784E-17	6.926088E-18
6.760000E+03	8.004111E-17	7.134139E-18
6.770000E+03	8.040168E-17	7.343513E-18
6.780000E+03	8.077251E-17	7.554476E-18
6.790000E+03	8.115081E-17	7.766772E-18
6.800000E+03	8.153815E-17	7.980552E-18
6.810000E+03	8.193464E-17	8.195840E-18
6.820000E+03	8.233894E-17	8.412507E-18
6.830000E+03	8.275266E-17	8.630732E-18
6.840000E+03	8.317444E-17	8.850386E-18
6.850000E+03	8.360596E-17	9.071663E-18
6.860000E+03	8.404426E-17	9.294259E-18
6.870000E+03	8.449262E-17	9.518548E-18
6.880000E+03	8.494962E-17	9.744395E-18
6.890000E+03	8.541544E-17	9.971838E-18
6.900000E+03	8.588860E-17	1.020072E-17
6.910000E+03	8.637254E-17	1.043148E-17
6.920000E+03	8.686248E-17	1.066355E-17
6.930000E+03	8.736357E-17	1.089758E-17
6.940000E+03	8.787264E-17	1.113320E-17
6.950000E+03	8.838984E-17	1.137046E-17
6.960000E+03	8.891707E-17	1.160962E-17
6.970000E+03	8.945278E-17	1.185050E-17
6.980000E+03	8.999714E-17	1.209314E-17
6.990000E+03	9.055032E-17	1.233759E-17
7.000000E+03	9.111249E-17	1.258389E-17
7.010000E+03	9.168383E-17	1.283209E-17
7.020000E+03	9.226269E-17	1.308198E-17
7.030000E+03	9.285289E-17	1.333413E-17
7.040000E+03	9.344909E-17	1.358778E-17
7.050000E+03	9.405701E-17	1.384379E-17
7.060000E+03	9.467121E-17	1.410139E-17
7.070000E+03	9.529562E-17	1.436117E-17
7.080000E+03	9.592850E-17	1.462290E-17
7.090000E+03	9.657000E-17	1.488661E-17
7.100000E+03	9.722223E-17	1.515265E-17
7.110000E+03	9.788146E-17	1.542047E-17
7.120000E+03	9.854979E-17	1.569040E-17
7.130000E+03	9.922536E-17	1.596218E-17
7.140000E+03	9.991030E-17	1.623615E-17
7.150000E+03	1.006048E-16	1.651237E-17
7.160000E+03	1.013069E-16	1.679053E-17
7.170000E+03	1.020189E-16	1.707103E-17
7.180000E+03	1.027367E-16	1.735320E-17
7.190000E+03	1.034646E-16	1.763777E-17
7.200000E+03	1.042006E-16	1.792443E-17
7.210000E+03	1.049427E-16	1.821285E-17
7.220000E+03	1.056932E-16	1.850341E-17
7.230000E+03	1.064522E-16	1.879615E-17
7.240000E+03	1.072175E-16	1.909072E-17
7.250000E+03	1.079893E-16	1.938712E-17
7.260000E+03	1.087675E-16	1.968538E-17
7.270000E+03	1.095524E-16	1.998550E-17
7.280000E+03	1.103438E-16	2.028752E-17
7.290000E+03	1.111374E-16	2.059058E-17
7.300000E+03	1.119376E-16	2.089554E-17
7.310000E+03	1.127423E-16	2.120197E-17
7.320000E+03	1.135489E-16	2.150941E-17
7.330000E+03	1.143599E-16	2.181830E-17
7.340000E+03	1.151705E-16	2.212771E-17
7.350000E+03	1.159804E-16	2.243758E-17
7.360000E+03	1.167897E-16	2.274788E-17
7.370000E+03	1.175956E-16	2.305807E-17
7.380000E+03	1.184005E-16	2.336856E-17
7.390000E+03	1.191966E-16	2.367780E-17
7.400000E+03	1.199888E-16	2.398670E-17
7.410000E+03	1.207717E-16	2.429414E-17
7.420000E+03	1.215475E-16	2.460053E-17
7.430000E+03	1.223133E-16	2.490523E-17
7.440000E+03	1.230688E-16	2.520812E-17
7.450000E+03	1.238163E-16	2.550962E-17
7.460000E+03	1.245527E-16	2.580906E-17
7.470000E+03	1.252859E-16	2.610801E-17
7.480000E+03	1.260101E-16	2.640526E-17
7.490000E+03	1.267305E-16	2.670185E-17
7.500000E+03	1.274443E-16	2.699715E-17
7.510000E+03	1.281595E-16	2.729283E-17
7.520000E+03	1.288733E-16	2.758829E-17
7.530000E+03	1.295855E-16	2.788349E-17
7.540000E+03	1.302990E-16	2.817900E-17
7.550000E+03	1.310136E-16	2.847481E-17
7.560000E+03	1.317351E-16	2.877218E-17
7.570000E+03	1.324577E-16	2.906984E-17
7.580000E+03	1.331845E-16	2.936843E-17
7.590000E+03	1.339183E-16	2.966864E-17
7.600000E+03	1.346563E-16	2.996981E-17
7.610000E+03	1.354015E-16	3.027265E-17
7.620000E+03	1.361510E-16	3.057650E-17
7.630000E+03	1.369110E-16	3.088277E-17
7.640000E+03	1.376755E-16	3.119010E-17
7.650000E+03	1.384507E-16	3.149994E-17
7.660000E+03	1.392305E-16	3.181091E-17
7.670000E+03	1.400214E-16	3.212449E-17
7.680000E+03	1.408170E-16	3.243925E-17
7.690000E+03	1.416240E-16	3.275673E-17
7.700000E+03	1.424392E-16	3.307622E-17
7.710000E+03	1.432628E-16	3.339777E-17
7.720000E+03	1.440948E-16	3.372141E-17
7.730000E+03	1.449355E-16	3.404721E-17
7.740000E+03	1.457850E-16	3.437520E-17
7.750000E+03	1.466398E-16	3.470461E-17
7.760000E+03	1.475071E-16	3.503711E-17
