#wls	flux	fluxerr
1.600000E+03	3.365542E-17	1.416612E-17
1.640000E+03	3.390006E-17	1.417789E-17
1.680000E+03	3.415411E-17	1.418947E-17
1.720000E+03	3.442285E-17	1.420282E-17
1.760000E+03	3.471688E-17	1.422205E-17
1.800000E+03	3.503080E-17	1.424458E-17
1.840000E+03	3.537523E-17	1.427439E-17
1.880000E+03	3.575010E-17	1.431101E-17
1.920000E+03	3.616067E-17	1.435606E-17
1.960000E+03	3.661222E-17	1.441110E-17
2.000000E+03	3.711536E-17	1.447967E-17
2.040000E+03	3.767535E-17	1.456304E-17
2.080000E+03	3.830279E-17	1.466443E-17
2.120000E+03	3.900824E-17	1.478688E-17
2.160000E+03	3.979689E-17	1.493115E-17
2.200000E+03	4.067385E-17	1.509788E-17
2.240000E+03	4.164419E-17	1.528756E-17
2.280000E+03	4.271833E-17	1.550243E-17
2.320000E+03	4.389583E-17	1.574065E-17
2.360000E+03	4.518158E-17	1.600219E-17
2.400000E+03	4.657504E-17	1.628495E-17
2.440000E+03	4.807556E-17	1.658675E-17
2.480000E+03	4.968782E-17	1.690715E-17
2.520000E+03	5.141637E-17	1.724552E-17
2.560000E+03	5.324960E-17	1.759571E-17
2.600000E+03	5.519727E-17	1.795870E-17
2.640000E+03	5.725830E-17	1.833173E-17
2.680000E+03	5.943150E-17	1.871195E-17
2.720000E+03	6.173158E-17	1.910141E-17
2.760000E+03	6.414641E-17	1.949358E-17
2.800000E+03	6.669039E-17	1.989008E-17
2.840000E+03	6.935641E-17	2.028585E-17
2.880000E+03	7.213724E-17	2.067589E-17
2.920000E+03	7.503080E-17	2.105678E-17
2.960000E+03	7.804009E-17	2.142650E-17
3.000000E+03	8.117308E-17	2.178427E-17
3.010000E+03	8.197598E-17	2.187157E-17
3.020000E+03	8.278771E-17	2.195817E-17
3.030000E+03	8.361346E-17	2.204539E-17
3.040000E+03	8.444792E-17	2.213175E-17
3.050000E+03	8.529103E-17	2.221719E-17
3.060000E+03	8.614275E-17	2.230165E-17
3.070000E+03	8.700825E-17	2.238639E-17
3.080000E+03	8.788747E-17	2.247133E-17
3.090000E+03	8.877510E-17	2.255505E-17
3.100000E+03	8.967631E-17	2.263878E-17
3.110000E+03	9.059103E-17	2.272245E-17
3.120000E+03	9.151917E-17	2.280595E-17
3.130000E+03	9.246067E-17	2.288918E-17
3.140000E+03	9.342066E-17	2.297333E-17
3.150000E+03	9.439383E-17	2.305701E-17
3.160000E+03	9.538009E-17	2.314011E-17
3.170000E+03	9.638456E-17	2.322380E-17
3.180000E+03	9.740714E-17	2.330795E-17
3.190000E+03	9.845293E-17	2.339366E-17
3.200000E+03	9.951140E-17	2.347834E-17
3.210000E+03	1.005928E-16	2.356431E-17
3.220000E+03	1.016919E-16	2.365022E-17
3.230000E+03	1.028138E-16	2.373713E-17
3.240000E+03	1.039582E-16	2.382489E-17
3.250000E+03	1.051250E-16	2.391335E-17
3.260000E+03	1.063193E-16	2.400351E-17
3.270000E+03	1.075358E-16	2.409404E-17
3.280000E+03	1.087794E-16	2.418592E-17
3.290000E+03	1.100499E-16	2.427896E-17
3.300000E+03	1.113524E-16	2.437412E-17
3.310000E+03	1.126815E-16	2.447006E-17
3.320000E+03	1.140422E-16	2.456770E-17
3.330000E+03	1.154341E-16	2.466682E-17
3.340000E+03	1.168624E-16	2.476830E-17
3.350000E+03	1.183215E-16	2.487082E-17
3.360000E+03	1.198214E-16	2.497629E-17
3.370000E+03	1.213569E-16	2.508339E-17
3.380000E+03	1.229327E-16	2.519291E-17
3.390000E+03	1.245485E-16	2.530459E-17
3.400000E+03	1.262092E-16	2.541918E-17
3.410000E+03	1.279144E-16	2.553637E-17
3.420000E+03	1.296638E-16	2.565586E-17
3.430000E+03	1.314620E-16	2.577835E-17
3.440000E+03	1.333139E-16	2.590449E-17
3.450000E+03	1.352138E-16	2.603294E-17
3.460000E+03	1.371715E-16	2.616531E-17
3.470000E+03	1.391816E-16	2.630025E-17
3.480000E+03	1.412535E-16	2.643930E-17
3.490000E+03	1.433920E-16	2.658297E-17
3.500000E+03	1.455862E-16	2.672898E-17
3.510000E+03	1.478509E-16	2.687967E-17
3.520000E+03	1.501803E-16	2.703368E-17
3.530000E+03	1.525788E-16	2.719145E-17
3.540000E+03	1.550408E-16	2.735164E-17
3.550000E+03	1.575756E-16	2.751557E-17
3.560000E+03	1.601675E-16	2.768014E-17
3.570000E+03	1.628158E-16	2.784497E-17
3.580000E+03	1.655248E-16	2.801051E-17
3.590000E+03	1.682787E-16	2.817383E-17
3.600000E+03	1.710818E-16	2.833545E-17
3.610000E+03	1.739235E-16	2.849340E-17
3.620000E+03	1.768079E-16	2.864820E-17
3.630000E+03	1.797243E-16	2.879796E-17
3.640000E+03	1.826671E-16	2.894167E-17
3.650000E+03	1.856355E-16	2.907913E-17
3.660000E+03	1.886287E-16	2.921016E-17
3.670000E+03	1.916361E-16	2.933307E-17
3.680000E+03	1.946568E-16	2.944775E-17
3.690000E+03	1.976852E-16	2.955336E-17
3.700000E+03	2.007204E-16	2.964985E-17
3.710000E+03	2.037569E-16	2.973644E-17
3.720000E+03	2.067937E-16	2.981312E-17
3.730000E+03	2.098300E-16	2.987989E-17
3.740000E+03	2.128552E-16	2.993538E-17
3.750000E+03	2.158686E-16	2.997968E-17
3.760000E+03	2.188692E-16	3.001286E-17
3.770000E+03	2.218611E-16	3.003567E-17
3.780000E+03	2.248289E-16	3.004627E-17
3.790000E+03	2.277766E-16	3.004547E-17
3.800000E+03	2.306984E-16	3.003280E-17
3.810000E+03	2.335983E-16	3.000907E-17
3.820000E+03	2.364658E-16	2.997327E-17
3.830000E+03	2.393049E-16	2.992624E-17
3.840000E+03	2.421099E-16	2.986763E-17
3.850000E+03	2.448751E-16	2.979715E-17
3.860000E+03	2.476044E-16	2.971567E-17
3.870000E+03	2.502922E-16	2.962295E-17
3.880000E+03	2.529330E-16	2.951877E-17
3.890000E+03	2.555306E-16	2.940406E-17
3.900000E+03	2.580794E-16	2.927865E-17
3.910000E+03	2.605741E-16	2.914242E-17
3.920000E+03	2.630184E-16	2.899632E-17
3.930000E+03	2.654069E-16	2.884025E-17
3.940000E+03	2.677344E-16	2.867420E-17
3.950000E+03	2.700046E-16	2.849913E-17
3.960000E+03	2.722124E-16	2.831501E-17
3.970000E+03	2.743571E-16	2.812236E-17
3.980000E+03	2.764336E-16	2.792121E-17
3.990000E+03	2.784414E-16	2.771209E-17
4.000000E+03	2.803802E-16	2.749550E-17
4.010000E+03	2.822494E-16	2.727198E-17
4.020000E+03	2.840401E-16	2.704118E-17
4.030000E+03	2.857608E-16	2.680448E-17
4.040000E+03	2.874026E-16	2.656156E-17
4.050000E+03	2.889655E-16	2.631295E-17
4.060000E+03	2.904498E-16	2.605915E-17
4.070000E+03	2.918557E-16	2.580065E-17
4.080000E+03	2.931791E-16	2.553755E-17
4.090000E+03	2.944207E-16	2.527033E-17
4.100000E+03	2.955810E-16	2.499944E-17
4.110000E+03	2.966524E-16	2.472459E-17
4.120000E+03	2.976442E-16	2.444691E-17
4.130000E+03	2.985532E-16	2.416645E-17
4.140000E+03	2.993765E-16	2.388323E-17
4.150000E+03	3.001154E-16	2.359762E-17
4.160000E+03	3.007672E-16	2.330962E-17
4.170000E+03	3.013376E-16	2.301987E-17
4.180000E+03	3.018285E-16	2.272862E-17
4.190000E+03	3.022334E-16	2.243552E-17
4.200000E+03	3.025585E-16	2.214111E-17
4.210000E+03	3.028019E-16	2.184530E-17
4.220000E+03	3.029696E-16	2.154854E-17
4.230000E+03	3.030563E-16	2.125043E-17
4.240000E+03	3.030720E-16	2.095165E-17
4.250000E+03	3.030115E-16	2.065175E-17
4.260000E+03	3.028852E-16	2.035135E-17
4.270000E+03	3.026878E-16	2.004997E-17
4.280000E+03	3.024258E-16	1.974791E-17
4.290000E+03	3.021058E-16	1.944541E-17
4.300000E+03	3.017267E-16	1.914222E-17
4.310000E+03	3.012985E-16	1.883877E-17
4.320000E+03	3.008165E-16	1.853454E-17
4.330000E+03	3.002982E-16	1.823037E-17
4.340000E+03	2.997387E-16	1.792569E-17
4.350000E+03	2.991478E-16	1.762083E-17
4.360000E+03	2.985353E-16	1.731607E-17
4.370000E+03	2.979070E-16	1.701144E-17
4.380000E+03	2.972688E-16	1.670695E-17
4.390000E+03	2.966298E-16	1.640280E-17
4.400000E+03	2.960025E-16	1.609933E-17
4.410000E+03	2.953888E-16	1.579628E-17
4.420000E+03	2.947973E-16	1.549375E-17
4.430000E+03	2.942297E-16	1.519146E-17
4.440000E+03	2.936873E-16	1.488913E-17
4.450000E+03	2.931719E-16	1.458651E-17
4.460000E+03	2.926849E-16	1.428334E-17
4.470000E+03	2.922278E-16	1.397937E-17
4.480000E+03	2.917988E-16	1.367422E-17
4.490000E+03	2.913995E-16	1.336769E-17
4.500000E+03	2.910280E-16	1.305943E-17
4.510000E+03	2.906892E-16	1.274944E-17
4.520000E+03	2.903815E-16	1.243742E-17
4.530000E+03	2.900997E-16	1.212298E-17
4.540000E+03	2.898488E-16	1.180619E-17
4.550000E+03	2.896272E-16	1.148686E-17
4.560000E+03	2.894332E-16	1.116485E-17
4.570000E+03	2.892652E-16	1.084008E-17
4.580000E+03	2.891250E-16	1.051264E-17
4.590000E+03	2.890079E-16	1.018243E-17
4.600000E+03	2.889187E-16	9.849762E-18
4.610000E+03	2.888497E-16	9.514593E-18
4.620000E+03	2.888059E-16	9.177389E-18
4.630000E+03	2.887827E-16	8.838401E-18
4.640000E+03	2.887790E-16	8.498107E-18
4.650000E+03	2.887934E-16	8.157130E-18
4.660000E+03	2.888280E-16	7.816338E-18
4.670000E+03	2.888816E-16	7.476704E-18
4.680000E+03	2.889531E-16	7.139436E-18
4.690000E+03	2.890385E-16	6.805950E-18
4.700000E+03	2.891460E-16	6.478290E-18
4.710000E+03	2.892716E-16	6.158595E-18
4.720000E+03	2.894204E-16	5.849672E-18
4.730000E+03	2.895917E-16	5.554723E-18
4.740000E+03	2.897903E-16	5.277653E-18
4.750000E+03	2.900245E-16	5.023011E-18
4.760000E+03	2.902961E-16	4.795777E-18
4.770000E+03	2.906128E-16	4.601414E-18
4.780000E+03	2.909821E-16	4.445428E-18
4.790000E+03	2.914052E-16	4.332757E-18
4.800000E+03	2.918894E-16	4.267302E-18
4.810000E+03	2.924354E-16	4.251083E-18
4.820000E+03	2.930506E-16	4.283986E-18
4.830000E+03	2.937295E-16	4.363496E-18
4.840000E+03	2.944823E-16	4.485524E-18
4.850000E+03	2.953066E-16	4.644678E-18
4.860000E+03	2.962027E-16	4.835174E-18
4.870000E+03	2.971737E-16	5.051381E-18
4.880000E+03	2.982163E-16	5.288020E-18
4.890000E+03	2.993332E-16	5.540543E-18
4.900000E+03	3.005238E-16	5.805023E-18
4.910000E+03	3.017872E-16	6.078180E-18
4.920000E+03	3.031193E-16	6.357244E-18
4.930000E+03	3.045222E-16	6.640072E-18
4.940000E+03	3.059944E-16	6.924879E-18
4.950000E+03	3.075347E-16	7.210228E-18
4.960000E+03	3.091416E-16	7.494963E-18
4.970000E+03	3.108102E-16	7.778085E-18
4.980000E+03	3.125451E-16	8.059014E-18
4.990000E+03	3.143415E-16	8.337091E-18
5.000000E+03	3.161942E-16	8.611771E-18
5.010000E+03	3.181077E-16	8.882867E-18
5.020000E+03	3.200769E-16	9.150016E-18
5.030000E+03	3.220965E-16	9.412911E-18
5.040000E+03	3.241711E-16	9.671585E-18
5.050000E+03	3.262955E-16	9.925830E-18
5.060000E+03	3.284712E-16	1.017568E-17
5.070000E+03	3.306898E-16	1.042087E-17
5.080000E+03	3.329529E-16	1.066149E-17
5.090000E+03	3.352622E-16	1.089766E-17
5.100000E+03	3.376130E-16	1.112927E-17
5.110000E+03	3.400038E-16	1.135637E-17
5.120000E+03	3.424368E-16	1.157911E-17
5.130000E+03	3.449041E-16	1.179730E-17
5.140000E+03	3.474115E-16	1.201125E-17
5.150000E+03	3.499545E-16	1.222088E-17
5.160000E+03	3.525322E-16	1.242626E-17
5.170000E+03	3.551438E-16	1.262744E-17
5.180000E+03	3.577883E-16	1.282448E-17
5.190000E+03	3.604649E-16	1.301743E-17
5.200000E+03	3.631762E-16	1.320645E-17
5.210000E+03	3.659140E-16	1.339133E-17
5.220000E+03	3.686808E-16	1.357222E-17
5.230000E+03	3.714754E-16	1.374913E-17
5.240000E+03	3.742962E-16	1.392207E-17
5.250000E+03	3.771380E-16	1.409089E-17
5.260000E+03	3.800027E-16	1.425573E-17
5.270000E+03	3.828884E-16	1.441656E-17
5.280000E+03	3.857890E-16	1.457320E-17
5.290000E+03	3.887019E-16	1.472562E-17
5.300000E+03	3.916284E-16	1.487391E-17
5.310000E+03	3.945574E-16	1.501772E-17
5.320000E+03	3.974937E-16	1.515730E-17
5.330000E+03	4.004256E-16	1.529228E-17
5.340000E+03	4.033534E-16	1.542274E-17
5.350000E+03	4.062728E-16	1.554863E-17
5.360000E+03	4.091756E-16	1.566973E-17
5.370000E+03	4.120569E-16	1.578595E-17
5.380000E+03	4.149120E-16	1.589724E-17
5.390000E+03	4.177400E-16	1.600369E-17
5.400000E+03	4.205273E-16	1.610492E-17
5.410000E+03	4.232727E-16	1.620101E-17
5.420000E+03	4.259666E-16	1.629175E-17
5.430000E+03	4.286076E-16	1.637723E-17
5.440000E+03	4.311860E-16	1.645724E-17
5.450000E+03	4.336962E-16	1.653171E-17
5.460000E+03	4.361328E-16	1.660060E-17
5.470000E+03	4.384905E-16	1.666385E-17
5.480000E+03	4.407641E-16	1.672142E-17
5.490000E+03	4.429445E-16	1.677311E-17
5.500000E+03	4.450357E-16	1.681922E-17
5.510000E+03	4.470246E-16	1.685940E-17
5.520000E+03	4.489072E-16	1.689366E-17
5.530000E+03	4.506891E-16	1.692232E-17
5.540000E+03	4.523626E-16	1.694526E-17
5.550000E+03	4.539206E-16	1.696234E-17
5.560000E+03	4.553703E-16	1.697395E-17
5.570000E+03	4.567102E-16	1.698018E-17
5.580000E+03	4.579302E-16	1.698077E-17
5.590000E+03	4.590441E-16	1.697636E-17
5.600000E+03	4.600433E-16	1.696674E-17
5.610000E+03	4.609336E-16	1.695222E-17
5.620000E+03	4.617173E-16	1.693300E-17
5.630000E+03	4.623972E-16	1.690926E-17
5.640000E+03	4.629772E-16	1.688122E-17
5.650000E+03	4.634666E-16	1.684929E-17
5.660000E+03	4.638709E-16	1.681373E-17
5.670000E+03	4.641915E-16	1.677464E-17
5.680000E+03	4.644400E-16	1.673248E-17
5.690000E+03	4.646289E-16	1.668770E-17
5.700000E+03	4.647566E-16	1.664028E-17
5.710000E+03	4.648364E-16	1.659070E-17
5.720000E+03	4.648819E-16	1.653942E-17
5.730000E+03	4.648972E-16	1.648658E-17
5.740000E+03	4.648961E-16	1.643261E-17
5.750000E+03	4.648872E-16	1.637777E-17
5.760000E+03	4.648743E-16	1.632213E-17
5.770000E+03	4.648703E-16	1.626604E-17
5.780000E+03	4.648826E-16	1.620965E-17
5.790000E+03	4.649179E-16	1.615307E-17
5.800000E+03	4.649821E-16	1.609634E-17
5.810000E+03	4.650801E-16	1.603945E-17
5.820000E+03	4.652157E-16	1.598237E-17
5.830000E+03	4.653916E-16	1.592496E-17
5.840000E+03	4.656141E-16	1.586724E-17
5.850000E+03	4.658789E-16	1.580881E-17
5.860000E+03	4.661849E-16	1.574943E-17
5.870000E+03	4.665351E-16	1.568896E-17
5.880000E+03	4.669214E-16	1.562690E-17
5.890000E+03	4.673446E-16	1.556306E-17
5.900000E+03	4.677948E-16	1.549690E-17
5.910000E+03	4.682662E-16	1.542805E-17
5.920000E+03	4.687572E-16	1.535627E-17
5.930000E+03	4.692560E-16	1.528102E-17
5.940000E+03	4.697554E-16	1.520194E-17
5.950000E+03	4.702527E-16	1.511881E-17
5.960000E+03	4.707356E-16	1.503113E-17
5.970000E+03	4.711967E-16	1.493857E-17
5.980000E+03	4.716338E-16	1.484100E-17
5.990000E+03	4.720303E-16	1.473781E-17
6.000000E+03	4.723850E-16	1.462892E-17
6.010000E+03	4.726923E-16	1.451409E-17
6.020000E+03	4.729473E-16	1.439313E-17
6.030000E+03	4.731409E-16	1.426570E-17
6.040000E+03	4.732700E-16	1.413166E-17
6.050000E+03	4.733375E-16	1.399101E-17
6.060000E+03	4.733317E-16	1.384335E-17
6.070000E+03	4.732629E-16	1.368887E-17
6.080000E+03	4.731213E-16	1.352718E-17
6.090000E+03	4.729087E-16	1.335821E-17
6.100000E+03	4.726328E-16	1.318202E-17
6.110000E+03	4.722920E-16	1.299838E-17
6.120000E+03	4.718958E-16	1.280736E-17
6.130000E+03	4.714438E-16	1.260872E-17
6.140000E+03	4.709417E-16	1.240237E-17
6.150000E+03	4.704058E-16	1.218850E-17
6.160000E+03	4.698424E-16	1.196699E-17
6.170000E+03	4.692634E-16	1.173784E-17
6.180000E+03	4.686754E-16	1.150094E-17
6.190000E+03	4.680848E-16	1.125616E-17
6.200000E+03	4.675032E-16	1.100349E-17
6.210000E+03	4.669316E-16	1.074269E-17
6.220000E+03	4.663809E-16	1.047376E-17
6.230000E+03	4.658461E-16	1.019638E-17
6.240000E+03	4.653426E-16	9.910713E-18
6.250000E+03	4.648644E-16	9.616525E-18
6.260000E+03	4.644262E-16	9.314082E-18
6.270000E+03	4.640318E-16	9.003502E-18
6.280000E+03	4.636739E-16	8.684821E-18
6.290000E+03	4.633715E-16	8.358735E-18
6.300000E+03	4.631115E-16	8.025546E-18
6.310000E+03	4.629129E-16	7.686401E-18
6.320000E+03	4.627675E-16	7.342325E-18
6.330000E+03	4.626836E-16	6.995070E-18
6.340000E+03	4.626642E-16	6.646881E-18
6.350000E+03	4.627070E-16	6.300679E-18
6.360000E+03	4.628211E-16	5.960488E-18
6.370000E+03	4.629991E-16	5.631302E-18
6.380000E+03	4.632507E-16	5.319739E-18
6.390000E+03	4.635746E-16	5.033878E-18
6.400000E+03	4.639698E-16	4.783391E-18
6.410000E+03	4.644404E-16	4.579226E-18
6.420000E+03	4.649796E-16	4.432456E-18
6.430000E+03	4.655848E-16	4.352785E-18
6.440000E+03	4.662584E-16	4.346478E-18
6.450000E+03	4.669838E-16	4.414524E-18
6.460000E+03	4.677713E-16	4.552751E-18
6.470000E+03	4.686068E-16	4.752546E-18
6.480000E+03	4.694920E-16	5.003235E-18
6.490000E+03	4.704278E-16	5.293783E-18
6.500000E+03	4.714140E-16	5.614032E-18
6.510000E+03	4.724502E-16	5.955274E-18
6.520000E+03	4.735352E-16	6.310378E-18
6.530000E+03	4.746671E-16	6.673671E-18
6.540000E+03	4.758378E-16	7.040635E-18
6.550000E+03	4.770443E-16	7.407846E-18
6.560000E+03	4.782773E-16	7.772592E-18
6.570000E+03	4.795390E-16	8.132989E-18
6.580000E+03	4.808127E-16	8.487349E-18
6.590000E+03	4.820938E-16	8.834562E-18
6.600000E+03	4.833771E-16	9.173825E-18
6.610000E+03	4.846449E-16	9.504333E-18
6.620000E+03	4.858914E-16	9.825688E-18
6.630000E+03	4.871045E-16	1.013751E-17
6.640000E+03	4.882783E-16	1.043967E-17
6.650000E+03	4.893944E-16	1.073184E-17
6.660000E+03	4.904405E-16	1.101390E-17
6.670000E+03	4.914180E-16	1.128608E-17
6.680000E+03	4.923023E-16	1.154807E-17
6.690000E+03	4.930893E-16	1.180001E-17
6.700000E+03	4.937756E-16	1.204211E-17
6.710000E+03	4.943456E-16	1.227428E-17
6.720000E+03	4.947910E-16	1.249660E-17
6.730000E+03	4.951049E-16	1.270917E-17
6.740000E+03	4.952887E-16	1.291227E-17
6.750000E+03	4.953381E-16	1.310606E-17
6.760000E+03	4.952434E-16	1.329050E-17
6.770000E+03	4.950032E-16	1.346578E-17
6.780000E+03	4.946314E-16	1.363245E-17
6.790000E+03	4.941155E-16	1.379038E-17
6.800000E+03	4.934583E-16	1.393979E-17
6.810000E+03	4.926775E-16	1.408135E-17
6.820000E+03	4.917644E-16	1.421497E-17
6.830000E+03	4.907320E-16	1.434114E-17
6.840000E+03	4.895803E-16	1.445999E-17
6.850000E+03	4.883312E-16	1.457230E-17
6.860000E+03	4.869789E-16	1.467799E-17
6.870000E+03	4.855395E-16	1.477766E-17
6.880000E+03	4.840223E-16	1.487167E-17
6.890000E+03	4.824297E-16	1.496018E-17
6.900000E+03	4.807786E-16	1.504379E-17
6.910000E+03	4.790787E-16	1.512285E-17
6.920000E+03	4.773325E-16	1.519749E-17
6.930000E+03	4.755566E-16	1.526830E-17
6.940000E+03	4.737602E-16	1.533561E-17
6.950000E+03	4.719453E-16	1.539950E-17
6.960000E+03	4.701273E-16	1.546051E-17
6.970000E+03	4.683144E-16	1.551894E-17
6.980000E+03	4.665071E-16	1.557482E-17
6.990000E+03	4.647124E-16	1.562842E-17
7.000000E+03	4.629439E-16	1.568020E-17
7.010000E+03	4.612074E-16	1.573041E-17
7.020000E+03	4.594939E-16	1.577877E-17
7.030000E+03	4.578222E-16	1.582596E-17
7.040000E+03	4.561961E-16	1.587217E-17
7.050000E+03	4.546049E-16	1.591708E-17
7.060000E+03	4.530654E-16	1.596133E-17
7.070000E+03	4.515726E-16	1.600482E-17
7.080000E+03	4.501280E-16	1.604768E-17
7.090000E+03	4.487399E-16	1.609027E-17
7.100000E+03	4.473947E-16	1.613219E-17
7.110000E+03	4.461069E-16	1.617402E-17
7.120000E+03	4.448622E-16	1.621533E-17
7.130000E+03	4.436745E-16	1.625669E-17
7.140000E+03	4.425291E-16	1.629765E-17
7.150000E+03	4.414325E-16	1.633849E-17
7.160000E+03	4.403910E-16	1.637952E-17
7.170000E+03	4.393894E-16	1.642025E-17
7.180000E+03	4.384340E-16	1.646096E-17
7.190000E+03	4.375239E-16	1.650170E-17
7.200000E+03	4.366582E-16	1.654248E-17
7.210000E+03	4.358359E-16	1.658335E-17
7.220000E+03	4.350489E-16	1.662407E-17
7.230000E+03	4.343107E-16	1.666524E-17
7.240000E+03	4.336058E-16	1.670636E-17
7.250000E+03	4.329406E-16	1.674776E-17
7.260000E+03	4.323141E-16	1.678951E-17
7.270000E+03	4.317251E-16	1.683169E-17
7.280000E+03	4.311729E-16	1.687436E-17
7.290000E+03	4.306561E-16	1.691761E-17
7.300000E+03	4.301665E-16	1.696124E-17
7.310000E+03	4.297174E-16	1.700590E-17
7.320000E+03	4.293004E-16	1.705138E-17
7.330000E+03	4.289070E-16	1.709746E-17
7.340000E+03	4.285504E-16	1.714480E-17
7.350000E+03	4.282222E-16	1.719317E-17
7.360000E+03	4.279210E-16	1.724260E-17
7.370000E+03	4.276456E-16	1.729314E-17
7.380000E+03	4.273947E-16	1.734481E-17
7.390000E+03	4.271747E-16	1.739791E-17
7.400000E+03	4.269768E-16	1.745215E-17
7.410000E+03	4.268150E-16	1.750810E-17
7.420000E+03	4.266736E-16	1.756514E-17
7.430000E+03	4.265665E-16	1.762382E-17
7.440000E+03	4.264934E-16	1.768410E-17
7.450000E+03	4.264537E-16	1.774592E-17
7.460000E+03	4.264319E-16	1.780857E-17
7.470000E+03	4.264278E-16	1.787197E-17
7.480000E+03	4.264490E-16	1.793632E-17
7.490000E+03	4.264803E-16	1.800090E-17
7.500000E+03	4.265372E-16	1.806623E-17
7.510000E+03	4.266048E-16	1.813158E-17
7.520000E+03	4.266836E-16	1.819682E-17
7.530000E+03	4.267742E-16	1.826185E-17
7.540000E+03	4.268850E-16	1.832690E-17
7.550000E+03	4.270092E-16	1.839156E-17
7.560000E+03	4.271474E-16	1.845572E-17
7.570000E+03	4.273008E-16	1.851933E-17
7.580000E+03	4.274702E-16	1.858230E-17
7.590000E+03	4.276564E-16	1.864460E-17
7.600000E+03	4.278527E-16	1.870583E-17
7.610000E+03	4.280676E-16	1.876631E-17
7.620000E+03	4.283020E-16	1.882602E-17
7.630000E+03	4.285567E-16	1.888497E-17
7.640000E+03	4.288323E-16	1.894317E-17
7.650000E+03	4.291215E-16	1.900028E-17
7.660000E+03	4.294246E-16	1.905632E-17
7.670000E+03	4.297580E-16	1.911206E-17
7.680000E+03	4.301059E-16	1.916682E-17
7.690000E+03	4.304683E-16	1.922064E-17
7.700000E+03	4.308532E-16	1.927394E-17
7.710000E+03	4.312603E-16	1.932676E-17
7.720000E+03	4.316810E-16	1.937880E-17
7.730000E+03	4.321145E-16	1.943009E-17
7.740000E+03	4.325682E-16	1.948104E-17
7.750000E+03	4.330409E-16	1.953170E-17
7.760000E+03	4.335229E-16	1.958172E-17
