#wls	flux	fluxerr
1.600000E+03	1.465208E-17	6.069826E-18
1.640000E+03	1.468709E-17	6.040730E-18
1.680000E+03	1.472075E-17	6.009511E-18
1.720000E+03	1.476153E-17	5.979579E-18
1.760000E+03	1.480361E-17	5.948482E-18
1.800000E+03	1.485263E-17	5.918416E-18
1.840000E+03	1.490273E-17	5.886941E-18
1.880000E+03	1.496245E-17	5.857350E-18
1.920000E+03	1.502588E-17	5.827198E-18
1.960000E+03	1.509578E-17	5.797453E-18
2.000000E+03	1.517200E-17	5.767930E-18
2.040000E+03	1.525436E-17	5.738439E-18
2.080000E+03	1.534561E-17	5.709866E-18
2.120000E+03	1.544555E-17	5.681970E-18
2.160000E+03	1.555394E-17	5.654498E-18
2.200000E+03	1.567055E-17	5.627186E-18
2.240000E+03	1.579803E-17	5.600797E-18
2.280000E+03	1.593315E-17	5.573983E-18
2.320000E+03	1.607849E-17	5.547457E-18
2.360000E+03	1.623662E-17	5.521868E-18
2.400000E+03	1.640420E-17	5.495828E-18
2.440000E+03	1.658078E-17	5.468965E-18
2.480000E+03	1.677170E-17	5.442794E-18
2.520000E+03	1.697349E-17	5.415894E-18
2.560000E+03	1.718845E-17	5.388724E-18
2.600000E+03	1.741882E-17	5.361666E-18
2.640000E+03	1.766096E-17	5.333269E-18
2.680000E+03	1.791983E-17	5.304712E-18
2.720000E+03	1.819453E-17	5.275345E-18
2.760000E+03	1.848693E-17	5.245326E-18
2.800000E+03	1.879879E-17	5.214725E-18
2.840000E+03	1.913170E-17	5.183529E-18
2.880000E+03	1.948995E-17	5.152382E-18
2.920000E+03	1.987197E-17	5.120314E-18
2.960000E+03	2.028722E-17	5.089151E-18
3.000000E+03	2.073646E-17	5.058345E-18
3.010000E+03	2.085253E-17	5.050238E-18
3.020000E+03	2.097279E-17	5.042595E-18
3.030000E+03	2.109719E-17	5.035383E-18
3.040000E+03	2.122294E-17	5.027921E-18
3.050000E+03	2.135001E-17	5.020192E-18
3.060000E+03	2.148109E-17	5.012816E-18
3.070000E+03	2.161341E-17	5.005131E-18
3.080000E+03	2.174964E-17	4.997745E-18
3.090000E+03	2.188972E-17	4.990623E-18
3.100000E+03	2.203361E-17	4.983733E-18
3.110000E+03	2.217856E-17	4.976439E-18
3.120000E+03	2.232721E-17	4.969323E-18
3.130000E+03	2.247950E-17	4.962354E-18
3.140000E+03	2.263539E-17	4.955500E-18
3.150000E+03	2.279480E-17	4.948728E-18
3.160000E+03	2.295768E-17	4.942008E-18
3.170000E+03	2.312663E-17	4.935874E-18
3.180000E+03	2.329627E-17	4.929159E-18
3.190000E+03	2.347183E-17	4.922956E-18
3.200000E+03	2.365060E-17	4.916670E-18
3.210000E+03	2.383252E-17	4.910273E-18
3.220000E+03	2.402014E-17	4.904269E-18
3.230000E+03	2.421337E-17	4.898611E-18
3.240000E+03	2.440953E-17	4.892732E-18
3.250000E+03	2.461113E-17	4.887118E-18
3.260000E+03	2.481811E-17	4.881726E-18
3.270000E+03	2.502777E-17	4.876008E-18
3.280000E+03	2.524520E-17	4.870930E-18
3.290000E+03	2.546516E-17	4.865453E-18
3.300000E+03	2.569269E-17	4.860517E-18
3.310000E+03	2.592511E-17	4.855586E-18
3.320000E+03	2.616235E-17	4.850620E-18
3.330000E+03	2.640682E-17	4.846043E-18
3.340000E+03	2.665590E-17	4.841339E-18
3.350000E+03	2.691198E-17	4.836923E-18
3.360000E+03	2.717246E-17	4.832293E-18
3.370000E+03	2.744222E-17	4.828292E-18
3.380000E+03	2.771613E-17	4.823984E-18
3.390000E+03	2.799905E-17	4.820188E-18
3.400000E+03	2.828590E-17	4.815995E-18
3.410000E+03	2.858148E-17	4.812203E-18
3.420000E+03	2.888320E-17	4.808338E-18
3.430000E+03	2.919336E-17	4.804756E-18
3.440000E+03	2.951182E-17	4.801395E-18
3.450000E+03	2.983599E-17	4.797806E-18
3.460000E+03	3.016814E-17	4.794330E-18
3.470000E+03	3.050813E-17	4.790911E-18
3.480000E+03	3.085819E-17	4.787866E-18
3.490000E+03	3.121335E-17	4.784393E-18
3.500000E+03	3.157824E-17	4.781179E-18
3.510000E+03	3.195267E-17	4.778158E-18
3.520000E+03	3.233645E-17	4.775267E-18
3.530000E+03	3.272702E-17	4.772102E-18
3.540000E+03	3.312658E-17	4.768959E-18
3.550000E+03	3.353725E-17	4.766114E-18
3.560000E+03	3.395649E-17	4.763171E-18
3.570000E+03	3.438410E-17	4.760081E-18
3.580000E+03	3.482220E-17	4.757110E-18
3.590000E+03	3.527055E-17	4.754199E-18
3.600000E+03	3.572893E-17	4.751290E-18
3.610000E+03	3.619711E-17	4.748330E-18
3.620000E+03	3.667487E-17	4.745268E-18
3.630000E+03	3.716422E-17	4.742345E-18
3.640000E+03	3.766268E-17	4.739219E-18
3.650000E+03	3.817223E-17	4.736130E-18
3.660000E+03	3.869262E-17	4.733025E-18
3.670000E+03	3.922360E-17	4.729858E-18
3.680000E+03	3.976710E-17	4.726848E-18
3.690000E+03	4.032064E-17	4.723685E-18
3.700000E+03	4.088615E-17	4.720587E-18
3.710000E+03	4.146116E-17	4.717263E-18
3.720000E+03	4.204973E-17	4.714171E-18
3.730000E+03	4.264939E-17	4.711026E-18
3.740000E+03	4.325985E-17	4.707797E-18
3.750000E+03	4.388295E-17	4.704687E-18
3.760000E+03	4.451626E-17	4.701438E-18
3.770000E+03	4.516369E-17	4.698474E-18
3.780000E+03	4.582072E-17	4.695328E-18
3.790000E+03	4.649122E-17	4.692415E-18
3.800000E+03	4.717278E-17	4.689501E-18
3.810000E+03	4.786508E-17	4.686578E-18
3.820000E+03	4.856987E-17	4.683841E-18
3.830000E+03	4.928682E-17	4.681277E-18
3.840000E+03	5.001761E-17	4.679071E-18
3.850000E+03	5.075786E-17	4.676837E-18
3.860000E+03	5.150927E-17	4.674772E-18
3.870000E+03	5.227353E-17	4.673063E-18
3.880000E+03	5.305029E-17	4.671712E-18
3.890000E+03	5.383725E-17	4.670551E-18
3.900000E+03	5.463608E-17	4.669770E-18
3.910000E+03	5.544841E-17	4.669548E-18
3.920000E+03	5.627002E-17	4.669567E-18
3.930000E+03	5.710258E-17	4.670018E-18
3.940000E+03	5.794580E-17	4.670923E-18
3.950000E+03	5.880135E-17	4.672460E-18
3.960000E+03	5.966513E-17	4.674351E-18
3.970000E+03	6.054263E-17	4.677072E-18
3.980000E+03	6.142792E-17	4.680208E-18
3.990000E+03	6.232459E-17	4.684080E-18
4.000000E+03	6.323244E-17	4.688712E-18
4.010000E+03	6.414945E-17	4.693994E-18
4.020000E+03	6.507552E-17	4.699959E-18
4.030000E+03	6.601055E-17	4.706637E-18
4.040000E+03	6.695631E-17	4.714187E-18
4.050000E+03	6.791095E-17	4.722503E-18
4.060000E+03	6.887447E-17	4.731611E-18
4.070000E+03	6.984514E-17	4.741413E-18
4.080000E+03	7.082662E-17	4.752173E-18
4.090000E+03	7.181549E-17	4.763669E-18
4.100000E+03	7.281192E-17	4.775917E-18
4.110000E+03	7.381791E-17	4.789047E-18
4.120000E+03	7.483023E-17	4.802839E-18
4.130000E+03	7.585095E-17	4.817413E-18
4.140000E+03	7.687871E-17	4.832661E-18
4.150000E+03	7.791224E-17	4.848477E-18
4.160000E+03	7.895543E-17	4.865069E-18
4.170000E+03	8.000371E-17	4.882111E-18
4.180000E+03	8.105767E-17	4.899595E-18
4.190000E+03	8.211963E-17	4.917608E-18
4.200000E+03	8.318527E-17	4.935829E-18
4.210000E+03	8.425866E-17	4.954433E-18
4.220000E+03	8.533561E-17	4.973102E-18
4.230000E+03	8.641860E-17	4.991902E-18
4.240000E+03	8.750524E-17	5.010611E-18
4.250000E+03	8.859644E-17	5.029193E-18
4.260000E+03	8.968990E-17	5.047424E-18
4.270000E+03	9.078664E-17	5.065263E-18
4.280000E+03	9.188604E-17	5.082576E-18
4.290000E+03	9.298594E-17	5.099137E-18
4.300000E+03	9.408581E-17	5.114812E-18
4.310000E+03	9.518515E-17	5.129463E-18
4.320000E+03	9.628345E-17	5.142952E-18
4.330000E+03	9.737705E-17	5.154972E-18
4.340000E+03	9.846863E-17	5.165553E-18
4.350000E+03	9.955296E-17	5.174309E-18
4.360000E+03	1.006327E-16	5.181266E-18
4.370000E+03	1.017010E-16	5.185966E-18
4.380000E+03	1.027604E-16	5.188435E-18
4.390000E+03	1.038088E-16	5.188461E-18
4.400000E+03	1.048439E-16	5.185836E-18
4.410000E+03	1.058636E-16	5.180357E-18
4.420000E+03	1.068669E-16	5.171899E-18
4.430000E+03	1.078531E-16	5.160343E-18
4.440000E+03	1.088212E-16	5.145571E-18
4.450000E+03	1.097701E-16	5.127471E-18
4.460000E+03	1.106972E-16	5.105864E-18
4.470000E+03	1.116044E-16	5.080792E-18
4.480000E+03	1.124888E-16	5.052093E-18
4.490000E+03	1.133504E-16	5.019749E-18
4.500000E+03	1.141909E-16	4.983822E-18
4.510000E+03	1.150085E-16	4.944242E-18
4.520000E+03	1.158062E-16	4.901152E-18
4.530000E+03	1.165835E-16	4.854569E-18
4.540000E+03	1.173402E-16	4.804528E-18
4.550000E+03	1.180773E-16	4.751140E-18
4.560000E+03	1.187972E-16	4.694592E-18
4.570000E+03	1.194994E-16	4.634968E-18
4.580000E+03	1.201861E-16	4.572493E-18
4.590000E+03	1.208567E-16	4.507295E-18
4.600000E+03	1.215119E-16	4.439594E-18
4.610000E+03	1.221554E-16	4.369746E-18
4.620000E+03	1.227849E-16	4.297923E-18
4.630000E+03	1.234025E-16	4.224499E-18
4.640000E+03	1.240104E-16	4.149889E-18
4.650000E+03	1.246078E-16	4.074448E-18
4.660000E+03	1.251954E-16	3.998642E-18
4.670000E+03	1.257768E-16	3.923085E-18
4.680000E+03	1.263497E-16	3.848258E-18
4.690000E+03	1.269164E-16	3.774849E-18
4.700000E+03	1.274778E-16	3.703566E-18
4.710000E+03	1.280346E-16	3.635179E-18
4.720000E+03	1.285862E-16	3.570479E-18
4.730000E+03	1.291366E-16	3.510441E-18
4.740000E+03	1.296839E-16	3.455916E-18
4.750000E+03	1.302274E-16	3.407827E-18
4.760000E+03	1.307700E-16	3.367190E-18
4.770000E+03	1.313097E-16	3.334879E-18
4.780000E+03	1.318479E-16	3.311801E-18
4.790000E+03	1.323858E-16	3.298777E-18
4.800000E+03	1.329234E-16	3.296471E-18
4.810000E+03	1.334607E-16	3.305388E-18
4.820000E+03	1.340009E-16	3.325673E-18
4.830000E+03	1.345417E-16	3.356886E-18
4.840000E+03	1.350868E-16	3.398575E-18
4.850000E+03	1.356354E-16	3.450039E-18
4.860000E+03	1.361882E-16	3.510523E-18
4.870000E+03	1.367478E-16	3.579248E-18
4.880000E+03	1.373118E-16	3.655284E-18
4.890000E+03	1.378827E-16	3.737820E-18
4.900000E+03	1.384615E-16	3.826024E-18
4.910000E+03	1.390460E-16	3.919013E-18
4.920000E+03	1.396403E-16	4.016128E-18
4.930000E+03	1.402439E-16	4.116633E-18
4.940000E+03	1.408579E-16	4.219899E-18
4.950000E+03	1.414815E-16	4.325310E-18
4.960000E+03	1.421159E-16	4.432354E-18
4.970000E+03	1.427636E-16	4.540630E-18
4.980000E+03	1.434224E-16	4.649643E-18
4.990000E+03	1.440965E-16	4.759149E-18
5.000000E+03	1.447835E-16	4.868746E-18
5.010000E+03	1.454844E-16	4.978175E-18
5.020000E+03	1.462015E-16	5.087273E-18
5.030000E+03	1.469342E-16	5.195800E-18
5.040000E+03	1.476847E-16	5.303661E-18
5.050000E+03	1.484522E-16	5.410673E-18
5.060000E+03	1.492372E-16	5.516732E-18
5.070000E+03	1.500404E-16	5.621756E-18
5.080000E+03	1.508623E-16	5.725683E-18
5.090000E+03	1.517049E-16	5.828526E-18
5.100000E+03	1.525654E-16	5.930124E-18
5.110000E+03	1.534474E-16	6.030583E-18
5.120000E+03	1.543478E-16	6.129757E-18
5.130000E+03	1.552701E-16	6.227771E-18
5.140000E+03	1.562127E-16	6.324558E-18
5.150000E+03	1.571756E-16	6.420122E-18
5.160000E+03	1.581587E-16	6.514470E-18
5.170000E+03	1.591618E-16	6.607609E-18
5.180000E+03	1.601864E-16	6.699621E-18
5.190000E+03	1.612287E-16	6.790373E-18
5.200000E+03	1.622916E-16	6.880017E-18
5.210000E+03	1.633729E-16	6.968490E-18
5.220000E+03	1.644718E-16	7.055797E-18
5.230000E+03	1.655894E-16	7.142014E-18
5.240000E+03	1.667212E-16	7.226991E-18
5.250000E+03	1.678699E-16	7.310874E-18
5.260000E+03	1.690324E-16	7.393578E-18
5.270000E+03	1.702095E-16	7.475169E-18
5.280000E+03	1.713962E-16	7.555474E-18
5.290000E+03	1.725946E-16	7.634626E-18
5.300000E+03	1.738015E-16	7.712520E-18
5.310000E+03	1.750169E-16	7.789206E-18
5.320000E+03	1.762356E-16	7.864485E-18
5.330000E+03	1.774594E-16	7.938480E-18
5.340000E+03	1.786845E-16	8.011065E-18
5.350000E+03	1.799088E-16	8.082191E-18
5.360000E+03	1.811322E-16	8.151890E-18
5.370000E+03	1.823489E-16	8.219940E-18
5.380000E+03	1.835602E-16	8.286451E-18
5.390000E+03	1.847604E-16	8.351194E-18
5.400000E+03	1.859507E-16	8.414278E-18
5.410000E+03	1.871271E-16	8.475556E-18
5.420000E+03	1.882854E-16	8.534880E-18
5.430000E+03	1.894270E-16	8.592359E-18
5.440000E+03	1.905460E-16	8.647760E-18
5.450000E+03	1.916420E-16	8.701109E-18
5.460000E+03	1.927128E-16	8.752351E-18
5.470000E+03	1.937545E-16	8.801341E-18
5.480000E+03	1.947669E-16	8.848118E-18
5.490000E+03	1.957464E-16	8.892547E-18
5.500000E+03	1.966911E-16	8.934585E-18
5.510000E+03	1.975975E-16	8.974106E-18
5.520000E+03	1.984641E-16	9.011076E-18
5.530000E+03	1.992916E-16	9.045561E-18
5.540000E+03	2.000789E-16	9.077542E-18
5.550000E+03	2.008273E-16	9.107097E-18
5.560000E+03	2.015340E-16	9.134131E-18
5.570000E+03	2.022027E-16	9.158826E-18
5.580000E+03	2.028291E-16	9.181009E-18
5.590000E+03	2.034172E-16	9.200878E-18
5.600000E+03	2.039673E-16	9.218453E-18
5.610000E+03	2.044759E-16	9.233581E-18
5.620000E+03	2.049477E-16	9.246477E-18
5.630000E+03	2.053836E-16	9.257179E-18
5.640000E+03	2.057828E-16	9.265641E-18
5.650000E+03	2.061464E-16	9.271911E-18
5.660000E+03	2.064782E-16	9.276132E-18
5.670000E+03	2.067776E-16	9.278268E-18
5.680000E+03	2.070487E-16	9.278469E-18
5.690000E+03	2.072892E-16	9.276612E-18
5.700000E+03	2.075054E-16	9.272940E-18
5.710000E+03	2.076994E-16	9.267515E-18
5.720000E+03	2.078715E-16	9.260306E-18
5.730000E+03	2.080240E-16	9.251374E-18
5.740000E+03	2.081592E-16	9.240776E-18
5.750000E+03	2.082796E-16	9.228568E-18
5.760000E+03	2.083875E-16	9.214799E-18
5.770000E+03	2.084872E-16	9.199609E-18
5.780000E+03	2.085771E-16	9.182858E-18
5.790000E+03	2.086613E-16	9.164674E-18
5.800000E+03	2.087421E-16	9.145086E-18
5.810000E+03	2.088215E-16	9.124118E-18
5.820000E+03	2.088993E-16	9.101698E-18
5.830000E+03	2.089795E-16	9.077922E-18
5.840000E+03	2.090637E-16	9.052789E-18
5.850000E+03	2.091494E-16	9.026118E-18
5.860000E+03	2.092421E-16	8.998066E-18
5.870000E+03	2.093409E-16	8.968520E-18
5.880000E+03	2.094471E-16	8.937445E-18
5.890000E+03	2.095614E-16	8.904799E-18
5.900000E+03	2.096847E-16	8.870528E-18
5.910000E+03	2.098156E-16	8.834485E-18
5.920000E+03	2.099546E-16	8.796603E-18
5.930000E+03	2.101040E-16	8.756887E-18
5.940000E+03	2.102621E-16	8.715167E-18
5.950000E+03	2.104269E-16	8.671266E-18
5.960000E+03	2.106005E-16	8.625165E-18
5.970000E+03	2.107806E-16	8.576676E-18
5.980000E+03	2.109672E-16	8.525683E-18
5.990000E+03	2.111598E-16	8.472068E-18
6.000000E+03	2.113583E-16	8.415705E-18
6.010000E+03	2.115602E-16	8.356383E-18
6.020000E+03	2.117629E-16	8.293889E-18
6.030000E+03	2.119681E-16	8.228167E-18
6.040000E+03	2.121754E-16	8.159077E-18
6.050000E+03	2.123801E-16	8.086321E-18
6.060000E+03	2.125837E-16	8.009834E-18
6.070000E+03	2.127818E-16	7.929322E-18
6.080000E+03	2.129759E-16	7.844720E-18
6.090000E+03	2.131634E-16	7.755814E-18
6.100000E+03	2.133441E-16	7.662467E-18
6.110000E+03	2.135153E-16	7.564472E-18
6.120000E+03	2.136748E-16	7.461633E-18
6.130000E+03	2.138221E-16	7.353831E-18
6.140000E+03	2.139569E-16	7.240957E-18
6.150000E+03	2.140789E-16	7.122909E-18
6.160000E+03	2.141857E-16	6.999530E-18
6.170000E+03	2.142793E-16	6.870813E-18
6.180000E+03	2.143593E-16	6.736700E-18
6.190000E+03	2.144277E-16	6.597214E-18
6.200000E+03	2.144841E-16	6.452333E-18
6.210000E+03	2.145265E-16	6.302002E-18
6.220000E+03	2.145586E-16	6.146383E-18
6.230000E+03	2.145783E-16	5.985490E-18
6.240000E+03	2.145853E-16	5.819443E-18
6.250000E+03	2.145858E-16	5.648585E-18
6.260000E+03	2.145751E-16	5.473034E-18
6.270000E+03	2.145552E-16	5.293153E-18
6.280000E+03	2.145279E-16	5.109392E-18
6.290000E+03	2.144970E-16	4.922351E-18
6.300000E+03	2.144580E-16	4.732563E-18
6.310000E+03	2.144126E-16	4.540868E-18
6.320000E+03	2.143645E-16	4.348339E-18
6.330000E+03	2.143111E-16	4.156140E-18
6.340000E+03	2.142562E-16	3.965846E-18
6.350000E+03	2.141948E-16	3.779196E-18
6.360000E+03	2.141306E-16	3.598482E-18
6.370000E+03	2.140630E-16	3.426360E-18
6.380000E+03	2.139935E-16	3.266001E-18
6.390000E+03	2.139192E-16	3.120996E-18
6.400000E+03	2.138415E-16	2.995422E-18
6.410000E+03	2.137620E-16	2.893593E-18
6.420000E+03	2.136777E-16	2.819695E-18
6.430000E+03	2.135882E-16	2.777434E-18
6.440000E+03	2.134971E-16	2.769554E-18
6.450000E+03	2.134017E-16	2.796572E-18
6.460000E+03	2.133033E-16	2.856367E-18
6.470000E+03	2.132014E-16	2.945496E-18
6.480000E+03	2.130953E-16	3.059822E-18
6.490000E+03	2.129865E-16	3.195022E-18
6.500000E+03	2.128698E-16	3.346823E-18
6.510000E+03	2.127514E-16	3.511492E-18
6.520000E+03	2.126260E-16	3.685600E-18
6.530000E+03	2.124951E-16	3.866315E-18
6.540000E+03	2.123579E-16	4.051238E-18
6.550000E+03	2.122113E-16	4.238331E-18
6.560000E+03	2.120565E-16	4.426002E-18
6.570000E+03	2.118905E-16	4.612863E-18
6.580000E+03	2.117144E-16	4.797867E-18
6.590000E+03	2.115272E-16	4.980128E-18
6.600000E+03	2.113278E-16	5.158930E-18
6.610000E+03	2.111128E-16	5.333636E-18
6.620000E+03	2.108858E-16	5.503898E-18
6.630000E+03	2.106435E-16	5.669292E-18
6.640000E+03	2.103846E-16	5.829533E-18
6.650000E+03	2.101084E-16	5.984400E-18
6.660000E+03	2.098162E-16	6.133799E-18
6.670000E+03	2.095048E-16	6.277550E-18
6.680000E+03	2.091758E-16	6.415653E-18
6.690000E+03	2.088285E-16	6.548073E-18
6.700000E+03	2.084602E-16	6.674734E-18
6.710000E+03	2.080727E-16	6.795732E-18
6.720000E+03	2.076657E-16	6.911117E-18
6.730000E+03	2.072369E-16	7.020877E-18
6.740000E+03	2.067909E-16	7.125256E-18
6.750000E+03	2.063232E-16	7.224200E-18
6.760000E+03	2.058365E-16	7.317905E-18
6.770000E+03	2.053335E-16	7.406588E-18
6.780000E+03	2.048103E-16	7.490224E-18
6.790000E+03	2.042700E-16	7.569051E-18
6.800000E+03	2.037135E-16	7.643231E-18
6.810000E+03	2.031418E-16	7.712936E-18
6.820000E+03	2.025562E-16	7.778343E-18
6.830000E+03	2.019580E-16	7.839637E-18
6.840000E+03	2.013485E-16	7.897007E-18
6.850000E+03	2.007317E-16	7.950740E-18
6.860000E+03	2.001045E-16	8.000847E-18
6.870000E+03	1.994708E-16	8.047619E-18
6.880000E+03	1.988349E-16	8.091351E-18
6.890000E+03	1.981937E-16	8.132055E-18
6.900000E+03	1.975538E-16	8.170122E-18
6.910000E+03	1.969123E-16	8.205559E-18
6.920000E+03	1.962759E-16	8.238757E-18
6.930000E+03	1.956439E-16	8.269815E-18
6.940000E+03	1.950183E-16	8.298923E-18
6.950000E+03	1.943984E-16	8.326169E-18
6.960000E+03	1.937908E-16	8.351936E-18
6.970000E+03	1.931970E-16	8.376403E-18
6.980000E+03	1.926142E-16	8.399541E-18
6.990000E+03	1.920462E-16	8.421615E-18
7.000000E+03	1.914946E-16	8.442786E-18
7.010000E+03	1.909630E-16	8.463309E-18
7.020000E+03	1.904482E-16	8.483124E-18
7.030000E+03	1.899561E-16	8.502577E-18
7.040000E+03	1.894854E-16	8.521696E-18
7.050000E+03	1.890350E-16	8.540497E-18
7.060000E+03	1.886104E-16	8.559308E-18
7.070000E+03	1.882102E-16	8.578131E-18
7.080000E+03	1.878351E-16	8.597066E-18
7.090000E+03	1.874857E-16	8.616207E-18
7.100000E+03	1.871627E-16	8.635638E-18
7.110000E+03	1.868664E-16	8.655437E-18
7.120000E+03	1.865996E-16	8.675785E-18
7.130000E+03	1.863578E-16	8.696527E-18
7.140000E+03	1.861435E-16	8.717830E-18
7.150000E+03	1.859593E-16	8.739853E-18
7.160000E+03	1.858027E-16	8.762532E-18
7.170000E+03	1.856737E-16	8.785904E-18
7.180000E+03	1.855721E-16	8.810003E-18
7.190000E+03	1.854977E-16	8.834854E-18
7.200000E+03	1.854526E-16	8.860593E-18
7.210000E+03	1.854318E-16	8.887011E-18
7.220000E+03	1.854394E-16	8.914346E-18
7.230000E+03	1.854728E-16	8.942492E-18
7.240000E+03	1.855337E-16	8.971569E-18
7.250000E+03	1.856193E-16	9.001462E-18
7.260000E+03	1.857290E-16	9.032166E-18
7.270000E+03	1.858644E-16	9.063791E-18
7.280000E+03	1.860225E-16	9.096211E-18
7.290000E+03	1.862027E-16	9.129411E-18
7.300000E+03	1.864066E-16	9.163495E-18
7.310000E+03	1.866335E-16	9.198445E-18
7.320000E+03	1.868801E-16	9.234122E-18
7.330000E+03	1.871481E-16	9.270623E-18
7.340000E+03	1.874344E-16	9.307805E-18
7.350000E+03	1.877404E-16	9.345761E-18
7.360000E+03	1.880654E-16	9.384467E-18
7.370000E+03	1.884061E-16	9.423771E-18
7.380000E+03	1.887641E-16	9.463765E-18
7.390000E+03	1.891387E-16	9.504422E-18
7.400000E+03	1.895264E-16	9.545583E-18
7.410000E+03	1.899291E-16	9.587343E-18
7.420000E+03	1.903483E-16	9.629797E-18
7.430000E+03	1.907807E-16	9.672787E-18
7.440000E+03	1.912257E-16	9.716280E-18
7.450000E+03	1.916849E-16	9.760375E-18
7.460000E+03	1.921552E-16	9.804910E-18
7.470000E+03	1.926331E-16	9.849721E-18
7.480000E+03	1.931230E-16	9.895038E-18
7.490000E+03	1.936166E-16	9.940431E-18
7.500000E+03	1.941182E-16	9.986134E-18
7.510000E+03	1.946246E-16	1.003198E-17
7.520000E+03	1.951378E-16	1.007807E-17
7.530000E+03	1.956517E-16	1.012410E-17
7.540000E+03	1.961711E-16	1.017031E-17
7.550000E+03	1.966926E-16	1.021654E-17
7.560000E+03	1.972131E-16	1.026261E-17
7.570000E+03	1.977371E-16	1.030877E-17
7.580000E+03	1.982589E-16	1.035471E-17
7.590000E+03	1.987805E-16	1.040054E-17
7.600000E+03	1.993014E-16	1.044624E-17
7.610000E+03	1.998210E-16	1.049177E-17
7.620000E+03	2.003360E-16	1.053696E-17
7.630000E+03	2.008460E-16	1.058178E-17
7.640000E+03	2.013559E-16	1.062649E-17
7.650000E+03	2.018569E-16	1.067063E-17
7.660000E+03	2.023540E-16	1.071445E-17
7.670000E+03	2.028467E-16	1.075794E-17
7.680000E+03	2.033316E-16	1.080091E-17
7.690000E+03	2.038084E-16	1.084333E-17
7.700000E+03	2.042791E-16	1.088532E-17
7.710000E+03	2.047406E-16	1.092671E-17
7.720000E+03	2.051921E-16	1.096745E-17
7.730000E+03	2.056360E-16	1.100767E-17
7.740000E+03	2.060689E-16	1.104719E-17
7.750000E+03	2.064931E-16	1.108611E-17
7.760000E+03	2.069051E-16	1.112427E-17
