#wls	flux	fluxerr
1.600000E+03	1.866298E-17	7.776175E-18
1.640000E+03	1.890925E-17	7.824375E-18
1.680000E+03	1.916260E-17	7.872349E-18
1.720000E+03	1.942643E-17	7.921314E-18
1.760000E+03	1.970089E-17	7.971126E-18
1.800000E+03	1.998614E-17	8.021626E-18
1.840000E+03	2.028233E-17	8.072647E-18
1.880000E+03	2.058960E-17	8.124006E-18
1.920000E+03	2.090810E-17	8.175509E-18
1.960000E+03	2.124149E-17	8.228314E-18
2.000000E+03	2.158642E-17	8.280833E-18
2.040000E+03	2.195021E-17	8.335555E-18
2.080000E+03	2.232592E-17	8.389494E-18
2.120000E+03	2.271731E-17	8.443741E-18
2.160000E+03	2.312457E-17	8.497999E-18
2.200000E+03	2.355162E-17	8.553311E-18
2.240000E+03	2.399873E-17	8.609329E-18
2.280000E+03	2.446238E-17	8.664341E-18
2.320000E+03	2.494654E-17	8.719307E-18
2.360000E+03	2.545533E-17	8.775145E-18
2.400000E+03	2.598907E-17	8.831393E-18
2.440000E+03	2.654415E-17	8.886242E-18
2.480000E+03	2.712473E-17	8.940505E-18
2.520000E+03	2.773511E-17	8.994936E-18
2.560000E+03	2.837162E-17	9.047638E-18
2.600000E+03	2.904266E-17	9.100559E-18
2.640000E+03	2.974455E-17	9.151727E-18
2.680000E+03	3.047763E-17	9.200441E-18
2.720000E+03	3.125053E-17	9.248439E-18
2.760000E+03	3.205955E-17	9.293649E-18
2.800000E+03	3.291352E-17	9.337640E-18
2.840000E+03	3.380446E-17	9.377068E-18
2.880000E+03	3.474564E-17	9.414541E-18
2.920000E+03	3.573333E-17	9.447819E-18
2.960000E+03	3.677242E-17	9.476965E-18
3.000000E+03	3.786352E-17	9.500831E-18
3.010000E+03	3.814753E-17	9.506592E-18
3.020000E+03	3.843208E-17	9.511240E-18
3.030000E+03	3.872160E-17	9.515855E-18
3.040000E+03	3.901167E-17	9.519330E-18
3.050000E+03	3.931118E-17	9.523811E-18
3.060000E+03	3.961126E-17	9.527113E-18
3.070000E+03	3.991191E-17	9.529227E-18
3.080000E+03	4.022205E-17	9.532266E-18
3.090000E+03	4.053279E-17	9.534079E-18
3.100000E+03	4.084859E-17	9.535707E-18
3.110000E+03	4.116947E-17	9.537122E-18
3.120000E+03	4.149546E-17	9.538300E-18
3.130000E+03	4.182207E-17	9.538186E-18
3.140000E+03	4.215832E-17	9.538818E-18
3.150000E+03	4.249520E-17	9.538120E-18
3.160000E+03	4.283725E-17	9.537093E-18
3.170000E+03	4.317995E-17	9.534710E-18
3.180000E+03	4.353237E-17	9.532956E-18
3.190000E+03	4.388547E-17	9.529807E-18
3.200000E+03	4.424835E-17	9.527222E-18
3.210000E+03	4.461192E-17	9.523204E-18
3.220000E+03	4.498076E-17	9.518717E-18
3.230000E+03	4.535487E-17	9.513734E-18
3.240000E+03	4.573430E-17	9.508229E-18
3.250000E+03	4.611445E-17	9.501232E-18
3.260000E+03	4.650453E-17	9.494616E-18
3.270000E+03	4.689997E-17	9.487403E-18
3.280000E+03	4.729618E-17	9.478642E-18
3.290000E+03	4.770240E-17	9.470166E-18
3.300000E+03	4.810942E-17	9.460107E-18
3.310000E+03	4.852650E-17	9.450269E-18
3.320000E+03	4.894440E-17	9.438814E-18
3.330000E+03	4.936777E-17	9.426627E-18
3.340000E+03	4.980130E-17	9.414567E-18
3.350000E+03	5.023569E-17	9.400840E-18
3.360000E+03	5.068028E-17	9.387177E-18
3.370000E+03	5.112577E-17	9.371816E-18
3.380000E+03	5.158152E-17	9.356457E-18
3.390000E+03	5.203818E-17	9.339371E-18
3.400000E+03	5.250517E-17	9.322227E-18
3.410000E+03	5.297782E-17	9.304155E-18
3.420000E+03	5.345614E-17	9.285132E-18
3.430000E+03	5.394017E-17	9.265138E-18
3.440000E+03	5.442518E-17	9.243350E-18
3.450000E+03	5.492540E-17	9.222157E-18
3.460000E+03	5.542665E-17	9.199130E-18
3.470000E+03	5.593368E-17	9.175054E-18
3.480000E+03	5.645128E-17	9.150682E-18
3.490000E+03	5.696995E-17	9.124446E-18
3.500000E+03	5.749925E-17	9.097864E-18
3.510000E+03	5.803442E-17	9.070148E-18
3.520000E+03	5.857550E-17	9.041283E-18
3.530000E+03	5.912249E-17	9.011255E-18
3.540000E+03	5.968022E-17	8.980771E-18
3.550000E+03	6.023912E-17	8.948367E-18
3.560000E+03	6.080881E-17	8.915467E-18
3.570000E+03	6.138451E-17	8.881337E-18
3.580000E+03	6.196622E-17	8.845968E-18
3.590000E+03	6.255881E-17	8.810032E-18
3.600000E+03	6.315262E-17	8.772150E-18
3.610000E+03	6.375734E-17	8.733671E-18
3.620000E+03	6.436816E-17	8.693907E-18
3.630000E+03	6.498508E-17	8.652856E-18
3.640000E+03	6.561297E-17	8.611153E-18
3.650000E+03	6.624700E-17	8.568142E-18
3.660000E+03	6.688717E-17	8.523824E-18
3.670000E+03	6.753348E-17	8.478201E-18
3.680000E+03	6.818594E-17	8.431278E-18
3.690000E+03	6.884944E-17	8.383658E-18
3.700000E+03	6.951911E-17	8.334734E-18
3.710000E+03	7.019494E-17	8.284519E-18
3.720000E+03	7.087691E-17	8.233023E-18
3.730000E+03	7.156996E-17	8.180826E-18
3.740000E+03	7.226915E-17	8.127364E-18
3.750000E+03	7.297448E-17	8.072659E-18
3.760000E+03	7.369087E-17	8.017272E-18
3.770000E+03	7.440843E-17	7.960144E-18
3.780000E+03	7.513702E-17	7.902373E-18
3.790000E+03	7.587168E-17	7.843453E-18
3.800000E+03	7.661238E-17	7.783421E-18
3.810000E+03	7.736406E-17	7.722815E-18
3.820000E+03	7.812174E-17	7.661166E-18
3.830000E+03	7.888038E-17	7.598042E-18
3.840000E+03	7.964991E-17	7.534466E-18
3.850000E+03	8.043030E-17	7.470472E-18
3.860000E+03	8.121152E-17	7.405187E-18
3.870000E+03	8.200352E-17	7.339601E-18
3.880000E+03	8.280125E-17	7.273324E-18
3.890000E+03	8.359962E-17	7.206004E-18
3.900000E+03	8.440861E-17	7.138601E-18
3.910000E+03	8.522817E-17	7.071185E-18
3.920000E+03	8.604817E-17	7.003016E-18
3.930000E+03	8.687357E-17	6.934624E-18
3.940000E+03	8.770429E-17	6.866126E-18
3.950000E+03	8.854529E-17	6.798032E-18
3.960000E+03	8.938639E-17	6.729688E-18
3.961329E+03	6.813510E-17	2.534465E-17
3.963866E+03	7.044777E-17	2.226192E-17
3.966404E+03	7.253792E-17	2.333876E-17
3.968942E+03	7.413411E-17	2.426611E-17
3.971480E+03	7.662166E-17	2.310296E-17
3.974018E+03	7.756195E-17	2.256779E-17
3.976556E+03	7.882239E-17	2.110854E-17
3.979093E+03	7.913892E-17	2.096791E-17
3.981631E+03	8.050488E-17	2.117175E-17
3.984169E+03	7.987332E-17	2.263369E-17
3.986707E+03	8.007641E-17	2.263058E-17
3.989245E+03	8.037676E-17	2.381876E-17
3.991783E+03	7.964368E-17	2.426811E-17
3.994321E+03	7.901991E-17	2.668365E-17
3.996858E+03	7.971737E-17	2.670363E-17
3.999396E+03	8.157414E-17	2.584413E-17
4.001934E+03	8.469174E-17	2.719623E-17
4.004472E+03	8.577059E-17	2.690802E-17
4.007010E+03	8.768059E-17	2.801156E-17
4.009548E+03	8.998809E-17	2.919754E-17
4.012086E+03	9.093754E-17	2.916681E-17
4.014623E+03	9.268583E-17	2.880221E-17
4.017161E+03	9.493707E-17	2.992536E-17
4.019699E+03	9.615851E-17	3.010980E-17
4.022237E+03	9.733138E-17	3.033640E-17
4.024775E+03	9.893827E-17	2.921392E-17
4.027313E+03	1.008130E-16	2.959617E-17
4.029851E+03	1.018847E-16	2.952328E-17
4.032388E+03	1.035041E-16	2.878628E-17
4.034926E+03	1.060769E-16	2.880233E-17
4.037464E+03	1.085728E-16	2.753258E-17
4.040002E+03	1.090162E-16	2.791284E-17
4.042540E+03	1.110174E-16	2.677932E-17
4.045078E+03	1.126171E-16	2.841455E-17
4.047616E+03	1.143874E-16	2.951871E-17
4.050153E+03	1.146483E-16	2.852307E-17
4.052691E+03	1.142885E-16	3.262196E-17
4.055229E+03	1.145453E-16	3.214888E-17
4.057767E+03	1.157152E-16	3.171348E-17
4.060305E+03	1.157407E-16	3.545370E-17
4.062843E+03	1.168660E-16	3.565936E-17
4.065381E+03	1.170091E-16	3.406273E-17
4.067918E+03	1.179559E-16	3.877711E-17
4.070456E+03	1.199905E-16	3.962820E-17
4.072994E+03	1.217248E-16	4.151136E-17
4.075532E+03	1.242508E-16	4.105481E-17
4.078070E+03	1.248893E-16	4.044288E-17
4.080608E+03	1.271354E-16	4.094805E-17
4.083146E+03	1.281800E-16	4.095705E-17
4.085683E+03	1.302476E-16	4.127389E-17
4.088221E+03	1.323235E-16	4.108535E-17
4.090759E+03	1.334007E-16	4.118970E-17
4.093297E+03	1.344251E-16	4.090370E-17
4.095835E+03	1.356201E-16	3.974219E-17
4.098373E+03	1.371725E-16	3.925749E-17
4.100911E+03	1.377949E-16	3.493485E-17
4.103448E+03	1.379219E-16	3.389162E-17
4.105986E+03	1.379595E-16	3.187174E-17
4.108524E+03	1.388946E-16	2.978905E-17
4.111062E+03	1.383757E-16	2.982737E-17
4.113600E+03	1.379176E-16	3.333627E-17
4.116138E+03	1.384383E-16	2.937347E-17
4.118676E+03	1.408112E-16	2.962780E-17
4.121213E+03	1.410191E-16	2.696452E-17
4.123751E+03	1.406176E-16	2.678920E-17
4.126289E+03	1.402526E-16	2.684206E-17
4.128827E+03	1.396763E-16	2.578606E-17
4.131365E+03	1.371579E-16	2.576950E-17
4.133903E+03	1.372313E-16	2.496510E-17
4.136441E+03	1.372641E-16	2.594488E-17
4.138978E+03	1.367117E-16	2.526460E-17
4.141516E+03	1.364842E-16	2.708476E-17
4.144054E+03	1.355740E-16	2.861552E-17
4.146592E+03	1.351757E-16	2.854490E-17
4.149130E+03	1.341312E-16	2.840732E-17
4.151668E+03	1.332532E-16	2.835119E-17
4.154206E+03	1.331309E-16	2.767697E-17
4.156743E+03	1.326185E-16	2.770225E-17
4.159281E+03	1.314719E-16	2.791410E-17
4.161819E+03	1.307886E-16	2.458351E-17
4.164357E+03	1.303367E-16	2.433242E-17
4.166895E+03	1.295068E-16	2.240109E-17
4.169433E+03	1.280184E-16	2.135282E-17
4.171971E+03	1.256723E-16	2.121186E-17
4.174508E+03	1.251184E-16	2.134457E-17
4.177046E+03	1.212193E-16	2.262058E-17
4.179584E+03	1.185352E-16	2.250049E-17
4.182122E+03	1.152901E-16	2.236599E-17
4.184660E+03	1.133942E-16	2.179004E-17
4.187198E+03	1.107666E-16	2.350855E-17
4.189736E+03	1.077119E-16	2.088329E-17
4.192273E+03	1.083157E-16	1.946506E-17
4.194811E+03	1.078869E-16	2.030885E-17
4.197349E+03	1.085597E-16	2.090580E-17
4.199887E+03	1.080860E-16	2.125440E-17
4.202425E+03	1.073765E-16	2.093945E-17
4.204963E+03	1.091875E-16	2.085704E-17
4.207501E+03	1.092340E-16	2.376172E-17
4.210038E+03	1.099350E-16	2.408191E-17
4.212576E+03	1.100587E-16	2.530634E-17
4.215114E+03	1.103572E-16	2.582978E-17
4.217652E+03	1.108588E-16	2.543383E-17
4.220190E+03	1.103643E-16	2.540537E-17
4.222728E+03	1.102072E-16	2.630916E-17
4.225266E+03	1.110096E-16	2.515921E-17
4.227803E+03	1.116778E-16	2.519662E-17
4.230341E+03	1.131835E-16	2.531817E-17
4.232879E+03	1.151040E-16	2.549030E-17
4.235417E+03	1.166300E-16	2.421108E-17
4.237955E+03	1.149030E-16	2.411415E-17
4.240493E+03	1.149569E-16	2.386819E-17
4.243031E+03	1.135062E-16	2.353866E-17
4.245568E+03	1.126207E-16	2.286154E-17
4.248106E+03	1.116903E-16	2.272550E-17
4.250644E+03	1.123051E-16	2.558385E-17
4.253182E+03	1.123912E-16	2.597483E-17
4.255720E+03	1.122373E-16	2.206898E-17
4.258258E+03	1.127055E-16	2.112835E-17
4.260796E+03	1.126287E-16	2.270436E-17
4.263333E+03	1.124502E-16	2.480519E-17
4.265871E+03	1.140202E-16	2.784659E-17
4.268409E+03	1.163547E-16	2.784211E-17
4.270947E+03	1.176766E-16	2.720238E-17
4.273485E+03	1.191976E-16	2.724997E-17
4.276023E+03	1.194905E-16	2.767874E-17
4.278561E+03	1.209788E-16	2.791228E-17
4.281098E+03	1.209747E-16	2.993061E-17
4.283636E+03	1.211535E-16	2.961862E-17
4.286174E+03	1.225765E-16	2.964466E-17
4.288712E+03	1.219907E-16	2.897801E-17
4.291250E+03	1.224335E-16	2.919037E-17
4.293788E+03	1.215750E-16	3.221923E-17
4.296326E+03	1.216396E-16	3.225372E-17
4.298863E+03	1.215739E-16	2.890465E-17
4.301401E+03	1.196498E-16	2.925766E-17
4.303939E+03	1.206291E-16	2.967212E-17
4.306477E+03	1.206120E-16	2.962118E-17
4.309015E+03	1.224287E-16	3.175786E-17
4.311553E+03	1.232328E-16	3.178203E-17
4.314091E+03	1.251713E-16	2.979249E-17
4.316628E+03	1.260077E-16	2.980228E-17
4.319166E+03	1.240750E-16	3.057791E-17
4.321704E+03	1.245128E-16	3.076483E-17
4.324242E+03	1.254913E-16	3.230897E-17
4.326780E+03	1.261566E-16	3.133484E-17
4.329318E+03	1.262525E-16	3.035700E-17
4.331856E+03	1.274503E-16	3.148172E-17
4.334393E+03	1.296318E-16	3.151116E-17
4.336931E+03	1.299511E-16	3.347765E-17
4.339469E+03	1.296847E-16	3.369003E-17
4.342007E+03	1.303331E-16	3.068812E-17
4.344545E+03	1.306358E-16	3.100018E-17
4.347083E+03	1.313897E-16	3.144868E-17
4.349621E+03	1.310173E-16	3.341421E-17
4.352158E+03	1.318685E-16	3.317896E-17
4.354696E+03	1.322846E-16	3.410395E-17
4.357234E+03	1.315502E-16	3.135015E-17
4.359772E+03	1.306612E-16	2.880132E-17
4.362310E+03	1.296380E-16	3.114194E-17
4.364848E+03	1.285700E-16	3.113091E-17
4.367386E+03	1.269817E-16	3.062093E-17
4.369923E+03	1.252593E-16	3.086419E-17
4.372461E+03	1.257398E-16	2.879337E-17
4.374999E+03	1.234727E-16	2.881455E-17
4.377537E+03	1.229939E-16	3.305544E-17
4.380075E+03	1.204544E-16	3.224547E-17
4.382613E+03	1.179434E-16	3.233209E-17
4.385151E+03	1.168306E-16	3.276108E-17
4.387688E+03	1.159900E-16	3.198796E-17
4.390226E+03	1.161775E-16	3.440646E-17
4.392764E+03	1.148816E-16	3.434416E-17
4.395302E+03	1.136914E-16	3.823070E-17
4.397840E+03	1.127938E-16	3.737607E-17
4.400378E+03	1.129079E-16	3.753022E-17
4.402916E+03	1.141271E-16	3.668789E-17
4.405453E+03	1.147407E-16	3.716102E-17
4.407991E+03	1.153664E-16	3.876753E-17
4.410529E+03	1.156466E-16	3.638231E-17
4.413067E+03	1.178362E-16	3.637003E-17
4.415605E+03	1.198508E-16	3.616424E-17
4.418143E+03	1.186884E-16	3.599291E-17
4.420681E+03	1.208448E-16	3.596203E-17
4.423218E+03	1.234356E-16	3.806287E-17
4.425756E+03	1.229594E-16	3.488745E-17
4.428294E+03	1.242296E-16	3.601721E-17
4.430832E+03	1.260398E-16	3.834697E-17
4.433370E+03	1.262293E-16	3.632665E-17
4.435908E+03	1.258420E-16	3.637725E-17
4.438446E+03	1.268394E-16	3.259104E-17
4.440983E+03	1.269920E-16	3.243887E-17
4.443521E+03	1.269170E-16	2.924909E-17
4.446059E+03	1.287098E-16	2.934808E-17
4.448597E+03	1.294669E-16	3.085399E-17
4.451135E+03	1.281086E-16	3.107198E-17
4.453673E+03	1.288776E-16	3.173778E-17
4.456211E+03	1.308603E-16	2.905262E-17
4.458748E+03	1.320429E-16	2.906217E-17
4.461286E+03	1.327951E-16	2.895902E-17
4.463824E+03	1.350813E-16	2.739610E-17
4.466362E+03	1.366204E-16	2.731538E-17
4.468900E+03	1.378021E-16	2.686001E-17
4.471438E+03	1.391539E-16	2.720545E-17
4.473976E+03	1.386144E-16	2.842134E-17
4.476513E+03	1.364153E-16	2.848177E-17
4.479051E+03	1.348979E-16	2.548902E-17
4.481589E+03	1.336443E-16	2.553707E-17
4.484127E+03	1.326058E-16	2.542402E-17
4.486665E+03	1.311860E-16	2.767437E-17
4.489203E+03	1.306465E-16	2.776615E-17
4.491741E+03	1.287764E-16	2.958970E-17
4.494278E+03	1.264157E-16	3.062778E-17
4.496816E+03	1.250773E-16	2.918176E-17
4.499354E+03	1.239660E-16	3.023555E-17
4.501892E+03	1.250649E-16	3.170897E-17
4.504430E+03	1.240347E-16	3.168672E-17
4.506968E+03	1.253035E-16	3.246277E-17
4.509506E+03	1.238717E-16	3.279664E-17
4.512043E+03	1.234496E-16	3.304153E-17
4.514581E+03	1.206355E-16	3.268521E-17
4.517119E+03	1.178461E-16	3.289216E-17
4.519657E+03	1.175822E-16	3.339521E-17
4.522195E+03	1.168441E-16	3.500268E-17
4.524733E+03	1.159478E-16	3.450912E-17
4.527271E+03	1.146828E-16	3.906953E-17
4.529808E+03	1.142284E-16	3.854670E-17
4.532346E+03	1.146085E-16	3.876665E-17
4.534884E+03	1.154463E-16	3.791901E-17
4.537422E+03	1.153116E-16	3.902471E-17
4.539960E+03	1.171212E-16	3.806219E-17
4.542498E+03	1.169983E-16	3.668440E-17
4.545036E+03	1.186533E-16	3.737058E-17
4.547573E+03	1.179429E-16	3.929428E-17
4.550111E+03	1.189697E-16	3.654675E-17
4.552649E+03	1.181336E-16	3.964762E-17
4.555187E+03	1.165282E-16	3.941261E-17
4.557725E+03	1.152995E-16	3.933569E-17
4.560263E+03	1.154270E-16	3.982341E-17
4.562801E+03	1.169832E-16	4.028763E-17
4.565338E+03	1.175920E-16	4.028938E-17
4.567876E+03	1.188480E-16	3.897084E-17
4.570414E+03	1.206905E-16	4.072936E-17
4.572952E+03	1.207360E-16	4.079094E-17
4.575490E+03	1.217725E-16	3.664845E-17
4.578028E+03	1.210652E-16	3.645251E-17
4.580566E+03	1.225584E-16	3.684360E-17
4.583103E+03	1.231856E-16	3.767566E-17
4.585641E+03	1.238853E-16	3.701773E-17
4.588179E+03	1.250943E-16	3.665223E-17
4.590717E+03	1.256439E-16	3.667174E-17
4.593255E+03	1.251380E-16	3.640877E-17
4.595793E+03	1.264431E-16	3.267203E-17
4.598331E+03	1.270041E-16	3.004258E-17
4.600868E+03	1.287289E-16	2.754452E-17
4.603406E+03	1.301137E-16	2.754620E-17
4.605944E+03	1.304515E-16	2.777616E-17
4.608482E+03	1.320295E-16	2.779293E-17
4.611020E+03	1.356069E-16	2.954740E-17
4.613558E+03	1.368524E-16	2.917501E-17
4.616096E+03	1.372978E-16	3.185334E-17
4.618633E+03	1.395766E-16	2.750851E-17
4.621171E+03	1.409824E-16	2.921407E-17
4.623709E+03	1.418385E-16	2.856268E-17
4.626247E+03	1.450562E-16	2.893058E-17
4.628785E+03	1.470337E-16	2.777581E-17
4.631323E+03	1.485060E-16	2.644300E-17
4.633861E+03	1.500060E-16	2.698369E-17
4.636398E+03	1.513683E-16	2.790387E-17
4.638936E+03	1.532264E-16	2.798002E-17
4.641474E+03	1.545432E-16	2.727475E-17
4.644012E+03	1.577354E-16	2.719499E-17
4.646550E+03	1.584137E-16	2.713806E-17
4.649088E+03	1.596039E-16	2.723765E-17
4.651626E+03	1.629954E-16	2.739486E-17
4.654163E+03	1.643617E-16	2.761364E-17
4.656701E+03	1.665781E-16	2.677344E-17
4.659239E+03	1.680320E-16	2.466715E-17
4.661777E+03	1.713715E-16	2.469334E-17
4.664315E+03	1.735049E-16	2.276420E-17
4.666853E+03	1.756376E-16	2.376550E-17
4.669391E+03	1.772781E-16	2.143884E-17
4.671928E+03	1.773468E-16	2.141456E-17
4.674466E+03	1.778140E-16	2.136945E-17
4.677004E+03	1.805442E-16	2.139249E-17
4.679542E+03	1.823231E-16	2.139057E-17
4.682080E+03	1.843107E-16	2.077700E-17
4.684618E+03	1.863257E-16	1.975724E-17
4.687156E+03	1.876355E-16	2.121519E-17
4.689693E+03	1.889930E-16	2.118272E-17
4.692231E+03	1.899032E-16	2.117839E-17
4.694769E+03	1.930096E-16	2.134582E-17
4.697307E+03	1.945058E-16	2.106789E-17
4.699845E+03	1.970028E-16	2.089366E-17
4.702383E+03	1.996517E-16	2.005053E-17
4.704921E+03	2.021507E-16	1.988196E-17
4.707458E+03	2.034185E-16	1.979670E-17
4.709996E+03	2.050675E-16	1.978695E-17
4.712534E+03	2.069489E-16	1.853384E-17
4.715072E+03	2.073788E-16	1.698322E-17
4.717610E+03	2.087043E-16	1.661973E-17
4.720148E+03	2.103745E-16	1.809013E-17
4.722686E+03	2.129075E-16	1.776302E-17
4.725223E+03	2.143993E-16	1.784714E-17
4.727761E+03	2.157698E-16	1.743177E-17
4.730299E+03	2.174809E-16	2.015746E-17
4.732837E+03	2.189905E-16	2.010451E-17
4.735375E+03	2.184605E-16	1.859559E-17
4.737913E+03	2.198444E-16	1.852844E-17
4.740451E+03	2.191495E-16	1.863525E-17
4.742988E+03	2.195655E-16	1.825685E-17
4.745526E+03	2.190467E-16	1.823623E-17
4.748064E+03	2.180787E-16	1.846098E-17
4.750602E+03	2.166537E-16	1.839398E-17
4.753140E+03	2.151968E-16	1.825299E-17
4.755678E+03	2.137562E-16	1.817590E-17
4.758216E+03	2.128287E-16	1.813115E-17
4.760753E+03	2.113964E-16	1.859072E-17
4.763291E+03	2.099563E-16	1.845914E-17
4.765829E+03	2.088649E-16	1.857823E-17
4.768367E+03	2.068126E-16	1.722084E-17
4.770905E+03	2.052572E-16	1.517759E-17
4.773443E+03	2.043145E-16	1.717797E-17
4.775981E+03	2.023434E-16	1.711407E-17
4.778518E+03	2.019211E-16	1.385895E-17
4.781056E+03	1.999346E-16	1.485274E-17
4.783594E+03	1.989325E-16	1.475814E-17
4.786132E+03	1.983383E-16	1.516461E-17
4.788670E+03	1.967126E-16	1.633791E-17
4.791208E+03	1.946315E-16	1.699804E-17
4.793746E+03	1.929346E-16	1.787274E-17
4.796283E+03	1.908106E-16	1.774007E-17
4.798821E+03	1.898657E-16	2.041434E-17
4.801359E+03	1.884615E-16	2.044036E-17
4.803897E+03	1.873291E-16	2.060506E-17
4.806435E+03	1.861091E-16	2.070659E-17
4.808973E+03	1.853284E-16	2.046519E-17
4.811511E+03	1.842684E-16	2.078638E-17
4.814048E+03	1.828255E-16	2.115382E-17
4.816586E+03	1.810599E-16	2.109979E-17
4.819124E+03	1.803475E-16	2.107380E-17
4.821662E+03	1.795914E-16	2.122072E-17
4.824200E+03	1.782891E-16	2.100232E-17
4.826738E+03	1.773379E-16	2.155585E-17
4.829276E+03	1.767813E-16	2.008038E-17
4.831813E+03	1.763482E-16	2.002850E-17
4.834351E+03	1.760185E-16	1.998188E-17
4.836889E+03	1.759277E-16	2.111618E-17
4.839427E+03	1.757012E-16	2.027455E-17
4.841965E+03	1.753671E-16	1.860503E-17
4.844503E+03	1.738391E-16	2.037238E-17
4.847041E+03	1.718459E-16	1.908708E-17
4.849578E+03	1.708876E-16	1.917402E-17
4.852116E+03	1.702357E-16	1.970620E-17
4.854654E+03	1.711781E-16	1.950213E-17
4.857192E+03	1.701045E-16	2.037667E-17
4.859730E+03	1.695437E-16	2.001380E-17
4.862268E+03	1.693485E-16	1.996970E-17
4.864806E+03	1.702454E-16	2.042422E-17
4.867343E+03	1.700178E-16	2.095462E-17
4.869881E+03	1.695438E-16	1.894039E-17
4.872419E+03	1.694111E-16	1.880040E-17
4.874957E+03	1.684648E-16	1.761869E-17
4.877495E+03	1.673520E-16	1.767884E-17
4.880033E+03	1.665964E-16	1.790426E-17
4.882571E+03	1.655079E-16	1.795004E-17
4.885108E+03	1.654305E-16	1.666998E-17
4.887646E+03	1.643581E-16	2.034570E-17
4.890184E+03	1.636465E-16	2.025598E-17
4.892722E+03	1.625190E-16	1.894862E-17
4.895260E+03	1.597485E-16	1.825821E-17
4.897798E+03	1.584003E-16	1.821365E-17
4.900336E+03	1.575237E-16	1.715529E-17
4.902873E+03	1.563663E-16	1.733094E-17
4.905411E+03	1.573296E-16	1.552420E-17
4.907949E+03	1.567181E-16	1.498752E-17
4.910487E+03	1.546675E-16	1.458329E-17
4.913025E+03	1.528272E-16	1.433925E-17
4.915563E+03	1.519993E-16	1.410797E-17
4.918101E+03	1.521631E-16	1.352194E-17
4.920638E+03	1.527849E-16	1.442300E-17
4.923176E+03	1.520121E-16	1.653258E-17
