#wls	flux	fluxerr
1.600000E+03	1.610155E-16	0.000000E+00
1.640000E+03	1.696136E-16	0.000000E+00
1.680000E+03	1.788660E-16	0.000000E+00
1.720000E+03	1.888097E-16	0.000000E+00
1.760000E+03	1.994989E-16	0.000000E+00
1.800000E+03	2.110058E-16	0.000000E+00
1.840000E+03	2.233318E-16	0.000000E+00
1.880000E+03	2.365652E-16	0.000000E+00
1.920000E+03	2.507399E-16	0.000000E+00
1.960000E+03	2.658860E-16	0.000000E+00
2.000000E+03	2.820095E-16	0.000000E+00
2.040000E+03	2.991294E-16	0.000000E+00
2.080000E+03	3.172181E-16	0.000000E+00
2.120000E+03	3.361966E-16	0.000000E+00
2.160000E+03	3.560349E-16	0.000000E+00
2.200000E+03	3.766080E-16	0.000000E+00
2.240000E+03	3.977968E-16	0.000000E+00
2.280000E+03	4.195093E-16	0.000000E+00
2.320000E+03	4.416845E-16	0.000000E+00
2.360000E+03	4.643145E-16	0.000000E+00
2.400000E+03	4.874031E-16	0.000000E+00
2.440000E+03	5.109435E-16	0.000000E+00
2.480000E+03	5.349827E-16	0.000000E+00
2.520000E+03	5.594879E-16	0.000000E+00
2.560000E+03	5.844548E-16	0.000000E+00
2.600000E+03	6.097954E-16	0.000000E+00
2.640000E+03	6.354259E-16	0.000000E+00
2.680000E+03	6.611999E-16	0.000000E+00
2.720000E+03	6.869539E-16	0.000000E+00
2.760000E+03	7.125094E-16	0.000000E+00
2.800000E+03	7.376532E-16	0.000000E+00
2.840000E+03	7.621632E-16	0.000000E+00
2.880000E+03	7.858548E-16	0.000000E+00
2.920000E+03	8.084995E-16	0.000000E+00
2.960000E+03	8.299747E-16	0.000000E+00
3.000000E+03	8.501001E-16	0.000000E+00
3.010000E+03	8.549293E-16	0.000000E+00
3.020000E+03	8.596521E-16	0.000000E+00
3.030000E+03	8.642651E-16	0.000000E+00
3.040000E+03	8.688033E-16	0.000000E+00
3.050000E+03	8.732438E-16	0.000000E+00
3.060000E+03	8.775827E-16	0.000000E+00
3.070000E+03	8.818359E-16	0.000000E+00
3.080000E+03	8.859805E-16	0.000000E+00
3.090000E+03	8.900136E-16	0.000000E+00
3.100000E+03	8.939698E-16	0.000000E+00
3.110000E+03	8.978077E-16	0.000000E+00
3.120000E+03	9.015421E-16	0.000000E+00
3.130000E+03	9.051538E-16	0.000000E+00
3.140000E+03	9.086939E-16	0.000000E+00
3.150000E+03	9.121041E-16	0.000000E+00
3.160000E+03	9.154004E-16	0.000000E+00
3.170000E+03	9.185986E-16	0.000000E+00
3.180000E+03	9.216961E-16	0.000000E+00
3.190000E+03	9.246557E-16	0.000000E+00
3.200000E+03	9.275262E-16	0.000000E+00
3.210000E+03	9.302729E-16	0.000000E+00
3.220000E+03	9.329092E-16	0.000000E+00
3.230000E+03	9.354183E-16	0.000000E+00
3.240000E+03	9.378152E-16	0.000000E+00
3.250000E+03	9.400989E-16	0.000000E+00
3.260000E+03	9.422670E-16	0.000000E+00
3.270000E+03	9.443025E-16	0.000000E+00
3.280000E+03	9.462223E-16	0.000000E+00
3.290000E+03	9.480255E-16	0.000000E+00
3.300000E+03	9.496953E-16	0.000000E+00
3.310000E+03	9.512476E-16	0.000000E+00
3.320000E+03	9.526682E-16	0.000000E+00
3.330000E+03	9.539713E-16	0.000000E+00
3.340000E+03	9.551437E-16	0.000000E+00
3.350000E+03	9.561853E-16	0.000000E+00
3.360000E+03	9.570989E-16	0.000000E+00
3.370000E+03	9.578843E-16	0.000000E+00
3.380000E+03	9.585442E-16	0.000000E+00
3.390000E+03	9.590664E-16	0.000000E+00
3.400000E+03	9.594666E-16	0.000000E+00
3.410000E+03	9.597193E-16	0.000000E+00
3.420000E+03	9.598562E-16	0.000000E+00
3.430000E+03	9.598527E-16	0.000000E+00
3.440000E+03	9.597113E-16	0.000000E+00
3.450000E+03	9.594365E-16	0.000000E+00
3.460000E+03	9.590187E-16	0.000000E+00
3.470000E+03	9.584762E-16	0.000000E+00
3.480000E+03	9.577995E-16	0.000000E+00
3.490000E+03	9.569814E-16	0.000000E+00
3.500000E+03	9.560272E-16	0.000000E+00
3.510000E+03	9.549299E-16	0.000000E+00
3.520000E+03	9.537063E-16	0.000000E+00
3.530000E+03	9.523281E-16	0.000000E+00
3.540000E+03	9.508129E-16	0.000000E+00
3.550000E+03	9.491564E-16	0.000000E+00
3.560000E+03	9.473638E-16	0.000000E+00
3.570000E+03	9.454210E-16	0.000000E+00
3.580000E+03	9.433245E-16	0.000000E+00
3.590000E+03	9.410929E-16	0.000000E+00
3.600000E+03	9.387013E-16	0.000000E+00
3.610000E+03	9.361692E-16	0.000000E+00
3.620000E+03	9.334949E-16	0.000000E+00
3.630000E+03	9.306660E-16	0.000000E+00
3.640000E+03	9.276808E-16	0.000000E+00
3.650000E+03	9.245497E-16	0.000000E+00
3.660000E+03	9.212623E-16	0.000000E+00
3.670000E+03	9.178388E-16	0.000000E+00
3.680000E+03	9.142581E-16	0.000000E+00
3.690000E+03	9.105307E-16	0.000000E+00
3.700000E+03	9.066584E-16	0.000000E+00
3.710000E+03	9.026509E-16	0.000000E+00
3.720000E+03	8.984994E-16	0.000000E+00
3.730000E+03	8.942146E-16	0.000000E+00
3.740000E+03	8.897980E-16	0.000000E+00
3.750000E+03	8.852596E-16	0.000000E+00
3.760000E+03	8.806001E-16	0.000000E+00
3.770000E+03	8.758298E-16	0.000000E+00
3.780000E+03	8.709498E-16	0.000000E+00
3.790000E+03	8.659612E-16	0.000000E+00
3.800000E+03	8.608904E-16	0.000000E+00
3.810000E+03	8.557214E-16	0.000000E+00
3.820000E+03	8.504713E-16	0.000000E+00
3.830000E+03	8.451572E-16	0.000000E+00
3.840000E+03	8.397708E-16	0.000000E+00
3.850000E+03	8.343204E-16	0.000000E+00
3.860000E+03	8.288219E-16	0.000000E+00
3.870000E+03	8.232824E-16	0.000000E+00
3.880000E+03	8.177090E-16	0.000000E+00
3.890000E+03	8.121006E-16	0.000000E+00
3.900000E+03	8.064715E-16	0.000000E+00
3.910000E+03	8.008275E-16	0.000000E+00
3.920000E+03	7.951746E-16	0.000000E+00
3.930000E+03	7.895179E-16	0.000000E+00
3.940000E+03	7.838627E-16	0.000000E+00
3.950000E+03	7.782209E-16	0.000000E+00
3.960000E+03	7.725967E-16	0.000000E+00
3.970000E+03	7.669875E-16	0.000000E+00
3.980000E+03	7.614108E-16	0.000000E+00
3.990000E+03	7.558634E-16	0.000000E+00
4.000000E+03	7.503550E-16	0.000000E+00
4.010000E+03	7.448888E-16	0.000000E+00
4.020000E+03	7.394608E-16	0.000000E+00
4.030000E+03	7.340865E-16	0.000000E+00
4.040000E+03	7.287617E-16	0.000000E+00
4.050000E+03	7.234947E-16	0.000000E+00
4.060000E+03	7.182873E-16	0.000000E+00
4.070000E+03	7.131409E-16	0.000000E+00
4.080000E+03	7.080568E-16	0.000000E+00
4.090000E+03	7.030423E-16	0.000000E+00
4.100000E+03	6.980922E-16	0.000000E+00
4.110000E+03	6.932072E-16	0.000000E+00
4.120000E+03	6.884001E-16	0.000000E+00
4.130000E+03	6.836591E-16	0.000000E+00
4.140000E+03	6.789905E-16	0.000000E+00
4.150000E+03	6.743945E-16	0.000000E+00
4.160000E+03	6.698710E-16	0.000000E+00
4.170000E+03	6.654199E-16	0.000000E+00
4.180000E+03	6.610408E-16	0.000000E+00
4.190000E+03	6.567336E-16	0.000000E+00
4.200000E+03	6.524976E-16	0.000000E+00
4.210000E+03	6.483322E-16	0.000000E+00
4.220000E+03	6.442367E-16	0.000000E+00
4.230000E+03	6.402048E-16	0.000000E+00
4.240000E+03	6.362355E-16	0.000000E+00
4.250000E+03	6.323336E-16	0.000000E+00
4.260000E+03	6.284979E-16	0.000000E+00
4.270000E+03	6.247162E-16	0.000000E+00
4.280000E+03	6.209930E-16	0.000000E+00
4.290000E+03	6.173269E-16	0.000000E+00
4.300000E+03	6.137164E-16	0.000000E+00
4.310000E+03	6.101601E-16	0.000000E+00
4.320000E+03	6.066511E-16	0.000000E+00
4.330000E+03	6.031984E-16	0.000000E+00
4.340000E+03	5.997896E-16	0.000000E+00
4.350000E+03	5.964335E-16	0.000000E+00
4.360000E+03	5.931280E-16	0.000000E+00
4.370000E+03	5.898765E-16	0.000000E+00
4.380000E+03	5.866767E-16	0.000000E+00
4.390000E+03	5.835316E-16	0.000000E+00
4.400000E+03	5.804387E-16	0.000000E+00
4.410000E+03	5.774062E-16	0.000000E+00
4.420000E+03	5.744313E-16	0.000000E+00
4.430000E+03	5.715116E-16	0.000000E+00
4.440000E+03	5.686546E-16	0.000000E+00
4.450000E+03	5.658575E-16	0.000000E+00
4.460000E+03	5.631227E-16	0.000000E+00
4.470000E+03	5.604576E-16	0.000000E+00
4.480000E+03	5.578539E-16	0.000000E+00
4.490000E+03	5.553190E-16	0.000000E+00
4.500000E+03	5.528549E-16	0.000000E+00
4.510000E+03	5.504585E-16	0.000000E+00
4.520000E+03	5.481317E-16	0.000000E+00
4.530000E+03	5.458766E-16	0.000000E+00
4.540000E+03	5.436948E-16	0.000000E+00
4.550000E+03	5.415884E-16	0.000000E+00
4.560000E+03	5.395540E-16	0.000000E+00
4.570000E+03	5.375885E-16	0.000000E+00
4.580000E+03	5.357036E-16	0.000000E+00
4.590000E+03	5.338910E-16	0.000000E+00
4.600000E+03	5.321475E-16	0.000000E+00
4.610000E+03	5.304798E-16	0.000000E+00
4.620000E+03	5.288897E-16	0.000000E+00
4.630000E+03	5.273638E-16	0.000000E+00
4.640000E+03	5.259189E-16	0.000000E+00
4.650000E+03	5.245367E-16	0.000000E+00
4.660000E+03	5.232289E-16	0.000000E+00
4.670000E+03	5.219925E-16	0.000000E+00
4.680000E+03	5.208242E-16	0.000000E+00
4.690000E+03	5.197208E-16	0.000000E+00
4.700000E+03	5.186793E-16	0.000000E+00
4.710000E+03	5.177067E-16	0.000000E+00
4.720000E+03	5.167953E-16	0.000000E+00
4.730000E+03	5.159423E-16	0.000000E+00
4.740000E+03	5.151501E-16	0.000000E+00
4.750000E+03	5.144064E-16	0.000000E+00
4.760000E+03	5.137245E-16	0.000000E+00
4.770000E+03	5.130872E-16	0.000000E+00
4.780000E+03	5.125038E-16	0.000000E+00
4.790000E+03	5.119737E-16	0.000000E+00
4.800000E+03	5.114866E-16	0.000000E+00
4.810000E+03	5.110487E-16	0.000000E+00
4.820000E+03	5.106672E-16	0.000000E+00
4.830000E+03	5.103349E-16	0.000000E+00
4.840000E+03	5.100616E-16	0.000000E+00
4.850000E+03	5.098536E-16	0.000000E+00
4.860000E+03	5.097134E-16	0.000000E+00
4.870000E+03	5.096491E-16	0.000000E+00
4.880000E+03	5.096657E-16	0.000000E+00
4.890000E+03	5.097483E-16	0.000000E+00
4.900000E+03	5.098902E-16	0.000000E+00
4.910000E+03	5.100710E-16	0.000000E+00
4.920000E+03	5.102875E-16	0.000000E+00
4.930000E+03	5.105327E-16	0.000000E+00
4.940000E+03	5.107957E-16	0.000000E+00
4.950000E+03	5.110771E-16	0.000000E+00
4.960000E+03	5.113679E-16	0.000000E+00
4.970000E+03	5.116706E-16	0.000000E+00
4.980000E+03	5.119775E-16	0.000000E+00
4.990000E+03	5.122867E-16	0.000000E+00
5.000000E+03	5.125916E-16	0.000000E+00
5.010000E+03	5.129017E-16	0.000000E+00
5.020000E+03	5.132055E-16	0.000000E+00
5.030000E+03	5.135024E-16	0.000000E+00
5.040000E+03	5.137973E-16	0.000000E+00
5.050000E+03	5.140846E-16	0.000000E+00
5.060000E+03	5.143641E-16	0.000000E+00
5.070000E+03	5.146355E-16	0.000000E+00
5.080000E+03	5.148990E-16	0.000000E+00
5.090000E+03	5.151491E-16	0.000000E+00
5.100000E+03	5.153859E-16	0.000000E+00
5.110000E+03	5.156147E-16	0.000000E+00
5.120000E+03	5.158251E-16	0.000000E+00
5.130000E+03	5.160278E-16	0.000000E+00
5.140000E+03	5.162069E-16	0.000000E+00
5.150000E+03	5.163731E-16	0.000000E+00
5.160000E+03	5.165214E-16	0.000000E+00
5.170000E+03	5.166520E-16	0.000000E+00
5.180000E+03	5.167648E-16	0.000000E+00
5.190000E+03	5.168549E-16	0.000000E+00
5.200000E+03	5.169225E-16	0.000000E+00
5.210000E+03	5.169623E-16	0.000000E+00
5.220000E+03	5.169854E-16	0.000000E+00
5.230000E+03	5.169759E-16	0.000000E+00
5.240000E+03	5.169395E-16	0.000000E+00
5.250000E+03	5.168764E-16	0.000000E+00
5.260000E+03	5.167870E-16	0.000000E+00
5.270000E+03	5.166610E-16	0.000000E+00
5.280000E+03	5.165039E-16	0.000000E+00
5.290000E+03	5.163109E-16	0.000000E+00
5.300000E+03	5.160825E-16	0.000000E+00
5.310000E+03	5.158138E-16	0.000000E+00
5.320000E+03	5.155105E-16	0.000000E+00
5.330000E+03	5.151627E-16	0.000000E+00
5.340000E+03	5.147708E-16	0.000000E+00
5.350000E+03	5.143304E-16	0.000000E+00
5.360000E+03	5.138473E-16	0.000000E+00
5.370000E+03	5.133064E-16	0.000000E+00
5.380000E+03	5.127138E-16	0.000000E+00
5.390000E+03	5.120651E-16	0.000000E+00
5.400000E+03	5.113560E-16	0.000000E+00
5.410000E+03	5.105719E-16	0.000000E+00
5.420000E+03	5.097089E-16	0.000000E+00
5.430000E+03	5.087627E-16	0.000000E+00
5.440000E+03	5.077091E-16	0.000000E+00
5.450000E+03	5.065445E-16	0.000000E+00
5.460000E+03	5.052499E-16	0.000000E+00
5.470000E+03	5.038169E-16	0.000000E+00
5.480000E+03	5.022624E-16	0.000000E+00
5.490000E+03	5.005830E-16	0.000000E+00
5.500000E+03	4.987955E-16	0.000000E+00
5.510000E+03	4.969068E-16	0.000000E+00
5.520000E+03	4.949384E-16	0.000000E+00
5.530000E+03	4.928870E-16	0.000000E+00
5.540000E+03	4.907641E-16	0.000000E+00
5.550000E+03	4.885711E-16	0.000000E+00
5.560000E+03	4.863246E-16	0.000000E+00
5.570000E+03	4.840210E-16	0.000000E+00
5.580000E+03	4.816667E-16	0.000000E+00
5.590000E+03	4.792631E-16	0.000000E+00
5.600000E+03	4.768216E-16	0.000000E+00
5.610000E+03	4.743385E-16	0.000000E+00
5.620000E+03	4.718201E-16	0.000000E+00
5.630000E+03	4.692725E-16	0.000000E+00
5.640000E+03	4.666972E-16	0.000000E+00
5.650000E+03	4.641000E-16	0.000000E+00
5.660000E+03	4.614776E-16	0.000000E+00
5.670000E+03	4.588358E-16	0.000000E+00
5.680000E+03	4.561805E-16	0.000000E+00
5.690000E+03	4.535130E-16	0.000000E+00
5.700000E+03	4.508342E-16	0.000000E+00
5.710000E+03	4.481453E-16	0.000000E+00
5.720000E+03	4.454565E-16	0.000000E+00
5.730000E+03	4.427596E-16	0.000000E+00
5.740000E+03	4.400646E-16	0.000000E+00
5.750000E+03	4.373727E-16	0.000000E+00
5.760000E+03	4.346796E-16	0.000000E+00
5.770000E+03	4.319911E-16	0.000000E+00
5.780000E+03	4.293125E-16	0.000000E+00
5.790000E+03	4.266397E-16	0.000000E+00
5.800000E+03	4.239734E-16	0.000000E+00
5.810000E+03	4.213234E-16	0.000000E+00
5.820000E+03	4.186810E-16	0.000000E+00
5.830000E+03	4.160514E-16	0.000000E+00
5.840000E+03	4.134348E-16	0.000000E+00
5.850000E+03	4.108319E-16	0.000000E+00
5.860000E+03	4.082473E-16	0.000000E+00
5.870000E+03	4.056724E-16	0.000000E+00
5.880000E+03	4.031164E-16	0.000000E+00
5.890000E+03	4.005750E-16	0.000000E+00
5.900000E+03	3.980486E-16	0.000000E+00
5.910000E+03	3.955371E-16	0.000000E+00
5.920000E+03	3.930405E-16	0.000000E+00
5.930000E+03	3.905635E-16	0.000000E+00
5.940000E+03	3.880972E-16	0.000000E+00
5.950000E+03	3.856414E-16	0.000000E+00
5.960000E+03	3.832005E-16	0.000000E+00
5.970000E+03	3.807746E-16	0.000000E+00
5.980000E+03	3.783544E-16	0.000000E+00
5.990000E+03	3.759488E-16	0.000000E+00
6.000000E+03	3.735442E-16	0.000000E+00
6.010000E+03	3.711537E-16	0.000000E+00
6.020000E+03	3.687638E-16	0.000000E+00
6.030000E+03	3.663742E-16	0.000000E+00
6.040000E+03	3.639891E-16	0.000000E+00
6.050000E+03	3.616037E-16	0.000000E+00
6.060000E+03	3.592177E-16	0.000000E+00
6.070000E+03	3.568222E-16	0.000000E+00
6.080000E+03	3.544253E-16	0.000000E+00
6.090000E+03	3.520138E-16	0.000000E+00
6.100000E+03	3.495959E-16	0.000000E+00
6.110000E+03	3.471670E-16	0.000000E+00
6.120000E+03	3.447224E-16	0.000000E+00
6.130000E+03	3.422619E-16	0.000000E+00
6.140000E+03	3.397891E-16	0.000000E+00
6.150000E+03	3.372996E-16	0.000000E+00
6.160000E+03	3.347932E-16	0.000000E+00
6.170000E+03	3.322777E-16	0.000000E+00
6.180000E+03	3.297446E-16	0.000000E+00
6.190000E+03	3.271978E-16	0.000000E+00
6.200000E+03	3.246414E-16	0.000000E+00
6.210000E+03	3.220791E-16	0.000000E+00
6.220000E+03	3.195068E-16	0.000000E+00
6.230000E+03	3.169246E-16	0.000000E+00
6.240000E+03	3.143363E-16	0.000000E+00
6.250000E+03	3.117384E-16	0.000000E+00
6.260000E+03	3.091348E-16	0.000000E+00
6.270000E+03	3.065263E-16	0.000000E+00
6.280000E+03	3.039170E-16	0.000000E+00
6.290000E+03	3.013078E-16	0.000000E+00
6.300000E+03	2.986993E-16	0.000000E+00
6.310000E+03	2.960964E-16	0.000000E+00
6.320000E+03	2.935040E-16	0.000000E+00
6.330000E+03	2.909196E-16	0.000000E+00
6.340000E+03	2.883482E-16	0.000000E+00
6.350000E+03	2.857953E-16	0.000000E+00
6.360000E+03	2.832586E-16	0.000000E+00
6.370000E+03	2.807478E-16	0.000000E+00
6.380000E+03	2.782648E-16	0.000000E+00
6.390000E+03	2.758113E-16	0.000000E+00
6.400000E+03	2.733893E-16	0.000000E+00
6.410000E+03	2.710082E-16	0.000000E+00
6.420000E+03	2.686654E-16	0.000000E+00
6.430000E+03	2.663693E-16	0.000000E+00
6.440000E+03	2.641201E-16	0.000000E+00
6.450000E+03	2.619165E-16	0.000000E+00
6.460000E+03	2.597607E-16	0.000000E+00
6.470000E+03	2.576502E-16	0.000000E+00
6.480000E+03	2.555856E-16	0.000000E+00
6.490000E+03	2.535559E-16	0.000000E+00
6.500000E+03	2.515656E-16	0.000000E+00
6.510000E+03	2.496114E-16	0.000000E+00
6.520000E+03	2.476862E-16	0.000000E+00
6.530000E+03	2.457910E-16	0.000000E+00
6.540000E+03	2.439234E-16	0.000000E+00
6.550000E+03	2.420809E-16	0.000000E+00
6.560000E+03	2.402615E-16	0.000000E+00
6.570000E+03	2.384674E-16	0.000000E+00
6.580000E+03	2.366931E-16	0.000000E+00
6.590000E+03	2.349372E-16	0.000000E+00
6.600000E+03	2.332025E-16	0.000000E+00
6.610000E+03	2.314881E-16	0.000000E+00
6.620000E+03	2.297893E-16	0.000000E+00
6.630000E+03	2.281093E-16	0.000000E+00
6.640000E+03	2.264438E-16	0.000000E+00
6.650000E+03	2.248001E-16	0.000000E+00
6.660000E+03	2.231703E-16	0.000000E+00
6.670000E+03	2.215543E-16	0.000000E+00
6.680000E+03	2.199556E-16	0.000000E+00
6.690000E+03	2.183745E-16	0.000000E+00
6.700000E+03	2.168071E-16	0.000000E+00
6.710000E+03	2.152535E-16	0.000000E+00
6.720000E+03	2.137176E-16	0.000000E+00
6.730000E+03	2.121960E-16	0.000000E+00
6.740000E+03	2.106927E-16	0.000000E+00
6.750000E+03	2.092003E-16	0.000000E+00
6.760000E+03	2.077267E-16	0.000000E+00
6.770000E+03	2.062646E-16	0.000000E+00
6.780000E+03	2.048220E-16	0.000000E+00
6.790000E+03	2.033917E-16	0.000000E+00
6.800000E+03	2.019778E-16	0.000000E+00
6.810000E+03	2.005805E-16	0.000000E+00
6.820000E+03	1.991967E-16	0.000000E+00
6.830000E+03	1.978303E-16	0.000000E+00
6.840000E+03	1.964780E-16	0.000000E+00
6.850000E+03	1.951438E-16	0.000000E+00
6.860000E+03	1.938209E-16	0.000000E+00
6.870000E+03	1.925169E-16	0.000000E+00
6.880000E+03	1.912283E-16	0.000000E+00
6.890000E+03	1.899557E-16	0.000000E+00
6.900000E+03	1.886957E-16	0.000000E+00
6.910000E+03	1.874559E-16	0.000000E+00
6.920000E+03	1.862258E-16	0.000000E+00
6.930000E+03	1.850165E-16	0.000000E+00
6.940000E+03	1.838211E-16	0.000000E+00
6.950000E+03	1.826400E-16	0.000000E+00
6.960000E+03	1.814770E-16	0.000000E+00
6.970000E+03	1.803288E-16	0.000000E+00
6.980000E+03	1.791959E-16	0.000000E+00
6.990000E+03	1.780782E-16	0.000000E+00
7.000000E+03	1.769763E-16	0.000000E+00
7.010000E+03	1.758902E-16	0.000000E+00
7.020000E+03	1.748170E-16	0.000000E+00
7.030000E+03	1.737636E-16	0.000000E+00
7.040000E+03	1.727200E-16	0.000000E+00
7.050000E+03	1.716968E-16	0.000000E+00
7.060000E+03	1.706840E-16	0.000000E+00
7.070000E+03	1.696885E-16	0.000000E+00
7.080000E+03	1.687072E-16	0.000000E+00
7.090000E+03	1.677404E-16	0.000000E+00
7.100000E+03	1.667916E-16	0.000000E+00
7.110000E+03	1.658544E-16	0.000000E+00
7.120000E+03	1.649324E-16	0.000000E+00
7.130000E+03	1.640224E-16	0.000000E+00
7.140000E+03	1.631280E-16	0.000000E+00
7.150000E+03	1.622494E-16	0.000000E+00
7.160000E+03	1.613836E-16	0.000000E+00
7.170000E+03	1.605340E-16	0.000000E+00
7.180000E+03	1.596944E-16	0.000000E+00
7.190000E+03	1.588714E-16	0.000000E+00
7.200000E+03	1.580622E-16	0.000000E+00
7.210000E+03	1.572636E-16	0.000000E+00
7.220000E+03	1.564792E-16	0.000000E+00
7.230000E+03	1.557092E-16	0.000000E+00
7.240000E+03	1.549505E-16	0.000000E+00
7.250000E+03	1.542036E-16	0.000000E+00
7.260000E+03	1.534687E-16	0.000000E+00
7.270000E+03	1.527459E-16	0.000000E+00
7.280000E+03	1.520356E-16	0.000000E+00
7.290000E+03	1.513316E-16	0.000000E+00
7.300000E+03	1.506407E-16	0.000000E+00
7.310000E+03	1.499598E-16	0.000000E+00
7.320000E+03	1.492861E-16	0.000000E+00
7.330000E+03	1.486231E-16	0.000000E+00
7.340000E+03	1.479648E-16	0.000000E+00
7.350000E+03	1.473114E-16	0.000000E+00
7.360000E+03	1.466633E-16	0.000000E+00
7.370000E+03	1.460178E-16	0.000000E+00
7.380000E+03	1.453779E-16	0.000000E+00
7.390000E+03	1.447350E-16	0.000000E+00
7.400000E+03	1.440955E-16	0.000000E+00
7.410000E+03	1.434533E-16	0.000000E+00
7.420000E+03	1.428120E-16	0.000000E+00
7.430000E+03	1.421685E-16	0.000000E+00
7.440000E+03	1.415233E-16	0.000000E+00
7.450000E+03	1.408795E-16	0.000000E+00
7.460000E+03	1.402343E-16	0.000000E+00
7.470000E+03	1.395968E-16	0.000000E+00
7.480000E+03	1.389611E-16	0.000000E+00
7.490000E+03	1.383334E-16	0.000000E+00
7.500000E+03	1.377108E-16	0.000000E+00
7.510000E+03	1.371020E-16	0.000000E+00
7.520000E+03	1.365042E-16	0.000000E+00
7.530000E+03	1.359174E-16	0.000000E+00
7.540000E+03	1.353445E-16	0.000000E+00
7.550000E+03	1.347854E-16	0.000000E+00
7.560000E+03	1.342460E-16	0.000000E+00
7.570000E+03	1.337202E-16	0.000000E+00
7.580000E+03	1.332108E-16	0.000000E+00
7.590000E+03	1.327207E-16	0.000000E+00
7.600000E+03	1.322468E-16	0.000000E+00
7.610000E+03	1.317918E-16	0.000000E+00
7.620000E+03	1.313526E-16	0.000000E+00
7.630000E+03	1.309350E-16	0.000000E+00
7.640000E+03	1.305328E-16	0.000000E+00
7.650000E+03	1.301518E-16	0.000000E+00
7.660000E+03	1.297857E-16	0.000000E+00
7.670000E+03	1.294403E-16	0.000000E+00
7.680000E+03	1.291096E-16	0.000000E+00
7.690000E+03	1.287991E-16	0.000000E+00
7.700000E+03	1.285057E-16	0.000000E+00
7.710000E+03	1.282291E-16	0.000000E+00
7.720000E+03	1.279692E-16	0.000000E+00
7.730000E+03	1.277256E-16	0.000000E+00
7.740000E+03	1.274983E-16	0.000000E+00
7.750000E+03	1.272838E-16	0.000000E+00
7.760000E+03	1.270882E-16	0.000000E+00
