#wls	flux	fluxerr
1.600000E+03	2.290040E-16	4.360008E-18
1.640000E+03	2.422200E-16	4.607006E-18
1.680000E+03	2.565362E-16	4.874284E-18
1.720000E+03	2.720288E-16	5.163205E-18
1.760000E+03	2.888021E-16	5.475649E-18
1.800000E+03	3.069377E-16	5.813059E-18
1.840000E+03	3.265718E-16	6.177894E-18
1.880000E+03	3.478182E-16	6.572181E-18
1.920000E+03	3.707647E-16	6.997432E-18
1.960000E+03	3.954965E-16	7.455105E-18
2.000000E+03	4.220953E-16	7.946571E-18
2.040000E+03	4.506672E-16	8.473649E-18
2.080000E+03	4.811599E-16	9.035169E-18
2.120000E+03	5.135942E-16	9.631327E-18
2.160000E+03	5.479122E-16	1.026084E-17
2.200000E+03	5.839013E-16	1.091952E-17
2.240000E+03	6.214808E-16	1.160567E-17
2.280000E+03	6.604767E-16	1.231586E-17
2.320000E+03	7.008563E-16	1.304929E-17
2.360000E+03	7.426355E-16	1.380608E-17
2.400000E+03	7.858808E-16	1.458725E-17
2.440000E+03	8.307475E-16	1.539550E-17
2.480000E+03	8.772238E-16	1.623037E-17
2.520000E+03	9.253765E-16	1.709287E-17
2.560000E+03	9.752013E-16	1.798269E-17
2.600000E+03	1.026539E-15	1.889666E-17
2.640000E+03	1.079220E-15	1.983140E-17
2.680000E+03	1.132943E-15	2.078121E-17
2.720000E+03	1.187396E-15	2.174015E-17
2.760000E+03	1.242126E-15	2.269980E-17
2.800000E+03	1.296639E-15	2.365101E-17
2.840000E+03	1.350348E-15	2.458304E-17
2.880000E+03	1.402779E-15	2.548729E-17
2.920000E+03	1.453390E-15	2.635399E-17
2.960000E+03	1.501618E-15	2.717306E-17
3.000000E+03	1.547069E-15	2.793762E-17
3.010000E+03	1.557959E-15	2.811956E-17
3.020000E+03	1.568631E-15	2.829732E-17
3.030000E+03	1.579072E-15	2.847066E-17
3.040000E+03	1.589309E-15	2.864009E-17
3.050000E+03	1.599330E-15	2.880535E-17
3.060000E+03	1.609122E-15	2.896627E-17
3.070000E+03	1.618677E-15	2.912267E-17
3.080000E+03	1.627982E-15	2.927436E-17
3.090000E+03	1.637029E-15	2.942117E-17
3.100000E+03	1.645841E-15	2.956354E-17
3.110000E+03	1.654407E-15	2.970126E-17
3.120000E+03	1.662684E-15	2.983359E-17
3.130000E+03	1.670728E-15	2.996153E-17
3.140000E+03	1.678466E-15	3.008377E-17
3.150000E+03	1.685921E-15	3.020074E-17
3.160000E+03	1.693115E-15	3.031284E-17
3.170000E+03	1.700009E-15	3.041938E-17
3.180000E+03	1.706625E-15	3.052078E-17
3.190000E+03	1.712926E-15	3.061635E-17
3.200000E+03	1.718934E-15	3.070652E-17
3.210000E+03	1.724643E-15	3.079118E-17
3.220000E+03	1.730015E-15	3.086966E-17
3.230000E+03	1.735076E-15	3.094244E-17
3.240000E+03	1.739819E-15	3.100942E-17
3.250000E+03	1.744240E-15	3.107049E-17
3.260000E+03	1.748333E-15	3.112562E-17
3.270000E+03	1.752096E-15	3.117473E-17
3.280000E+03	1.755524E-15	3.121777E-17
3.290000E+03	1.758587E-15	3.125419E-17
3.300000E+03	1.761338E-15	3.128498E-17
3.310000E+03	1.763721E-15	3.130914E-17
3.320000E+03	1.765763E-15	3.132714E-17
3.330000E+03	1.767435E-15	3.133852E-17
3.340000E+03	1.768767E-15	3.134379E-17
3.350000E+03	1.769758E-15	3.134295E-17
3.360000E+03	1.770359E-15	3.133515E-17
3.370000E+03	1.770625E-15	3.132136E-17
3.380000E+03	1.770506E-15	3.130074E-17
3.390000E+03	1.770036E-15	3.127387E-17
3.400000E+03	1.769217E-15	3.124082E-17
3.410000E+03	1.768006E-15	3.120083E-17
3.420000E+03	1.766460E-15	3.115493E-17
3.430000E+03	1.764537E-15	3.110237E-17
3.440000E+03	1.762247E-15	3.104335E-17
3.450000E+03	1.759600E-15	3.097807E-17
3.460000E+03	1.756581E-15	3.090627E-17
3.470000E+03	1.753225E-15	3.082858E-17
3.480000E+03	1.749498E-15	3.074441E-17
3.490000E+03	1.745414E-15	3.065402E-17
3.500000E+03	1.740965E-15	3.055728E-17
3.510000E+03	1.736186E-15	3.045484E-17
3.520000E+03	1.731050E-15	3.034620E-17
3.530000E+03	1.725552E-15	3.023130E-17
3.540000E+03	1.719731E-15	3.011085E-17
3.550000E+03	1.713540E-15	2.998404E-17
3.560000E+03	1.707002E-15	2.985125E-17
3.570000E+03	1.700135E-15	2.971285E-17
3.580000E+03	1.692919E-15	2.956847E-17
3.590000E+03	1.685377E-15	2.941854E-17
3.600000E+03	1.677491E-15	2.926277E-17
3.610000E+03	1.669267E-15	2.910125E-17
3.620000E+03	1.660728E-15	2.893440E-17
3.630000E+03	1.651841E-15	2.876168E-17
3.640000E+03	1.642651E-15	2.858386E-17
3.650000E+03	1.633148E-15	2.840077E-17
3.660000E+03	1.623336E-15	2.821253E-17
3.670000E+03	1.613211E-15	2.801906E-17
3.680000E+03	1.602798E-15	2.782079E-17
3.690000E+03	1.592106E-15	2.761791E-17
3.700000E+03	1.581130E-15	2.741032E-17
3.710000E+03	1.569894E-15	2.719847E-17
3.720000E+03	1.558411E-15	2.698259E-17
3.730000E+03	1.546674E-15	2.676257E-17
3.740000E+03	1.534740E-15	2.653940E-17
3.750000E+03	1.522591E-15	2.631275E-17
3.760000E+03	1.510248E-15	2.608305E-17
3.770000E+03	1.497752E-15	2.585095E-17
3.780000E+03	1.485083E-15	2.561616E-17
3.790000E+03	1.472292E-15	2.537954E-17
3.800000E+03	1.459373E-15	2.514102E-17
3.810000E+03	1.446360E-15	2.490116E-17
3.820000E+03	1.433276E-15	2.466038E-17
3.830000E+03	1.420124E-15	2.441871E-17
3.840000E+03	1.406925E-15	2.417653E-17
3.850000E+03	1.393707E-15	2.393433E-17
3.860000E+03	1.380476E-15	2.369221E-17
3.870000E+03	1.367259E-15	2.345063E-17
3.880000E+03	1.354059E-15	2.320964E-17
3.890000E+03	1.340901E-15	2.296967E-17
3.900000E+03	1.327799E-15	2.273098E-17
3.910000E+03	1.314764E-15	2.249373E-17
3.920000E+03	1.301820E-15	2.225833E-17
3.930000E+03	1.288963E-15	2.202473E-17
3.940000E+03	1.276217E-15	2.179331E-17
3.950000E+03	1.263599E-15	2.156438E-17
3.960000E+03	1.251096E-15	2.133770E-17
3.970000E+03	1.238748E-15	2.111396E-17
3.980000E+03	1.226548E-15	2.089303E-17
3.990000E+03	1.214503E-15	2.067503E-17
4.000000E+03	1.202629E-15	2.046023E-17
4.010000E+03	1.190919E-15	2.024849E-17
4.020000E+03	1.179397E-15	2.004022E-17
4.030000E+03	1.168066E-15	1.983549E-17
4.040000E+03	1.156928E-15	1.963429E-17
4.050000E+03	1.145975E-15	1.943650E-17
4.060000E+03	1.135229E-15	1.924249E-17
4.070000E+03	1.124690E-15	1.905224E-17
4.080000E+03	1.114360E-15	1.886579E-17
4.090000E+03	1.104237E-15	1.868309E-17
4.100000E+03	1.094323E-15	1.850417E-17
4.110000E+03	1.084625E-15	1.832915E-17
4.120000E+03	1.075134E-15	1.815787E-17
4.130000E+03	1.065858E-15	1.799044E-17
4.140000E+03	1.056795E-15	1.782686E-17
4.150000E+03	1.047945E-15	1.766708E-17
4.160000E+03	1.039304E-15	1.751107E-17
4.170000E+03	1.030873E-15	1.735879E-17
4.180000E+03	1.022656E-15	1.721034E-17
4.190000E+03	1.014634E-15	1.706539E-17
4.200000E+03	1.006815E-15	1.692405E-17
4.210000E+03	9.992031E-16	1.678640E-17
4.220000E+03	9.917795E-16	1.665211E-17
4.230000E+03	9.845499E-16	1.652128E-17
4.240000E+03	9.775031E-16	1.639370E-17
4.250000E+03	9.706445E-16	1.626948E-17
4.260000E+03	9.639629E-16	1.614840E-17
4.270000E+03	9.574471E-16	1.603029E-17
4.280000E+03	9.511103E-16	1.591535E-17
4.290000E+03	9.449250E-16	1.580313E-17
4.300000E+03	9.389042E-16	1.569383E-17
4.310000E+03	9.330363E-16	1.558726E-17
4.320000E+03	9.273179E-16	1.548336E-17
4.330000E+03	9.217377E-16	1.538194E-17
4.340000E+03	9.162999E-16	1.528305E-17
4.350000E+03	9.110007E-16	1.518665E-17
4.360000E+03	9.058284E-16	1.509251E-17
4.370000E+03	9.008025E-16	1.500098E-17
4.380000E+03	8.959110E-16	1.491184E-17
4.390000E+03	8.911651E-16	1.482528E-17
4.400000E+03	8.865605E-16	1.474123E-17
4.410000E+03	8.821078E-16	1.465985E-17
4.420000E+03	8.777947E-16	1.458094E-17
4.430000E+03	8.736395E-16	1.450480E-17
4.440000E+03	8.696374E-16	1.443134E-17
4.450000E+03	8.657832E-16	1.436048E-17
4.460000E+03	8.620951E-16	1.429252E-17
4.470000E+03	8.585677E-16	1.422736E-17
4.480000E+03	8.552038E-16	1.416505E-17
4.490000E+03	8.520056E-16	1.410561E-17
4.500000E+03	8.489756E-16	1.404910E-17
4.510000E+03	8.461084E-16	1.399541E-17
4.520000E+03	8.434138E-16	1.394470E-17
4.530000E+03	8.408943E-16	1.389701E-17
4.540000E+03	8.385444E-16	1.385226E-17
4.550000E+03	8.363585E-16	1.381033E-17
4.560000E+03	8.343466E-16	1.377140E-17
4.570000E+03	8.325105E-16	1.373550E-17
4.580000E+03	8.308370E-16	1.370240E-17
4.590000E+03	8.293433E-16	1.367238E-17
4.600000E+03	8.280083E-16	1.364509E-17
4.610000E+03	8.268412E-16	1.362069E-17
4.620000E+03	8.258436E-16	1.359920E-17
4.630000E+03	8.250093E-16	1.358050E-17
4.640000E+03	8.243395E-16	1.356464E-17
4.650000E+03	8.238195E-16	1.355135E-17
4.660000E+03	8.234658E-16	1.354090E-17
4.670000E+03	8.232555E-16	1.353293E-17
4.680000E+03	8.231963E-16	1.352756E-17
4.690000E+03	8.232803E-16	1.352465E-17
4.700000E+03	8.235067E-16	1.352419E-17
4.710000E+03	8.238587E-16	1.352591E-17
4.720000E+03	8.243344E-16	1.352978E-17
4.730000E+03	8.249157E-16	1.353549E-17
4.740000E+03	8.256076E-16	1.354313E-17
4.750000E+03	8.263826E-16	1.355225E-17
4.760000E+03	8.272361E-16	1.356278E-17
4.770000E+03	8.281552E-16	1.357450E-17
4.780000E+03	8.291179E-16	1.358706E-17
4.790000E+03	8.301180E-16	1.360036E-17
4.800000E+03	8.311325E-16	1.361401E-17
4.810000E+03	8.321457E-16	1.362777E-17
4.820000E+03	8.331427E-16	1.364140E-17
4.830000E+03	8.341083E-16	1.365464E-17
4.840000E+03	8.350199E-16	1.366713E-17
4.850000E+03	8.358816E-16	1.367894E-17
4.860000E+03	8.366575E-16	1.368948E-17
4.870000E+03	8.373562E-16	1.369889E-17
4.880000E+03	8.379646E-16	1.370697E-17
4.890000E+03	8.384897E-16	1.371381E-17
4.900000E+03	8.389158E-16	1.371916E-17
4.910000E+03	8.392552E-16	1.372323E-17
4.920000E+03	8.395132E-16	1.372610E-17
4.930000E+03	8.396882E-16	1.372774E-17
4.940000E+03	8.397958E-16	1.372841E-17
4.950000E+03	8.398349E-16	1.372808E-17
4.960000E+03	8.398214E-16	1.372703E-17
4.970000E+03	8.397455E-16	1.372507E-17
4.980000E+03	8.396306E-16	1.372261E-17
4.990000E+03	8.394660E-16	1.371945E-17
5.000000E+03	8.392656E-16	1.371583E-17
5.010000E+03	8.390257E-16	1.371169E-17
5.020000E+03	8.387594E-16	1.370723E-17
5.030000E+03	8.384703E-16	1.370251E-17
5.040000E+03	8.381447E-16	1.369731E-17
5.050000E+03	8.377936E-16	1.369181E-17
5.060000E+03	8.374196E-16	1.368605E-17
5.070000E+03	8.370243E-16	1.368005E-17
5.080000E+03	8.365923E-16	1.367356E-17
5.090000E+03	8.361418E-16	1.366687E-17
5.100000E+03	8.356736E-16	1.366000E-17
5.110000E+03	8.351631E-16	1.365254E-17
5.120000E+03	8.346361E-16	1.364492E-17
5.130000E+03	8.340758E-16	1.363685E-17
5.140000E+03	8.334827E-16	1.362834E-17
5.150000E+03	8.328565E-16	1.361940E-17
5.160000E+03	8.321891E-16	1.360987E-17
5.170000E+03	8.314887E-16	1.359990E-17
5.180000E+03	8.307468E-16	1.358934E-17
5.190000E+03	8.299633E-16	1.357820E-17
5.200000E+03	8.291380E-16	1.356646E-17
5.210000E+03	8.282542E-16	1.355385E-17
5.220000E+03	8.273285E-16	1.354064E-17
5.230000E+03	8.263526E-16	1.352670E-17
5.240000E+03	8.253182E-16	1.351188E-17
5.250000E+03	8.242254E-16	1.349618E-17
5.260000E+03	8.230745E-16	1.347962E-17
5.270000E+03	8.218575E-16	1.346204E-17
5.280000E+03	8.205832E-16	1.344361E-17
5.290000E+03	8.192353E-16	1.342404E-17
5.300000E+03	8.178231E-16	1.340349E-17
5.310000E+03	8.163306E-16	1.338169E-17
5.320000E+03	8.147670E-16	1.335880E-17
5.330000E+03	8.131253E-16	1.333469E-17
5.340000E+03	8.114064E-16	1.330938E-17
5.350000E+03	8.096118E-16	1.328289E-17
5.360000E+03	8.077264E-16	1.325496E-17
5.370000E+03	8.057601E-16	1.322577E-17
5.380000E+03	8.037064E-16	1.319520E-17
5.390000E+03	8.015671E-16	1.316328E-17
5.400000E+03	7.993283E-16	1.312977E-17
5.410000E+03	7.970080E-16	1.309497E-17
5.420000E+03	7.945844E-16	1.305852E-17
5.430000E+03	7.920602E-16	1.302046E-17
5.440000E+03	7.894378E-16	1.298083E-17
5.450000E+03	7.866805E-16	1.293902E-17
5.460000E+03	7.837523E-16	1.289443E-17
5.470000E+03	7.806179E-16	1.284648E-17
5.480000E+03	7.773124E-16	1.279575E-17
5.490000E+03	7.738630E-16	1.274267E-17
5.500000E+03	7.702814E-16	1.268744E-17
5.510000E+03	7.665787E-16	1.263024E-17
5.520000E+03	7.627666E-16	1.257125E-17
5.530000E+03	7.588409E-16	1.251041E-17
5.540000E+03	7.548282E-16	1.244814E-17
5.550000E+03	7.507246E-16	1.238438E-17
5.560000E+03	7.465338E-16	1.231919E-17
5.570000E+03	7.422744E-16	1.225288E-17
5.580000E+03	7.379425E-16	1.218537E-17
5.590000E+03	7.335492E-16	1.211685E-17
5.600000E+03	7.291055E-16	1.204749E-17
5.610000E+03	7.246146E-16	1.197736E-17
5.620000E+03	7.200875E-16	1.190661E-17
5.630000E+03	7.155275E-16	1.183532E-17
5.640000E+03	7.109378E-16	1.176352E-17
5.650000E+03	7.063288E-16	1.169140E-17
5.660000E+03	7.016966E-16	1.161888E-17
5.670000E+03	6.970659E-16	1.154637E-17
5.680000E+03	6.924252E-16	1.147368E-17
5.690000E+03	6.877917E-16	1.140109E-17
5.700000E+03	6.831682E-16	1.132865E-17
5.710000E+03	6.785504E-16	1.125628E-17
5.720000E+03	6.739551E-16	1.118427E-17
5.730000E+03	6.693778E-16	1.111254E-17
5.740000E+03	6.648279E-16	1.104124E-17
5.750000E+03	6.603079E-16	1.097041E-17
5.760000E+03	6.558269E-16	1.090021E-17
5.770000E+03	6.513803E-16	1.083056E-17
5.780000E+03	6.469840E-16	1.076171E-17
5.790000E+03	6.426260E-16	1.069348E-17
5.800000E+03	6.383154E-16	1.062602E-17
5.810000E+03	6.340608E-16	1.055946E-17
5.820000E+03	6.298638E-16	1.049383E-17
5.830000E+03	6.257192E-16	1.042905E-17
5.840000E+03	6.216355E-16	1.036526E-17
5.850000E+03	6.176209E-16	1.030260E-17
5.860000E+03	6.136630E-16	1.024085E-17
5.870000E+03	6.097700E-16	1.018016E-17
5.880000E+03	6.059498E-16	1.012067E-17
5.890000E+03	6.021898E-16	1.006215E-17
5.900000E+03	5.985046E-16	1.000485E-17
5.910000E+03	5.948949E-16	9.948796E-18
5.920000E+03	5.913481E-16	9.893765E-18
5.930000E+03	5.878716E-16	9.839886E-18
5.940000E+03	5.844724E-16	9.787277E-18
5.950000E+03	5.811378E-16	9.735726E-18
5.960000E+03	5.778747E-16	9.685349E-18
5.970000E+03	5.746833E-16	9.636151E-18
5.980000E+03	5.715570E-16	9.588022E-18
5.990000E+03	5.684957E-16	9.540963E-18
6.000000E+03	5.654992E-16	9.494968E-18
6.010000E+03	5.625607E-16	9.449926E-18
6.020000E+03	5.596864E-16	9.405940E-18
6.030000E+03	5.568687E-16	9.362887E-18
6.040000E+03	5.541071E-16	9.320757E-18
6.050000E+03	5.513875E-16	9.279314E-18
6.060000E+03	5.487218E-16	9.238759E-18
6.070000E+03	5.460893E-16	9.198743E-18
6.080000E+03	5.435013E-16	9.159459E-18
6.090000E+03	5.409367E-16	9.120550E-18
6.100000E+03	5.384067E-16	9.082206E-18
6.110000E+03	5.358896E-16	9.044061E-18
6.120000E+03	5.333896E-16	9.006187E-18
6.130000E+03	5.309043E-16	8.968541E-18
6.140000E+03	5.284242E-16	8.930965E-18
6.150000E+03	5.259402E-16	8.893303E-18
6.160000E+03	5.234552E-16	8.855604E-18
6.170000E+03	5.209659E-16	8.817813E-18
6.180000E+03	5.184687E-16	8.779869E-18
6.190000E+03	5.159596E-16	8.741701E-18
6.200000E+03	5.134477E-16	8.703464E-18
6.210000E+03	5.109348E-16	8.665189E-18
6.220000E+03	5.084037E-16	8.626584E-18
6.230000E+03	5.058626E-16	8.587786E-18
6.240000E+03	5.033001E-16	8.548603E-18
6.250000E+03	5.007113E-16	8.508947E-18
6.260000E+03	4.981038E-16	8.468951E-18
6.270000E+03	4.954724E-16	8.428520E-18
6.280000E+03	4.928178E-16	8.387672E-18
6.290000E+03	4.901345E-16	8.346308E-18
6.300000E+03	4.874166E-16	8.304326E-18
6.310000E+03	4.846777E-16	8.261959E-18
6.320000E+03	4.818987E-16	8.218879E-18
6.330000E+03	4.790865E-16	8.175200E-18
6.340000E+03	4.762281E-16	8.130701E-18
6.350000E+03	4.733304E-16	8.085495E-18
6.360000E+03	4.703801E-16	8.039355E-18
6.370000E+03	4.673773E-16	7.992282E-18
6.380000E+03	4.643221E-16	7.944272E-18
6.390000E+03	4.611948E-16	7.894987E-18
6.400000E+03	4.580027E-16	7.844549E-18
6.410000E+03	4.547400E-16	7.792856E-18
6.420000E+03	4.514018E-16	7.739823E-18
6.430000E+03	4.479914E-16	7.685502E-18
6.440000E+03	4.445137E-16	7.629973E-18
6.450000E+03	4.409753E-16	7.573351E-18
6.460000E+03	4.373787E-16	7.515672E-18
6.470000E+03	4.337277E-16	7.457003E-18
6.480000E+03	4.300342E-16	7.397544E-18
6.490000E+03	4.262907E-16	7.337165E-18
6.500000E+03	4.225167E-16	7.276199E-18
6.510000E+03	4.187180E-16	7.214745E-18
6.520000E+03	4.149007E-16	7.152907E-18
6.530000E+03	4.110701E-16	7.090777E-18
6.540000E+03	4.072320E-16	7.028450E-18
6.550000E+03	4.033976E-16	6.966120E-18
6.560000E+03	3.995649E-16	6.903756E-18
6.570000E+03	3.957451E-16	6.841546E-18
6.580000E+03	3.919418E-16	6.779555E-18
6.590000E+03	3.881528E-16	6.717743E-18
6.600000E+03	3.843876E-16	6.656275E-18
6.610000E+03	3.806495E-16	6.595210E-18
6.620000E+03	3.769413E-16	6.534597E-18
6.630000E+03	3.732661E-16	6.474487E-18
6.640000E+03	3.696260E-16	6.414921E-18
6.650000E+03	3.660237E-16	6.355942E-18
6.660000E+03	3.624549E-16	6.297481E-18
6.670000E+03	3.589280E-16	6.239681E-18
6.680000E+03	3.554384E-16	6.182463E-18
6.690000E+03	3.519939E-16	6.125967E-18
6.700000E+03	3.485962E-16	6.070220E-18
6.710000E+03	3.452404E-16	6.015138E-18
6.720000E+03	3.419278E-16	5.960747E-18
6.730000E+03	3.386656E-16	5.907170E-18
6.740000E+03	3.354427E-16	5.854218E-18
6.750000E+03	3.322721E-16	5.802116E-18
6.760000E+03	3.291484E-16	5.750773E-18
6.770000E+03	3.260666E-16	5.700103E-18
6.780000E+03	3.230332E-16	5.650217E-18
6.790000E+03	3.200486E-16	5.601128E-18
6.800000E+03	3.171076E-16	5.552745E-18
6.810000E+03	3.142163E-16	5.505174E-18
6.820000E+03	3.113693E-16	5.458322E-18
6.830000E+03	3.085727E-16	5.412298E-18
6.840000E+03	3.058151E-16	5.366904E-18
6.850000E+03	3.031082E-16	5.322343E-18
6.860000E+03	3.004407E-16	5.278423E-18
6.870000E+03	2.978240E-16	5.235342E-18
6.880000E+03	2.952470E-16	5.192905E-18
6.890000E+03	2.927152E-16	5.151214E-18
6.900000E+03	2.902230E-16	5.110168E-18
6.910000E+03	2.877760E-16	5.069868E-18
6.920000E+03	2.853686E-16	5.030216E-18
6.930000E+03	2.830060E-16	4.991306E-18
6.940000E+03	2.806774E-16	4.952947E-18
6.950000E+03	2.783934E-16	4.915329E-18
6.960000E+03	2.761485E-16	4.878352E-18
6.970000E+03	2.739371E-16	4.841924E-18
6.980000E+03	2.717698E-16	4.806229E-18
6.990000E+03	2.696356E-16	4.771076E-18
7.000000E+03	2.675397E-16	4.736556E-18
7.010000E+03	2.654768E-16	4.702577E-18
7.020000E+03	2.634516E-16	4.669224E-18
7.030000E+03	2.614587E-16	4.636401E-18
7.040000E+03	2.595033E-16	4.604201E-18
7.050000E+03	2.575747E-16	4.572436E-18
7.060000E+03	2.556828E-16	4.541284E-18
7.070000E+03	2.538174E-16	4.510562E-18
7.080000E+03	2.519883E-16	4.480446E-18
7.090000E+03	2.501851E-16	4.450753E-18
7.100000E+03	2.484128E-16	4.421570E-18
7.110000E+03	2.466660E-16	4.392805E-18
7.120000E+03	2.449496E-16	4.364544E-18
7.130000E+03	2.432632E-16	4.336782E-18
7.140000E+03	2.415970E-16	4.309343E-18
7.150000E+03	2.399603E-16	4.282395E-18
7.160000E+03	2.383532E-16	4.255941E-18
7.170000E+03	2.367657E-16	4.229804E-18
7.180000E+03	2.352026E-16	4.204067E-18
7.190000E+03	2.336635E-16	4.178727E-18
7.200000E+03	2.321439E-16	4.153702E-18
7.210000E+03	2.306530E-16	4.129156E-18
7.220000E+03	2.291814E-16	4.104925E-18
7.230000E+03	2.277288E-16	4.081004E-18
7.240000E+03	2.263001E-16	4.057479E-18
7.250000E+03	2.248861E-16	4.034186E-18
7.260000E+03	2.234960E-16	4.011291E-18
7.270000E+03	2.221251E-16	3.988712E-18
7.280000E+03	2.207739E-16	3.966455E-18
7.290000E+03	2.194378E-16	3.944441E-18
7.300000E+03	2.181170E-16	3.922673E-18
7.310000E+03	2.168164E-16	3.901239E-18
7.320000E+03	2.155316E-16	3.880062E-18
7.330000E+03	2.142587E-16	3.859070E-18
7.340000E+03	2.129978E-16	3.838267E-18
7.350000E+03	2.117498E-16	3.817667E-18
7.360000E+03	2.105147E-16	3.797275E-18
7.370000E+03	2.092890E-16	3.777023E-18
7.380000E+03	2.080688E-16	3.756845E-18
7.390000E+03	2.068546E-16	3.736748E-18
7.400000E+03	2.056383E-16	3.716586E-18
7.410000E+03	2.044297E-16	3.696536E-18
7.420000E+03	2.032162E-16	3.676373E-18
7.430000E+03	2.019986E-16	3.656108E-18
7.440000E+03	2.007822E-16	3.635839E-18
7.450000E+03	1.995719E-16	3.615652E-18
7.460000E+03	1.983641E-16	3.595485E-18
7.470000E+03	1.971680E-16	3.575505E-18
7.480000E+03	1.959841E-16	3.555721E-18
7.490000E+03	1.948214E-16	3.536294E-18
7.500000E+03	1.936760E-16	3.517157E-18
7.510000E+03	1.925565E-16	3.498466E-18
7.520000E+03	1.914631E-16	3.480224E-18
7.530000E+03	1.903957E-16	3.462432E-18
7.540000E+03	1.893586E-16	3.445168E-18
7.550000E+03	1.883474E-16	3.428352E-18
7.560000E+03	1.873701E-16	3.412131E-18
7.570000E+03	1.864222E-16	3.396424E-18
7.580000E+03	1.855032E-16	3.381223E-18
7.590000E+03	1.846168E-16	3.366594E-18
7.600000E+03	1.837623E-16	3.352530E-18
7.610000E+03	1.829391E-16	3.339016E-18
7.620000E+03	1.821422E-16	3.325965E-18
7.630000E+03	1.813794E-16	3.313517E-18
7.640000E+03	1.806413E-16	3.301503E-18
7.650000E+03	1.799355E-16	3.290063E-18
7.660000E+03	1.792529E-16	3.279031E-18
7.670000E+03	1.786011E-16	3.268544E-18
7.680000E+03	1.779708E-16	3.258436E-18
7.690000E+03	1.773695E-16	3.248845E-18
7.700000E+03	1.767926E-16	3.239685E-18
7.710000E+03	1.762390E-16	3.230937E-18
7.720000E+03	1.757040E-16	3.222517E-18
7.730000E+03	1.751953E-16	3.214565E-18
7.740000E+03	1.747079E-16	3.206993E-18
7.750000E+03	1.742414E-16	3.199791E-18
7.760000E+03	1.737910E-16	3.192871E-18
