#wls	flux	fluxerr
1.600000E+03	3.190340E-16	5.452064E-17
1.640000E+03	3.304518E-16	5.628485E-17
1.680000E+03	3.425478E-16	5.814587E-17
1.720000E+03	3.554217E-16	6.011867E-17
1.760000E+03	3.691220E-16	6.220932E-17
1.800000E+03	3.837634E-16	6.443472E-17
1.840000E+03	3.994072E-16	6.680245E-17
1.880000E+03	4.161182E-16	6.932041E-17
1.920000E+03	4.341733E-16	7.203136E-17
1.960000E+03	4.536671E-16	7.494705E-17
2.000000E+03	4.746995E-16	7.807963E-17
2.040000E+03	4.975314E-16	8.146713E-17
2.080000E+03	5.223715E-16	8.513806E-17
2.120000E+03	5.496138E-16	8.915013E-17
2.160000E+03	5.793525E-16	9.351108E-17
2.200000E+03	6.121260E-16	9.829934E-17
2.240000E+03	6.480707E-16	1.035270E-16
2.280000E+03	6.874171E-16	1.092202E-16
2.320000E+03	7.305040E-16	1.154208E-16
2.360000E+03	7.773814E-16	1.221237E-16
2.400000E+03	8.283970E-16	1.293695E-16
2.440000E+03	8.838032E-16	1.371822E-16
2.480000E+03	9.437340E-16	1.455656E-16
2.520000E+03	1.008419E-15	1.545371E-16
2.560000E+03	1.078070E-15	1.641101E-16
2.600000E+03	1.153007E-15	1.743122E-16
2.640000E+03	1.233131E-15	1.851059E-16
2.680000E+03	1.318814E-15	1.965240E-16
2.720000E+03	1.410119E-15	2.085504E-16
2.760000E+03	1.507177E-15	2.211781E-16
2.800000E+03	1.610194E-15	2.344096E-16
2.840000E+03	1.718973E-15	2.481867E-16
2.880000E+03	1.832999E-15	2.624065E-16
2.920000E+03	1.951050E-15	2.768663E-16
2.960000E+03	2.072648E-15	2.914741E-16
3.000000E+03	2.196389E-15	3.060106E-16
3.010000E+03	2.227368E-15	3.095909E-16
3.020000E+03	2.258584E-15	3.131798E-16
3.030000E+03	2.289835E-15	3.167489E-16
3.040000E+03	2.321094E-15	3.202942E-16
3.050000E+03	2.352335E-15	3.238121E-16
3.060000E+03	2.383526E-15	3.272980E-16
3.070000E+03	2.414641E-15	3.307481E-16
3.080000E+03	2.445644E-15	3.341577E-16
3.090000E+03	2.476686E-15	3.375471E-16
3.100000E+03	2.507553E-15	3.408868E-16
3.110000E+03	2.538204E-15	3.441718E-16
3.120000E+03	2.568789E-15	3.474221E-16
3.130000E+03	2.599085E-15	3.506075E-16
3.140000E+03	2.629235E-15	3.537476E-16
3.150000E+03	2.659201E-15	3.568371E-16
3.160000E+03	2.688749E-15	3.598448E-16
3.170000E+03	2.718023E-15	3.627901E-16
3.180000E+03	2.747165E-15	3.656924E-16
3.190000E+03	2.775750E-15	3.684948E-16
3.200000E+03	2.804103E-15	3.712412E-16
3.210000E+03	2.831799E-15	3.738752E-16
3.220000E+03	2.859349E-15	3.764650E-16
3.230000E+03	2.886320E-15	3.789536E-16
3.240000E+03	2.912656E-15	3.813343E-16
3.250000E+03	2.938677E-15	3.836493E-16
3.260000E+03	2.963944E-15	3.858417E-16
3.270000E+03	2.988776E-15	3.879537E-16
3.280000E+03	3.012917E-15	3.899525E-16
3.290000E+03	3.036494E-15	3.918552E-16
3.300000E+03	3.059251E-15	3.936291E-16
3.310000E+03	3.081308E-15	3.952910E-16
3.320000E+03	3.102784E-15	3.968563E-16
3.330000E+03	3.123419E-15	3.982925E-16
3.340000E+03	3.143329E-15	3.996155E-16
3.350000E+03	3.162438E-15	4.008162E-16
3.360000E+03	3.180673E-15	4.018862E-16
3.370000E+03	3.198137E-15	4.028396E-16
3.380000E+03	3.214753E-15	4.036673E-16
3.390000E+03	3.230439E-15	4.043603E-16
3.400000E+03	3.245292E-15	4.049314E-16
3.410000E+03	3.259224E-15	4.053707E-16
3.420000E+03	3.272496E-15	4.057119E-16
3.430000E+03	3.284668E-15	4.059010E-16
3.440000E+03	3.295990E-15	4.059702E-16
3.450000E+03	3.306536E-15	4.059296E-16
3.460000E+03	3.316196E-15	4.057668E-16
3.470000E+03	3.325035E-15	4.054905E-16
3.480000E+03	3.333103E-15	4.051080E-16
3.490000E+03	3.340121E-15	4.045863E-16
3.500000E+03	3.346617E-15	4.039904E-16
3.510000E+03	3.352140E-15	4.032669E-16
3.520000E+03	3.356880E-15	4.024397E-16
3.530000E+03	3.360703E-15	4.014935E-16
3.540000E+03	3.363778E-15	4.004501E-16
3.550000E+03	3.365817E-15	3.992759E-16
3.560000E+03	3.366689E-15	3.979569E-16
3.570000E+03	3.366127E-15	3.964632E-16
3.580000E+03	3.364168E-15	3.948009E-16
3.590000E+03	3.360431E-15	3.929273E-16
3.600000E+03	3.354977E-15	3.908521E-16
3.610000E+03	3.347610E-15	3.885544E-16
3.620000E+03	3.338288E-15	3.860322E-16
3.630000E+03	3.326744E-15	3.832571E-16
3.640000E+03	3.313239E-15	3.802625E-16
3.650000E+03	3.297444E-15	3.770129E-16
3.660000E+03	3.279553E-15	3.735338E-16
3.670000E+03	3.259543E-15	3.698256E-16
3.680000E+03	3.237544E-15	3.659057E-16
3.690000E+03	3.213489E-15	3.617693E-16
3.700000E+03	3.187775E-15	3.574639E-16
3.710000E+03	3.160392E-15	3.529906E-16
3.720000E+03	3.131560E-15	3.483766E-16
3.730000E+03	3.101421E-15	3.436394E-16
3.740000E+03	3.070230E-15	3.388092E-16
3.750000E+03	3.038153E-15	3.339059E-16
3.760000E+03	3.005543E-15	3.289694E-16
3.770000E+03	2.972484E-15	3.240098E-16
3.780000E+03	2.939232E-15	3.190558E-16
3.790000E+03	2.906035E-15	3.141345E-16
3.800000E+03	2.873120E-15	3.092705E-16
3.810000E+03	2.840543E-15	3.044695E-16
3.820000E+03	2.808650E-15	2.997684E-16
3.830000E+03	2.777385E-15	2.951602E-16
3.840000E+03	2.746973E-15	2.906683E-16
3.850000E+03	2.717467E-15	2.862970E-16
3.860000E+03	2.688969E-15	2.820562E-16
3.870000E+03	2.661555E-15	2.779524E-16
3.880000E+03	2.635215E-15	2.739833E-16
3.890000E+03	2.609922E-15	2.701447E-16
3.900000E+03	2.585753E-15	2.664432E-16
3.910000E+03	2.562645E-15	2.628711E-16
3.920000E+03	2.540520E-15	2.594190E-16
3.930000E+03	2.519345E-15	2.560823E-16
3.940000E+03	2.499071E-15	2.528549E-16
3.950000E+03	2.479585E-15	2.497243E-16
3.960000E+03	2.460766E-15	2.466773E-16
3.970000E+03	2.442589E-15	2.437106E-16
3.980000E+03	2.424917E-15	2.408100E-16
3.990000E+03	2.407662E-15	2.379661E-16
4.000000E+03	2.390685E-15	2.351648E-16
4.010000E+03	2.373854E-15	2.323929E-16
4.020000E+03	2.357086E-15	2.296421E-16
4.030000E+03	2.340349E-15	2.269096E-16
4.040000E+03	2.323488E-15	2.241804E-16
4.050000E+03	2.306402E-15	2.214451E-16
4.060000E+03	2.289140E-15	2.187088E-16
4.070000E+03	2.271583E-15	2.159607E-16
4.080000E+03	2.253677E-15	2.131961E-16
4.090000E+03	2.235459E-15	2.104190E-16
4.100000E+03	2.216894E-15	2.076271E-16
4.110000E+03	2.197999E-15	2.048221E-16
4.120000E+03	2.178790E-15	2.020064E-16
4.130000E+03	2.159214E-15	1.991755E-16
4.140000E+03	2.139331E-15	1.963358E-16
4.150000E+03	2.119161E-15	1.934894E-16
4.160000E+03	2.098690E-15	1.906356E-16
4.170000E+03	2.077900E-15	1.877734E-16
4.180000E+03	2.056876E-15	1.849109E-16
4.190000E+03	2.035566E-15	1.820441E-16
4.200000E+03	2.014022E-15	1.791779E-16
4.210000E+03	1.992235E-15	1.763120E-16
4.220000E+03	1.970260E-15	1.734517E-16
4.230000E+03	1.948074E-15	1.705953E-16
4.240000E+03	1.925807E-15	1.677546E-16
4.250000E+03	1.903451E-15	1.649290E-16
4.260000E+03	1.881093E-15	1.621262E-16
4.270000E+03	1.858771E-15	1.593496E-16
4.280000E+03	1.836641E-15	1.566125E-16
4.290000E+03	1.814722E-15	1.539164E-16
4.300000E+03	1.793148E-15	1.512722E-16
4.310000E+03	1.771995E-15	1.486861E-16
4.320000E+03	1.751391E-15	1.461681E-16
4.330000E+03	1.731352E-15	1.437189E-16
4.340000E+03	1.712045E-15	1.413516E-16
4.350000E+03	1.693519E-15	1.390692E-16
4.360000E+03	1.675816E-15	1.368743E-16
4.370000E+03	1.659036E-15	1.347739E-16
4.380000E+03	1.643215E-15	1.327698E-16
4.390000E+03	1.628354E-15	1.308608E-16
4.400000E+03	1.614505E-15	1.290500E-16
4.410000E+03	1.601641E-15	1.273340E-16
4.420000E+03	1.589742E-15	1.257098E-16
4.430000E+03	1.578822E-15	1.241777E-16
4.440000E+03	1.568798E-15	1.227298E-16
4.450000E+03	1.559622E-15	1.213615E-16
4.460000E+03	1.551205E-15	1.200648E-16
4.470000E+03	1.543453E-15	1.188317E-16
4.480000E+03	1.536273E-15	1.176545E-16
4.490000E+03	1.529583E-15	1.165262E-16
4.500000E+03	1.523300E-15	1.154401E-16
4.510000E+03	1.517353E-15	1.143905E-16
4.520000E+03	1.511680E-15	1.133726E-16
4.530000E+03	1.506210E-15	1.123807E-16
4.540000E+03	1.500902E-15	1.114118E-16
4.550000E+03	1.495746E-15	1.104651E-16
4.560000E+03	1.490705E-15	1.095379E-16
4.570000E+03	1.485787E-15	1.086307E-16
4.580000E+03	1.480994E-15	1.077437E-16
4.590000E+03	1.476314E-15	1.068761E-16
4.600000E+03	1.471797E-15	1.060314E-16
4.610000E+03	1.467427E-15	1.052085E-16
4.620000E+03	1.463276E-15	1.044126E-16
4.630000E+03	1.459335E-15	1.036429E-16
4.640000E+03	1.455644E-15	1.029021E-16
4.650000E+03	1.452258E-15	1.021942E-16
4.660000E+03	1.449178E-15	1.015189E-16
4.670000E+03	1.446449E-15	1.008793E-16
4.680000E+03	1.444089E-15	1.002766E-16
4.690000E+03	1.442094E-15	9.971009E-17
4.700000E+03	1.440479E-15	9.918094E-17
4.710000E+03	1.439248E-15	9.868912E-17
4.720000E+03	1.438376E-15	9.823277E-17
4.730000E+03	1.437823E-15	9.780922E-17
4.740000E+03	1.437593E-15	9.741850E-17
4.750000E+03	1.437624E-15	9.705645E-17
4.760000E+03	1.437885E-15	9.672101E-17
4.770000E+03	1.438321E-15	9.640851E-17
4.780000E+03	1.438879E-15	9.611546E-17
4.790000E+03	1.439519E-15	9.583934E-17
4.800000E+03	1.440158E-15	9.557483E-17
4.810000E+03	1.440708E-15	9.531604E-17
4.820000E+03	1.441114E-15	9.505936E-17
4.830000E+03	1.441337E-15	9.480196E-17
4.840000E+03	1.441313E-15	9.453958E-17
4.850000E+03	1.441017E-15	9.427044E-17
4.860000E+03	1.440434E-15	9.399362E-17
4.870000E+03	1.439540E-15	9.370729E-17
4.880000E+03	1.438335E-15	9.341141E-17
4.890000E+03	1.436829E-15	9.310651E-17
4.900000E+03	1.435035E-15	9.279330E-17
4.910000E+03	1.432953E-15	9.247153E-17
4.920000E+03	1.430627E-15	9.214394E-17
4.930000E+03	1.428039E-15	9.180917E-17
4.940000E+03	1.425233E-15	9.146982E-17
4.950000E+03	1.422189E-15	9.112438E-17
4.960000E+03	1.418948E-15	9.077521E-17
4.970000E+03	1.415501E-15	9.042150E-17
4.980000E+03	1.411855E-15	9.006348E-17
4.990000E+03	1.408029E-15	8.970208E-17
5.000000E+03	1.404024E-15	8.933706E-17
5.010000E+03	1.399837E-15	8.896811E-17
5.020000E+03	1.395455E-15	8.859395E-17
5.030000E+03	1.390899E-15	8.821575E-17
5.040000E+03	1.386134E-15	8.783101E-17
5.050000E+03	1.381181E-15	8.744072E-17
5.060000E+03	1.376030E-15	8.704411E-17
5.070000E+03	1.370659E-15	8.663942E-17
5.080000E+03	1.365076E-15	8.622698E-17
5.090000E+03	1.359276E-15	8.580608E-17
5.100000E+03	1.353255E-15	8.537633E-17
5.110000E+03	1.347014E-15	8.493753E-17
5.120000E+03	1.340545E-15	8.448883E-17
5.130000E+03	1.333893E-15	8.403294E-17
5.140000E+03	1.327028E-15	8.356757E-17
5.150000E+03	1.319989E-15	8.309507E-17
5.160000E+03	1.312773E-15	8.261496E-17
5.170000E+03	1.305409E-15	8.212877E-17
5.180000E+03	1.297893E-15	8.163613E-17
5.190000E+03	1.290254E-15	8.113852E-17
5.200000E+03	1.282485E-15	8.063538E-17
5.210000E+03	1.274609E-15	8.012788E-17
5.220000E+03	1.266629E-15	7.961604E-17
5.230000E+03	1.258535E-15	7.909903E-17
5.240000E+03	1.250338E-15	7.857734E-17
5.250000E+03	1.242033E-15	7.805046E-17
5.260000E+03	1.233600E-15	7.751693E-17
5.270000E+03	1.225042E-15	7.697680E-17
5.280000E+03	1.216345E-15	7.642907E-17
5.290000E+03	1.207496E-15	7.587271E-17
5.300000E+03	1.198468E-15	7.530595E-17
5.310000E+03	1.189247E-15	7.472769E-17
5.320000E+03	1.179835E-15	7.413791E-17
5.330000E+03	1.170208E-15	7.353505E-17
5.340000E+03	1.160372E-15	7.291932E-17
5.350000E+03	1.150312E-15	7.228977E-17
5.360000E+03	1.140045E-15	7.164721E-17
5.370000E+03	1.129568E-15	7.099138E-17
5.380000E+03	1.118881E-15	7.032233E-17
5.390000E+03	1.108028E-15	6.964261E-17
5.400000E+03	1.097019E-15	6.895286E-17
5.410000E+03	1.085872E-15	6.825409E-17
5.420000E+03	1.074636E-15	6.754932E-17
5.430000E+03	1.063322E-15	6.683919E-17
5.440000E+03	1.051969E-15	6.612618E-17
5.450000E+03	1.040598E-15	6.541150E-17
5.460000E+03	1.029247E-15	6.469752E-17
5.470000E+03	1.017930E-15	6.398508E-17
5.480000E+03	1.006680E-15	6.327623E-17
5.490000E+03	9.955028E-16	6.257141E-17
5.500000E+03	9.844166E-16	6.187165E-17
5.510000E+03	9.734402E-16	6.117815E-17
5.520000E+03	9.625842E-16	6.049159E-17
5.530000E+03	9.518342E-16	5.981105E-17
5.540000E+03	9.412232E-16	5.913863E-17
5.550000E+03	9.307470E-16	5.847405E-17
5.560000E+03	9.203982E-16	5.781687E-17
5.570000E+03	9.101995E-16	5.716853E-17
5.580000E+03	9.001372E-16	5.652819E-17
5.590000E+03	8.902441E-16	5.589792E-17
5.600000E+03	8.805093E-16	5.527705E-17
5.610000E+03	8.709500E-16	5.466670E-17
5.620000E+03	8.615757E-16	5.406749E-17
5.630000E+03	8.523968E-16	5.348008E-17
5.640000E+03	8.434241E-16	5.290519E-17
5.650000E+03	8.346681E-16	5.234351E-17
5.660000E+03	8.261473E-16	5.179622E-17
5.670000E+03	8.178622E-16	5.126337E-17
5.680000E+03	8.098369E-16	5.074651E-17
5.690000E+03	8.020524E-16	5.024448E-17
5.700000E+03	7.945367E-16	4.975905E-17
5.710000E+03	7.872824E-16	4.928979E-17
5.720000E+03	7.802804E-16	4.883617E-17
5.730000E+03	7.735419E-16	4.839891E-17
5.740000E+03	7.670439E-16	4.797661E-17
5.750000E+03	7.607917E-16	4.756961E-17
5.760000E+03	7.547637E-16	4.717662E-17
5.770000E+03	7.489437E-16	4.679664E-17
5.780000E+03	7.433124E-16	4.642850E-17
5.790000E+03	7.378477E-16	4.607086E-17
5.800000E+03	7.325333E-16	4.572274E-17
5.810000E+03	7.273364E-16	4.538213E-17
5.820000E+03	7.222306E-16	4.504743E-17
5.830000E+03	7.171895E-16	4.471702E-17
5.840000E+03	7.121874E-16	4.438937E-17
5.850000E+03	7.071997E-16	4.406296E-17
5.860000E+03	7.022038E-16	4.373646E-17
5.870000E+03	6.971795E-16	4.340865E-17
5.880000E+03	6.921098E-16	4.307853E-17
5.890000E+03	6.869736E-16	4.274483E-17
5.900000E+03	6.817676E-16	4.240740E-17
5.910000E+03	6.764844E-16	4.206583E-17
5.920000E+03	6.711066E-16	4.171910E-17
5.930000E+03	6.656472E-16	4.136805E-17
5.940000E+03	6.601016E-16	4.101246E-17
5.950000E+03	6.544681E-16	4.065226E-17
5.960000E+03	6.487602E-16	4.028834E-17
5.970000E+03	6.429802E-16	3.992089E-17
5.980000E+03	6.371454E-16	3.955101E-17
5.990000E+03	6.312544E-16	3.917867E-17
6.000000E+03	6.253264E-16	3.880509E-17
6.010000E+03	6.193749E-16	3.843113E-17
6.020000E+03	6.134137E-16	3.805769E-17
6.030000E+03	6.074440E-16	3.768487E-17
6.040000E+03	6.014924E-16	3.731434E-17
6.050000E+03	5.955595E-16	3.694617E-17
6.060000E+03	5.896703E-16	3.658192E-17
6.070000E+03	5.838240E-16	3.622156E-17
6.080000E+03	5.780428E-16	3.586650E-17
6.090000E+03	5.723230E-16	3.551651E-17
6.100000E+03	5.666775E-16	3.517240E-17
6.110000E+03	5.611166E-16	3.483476E-17
6.120000E+03	5.556428E-16	3.450364E-17
6.130000E+03	5.502564E-16	3.417899E-17
6.140000E+03	5.449566E-16	3.386066E-17
6.150000E+03	5.397467E-16	3.354877E-17
6.160000E+03	5.346286E-16	3.324337E-17
6.170000E+03	5.296030E-16	3.294444E-17
6.180000E+03	5.246645E-16	3.265154E-17
6.190000E+03	5.198123E-16	3.236456E-17
6.200000E+03	5.150347E-16	3.208272E-17
6.210000E+03	5.103310E-16	3.180589E-17
6.220000E+03	5.056842E-16	3.153297E-17
6.230000E+03	5.010841E-16	3.126324E-17
6.240000E+03	4.965119E-16	3.099548E-17
6.250000E+03	4.919554E-16	3.072885E-17
6.260000E+03	4.873985E-16	3.046231E-17
6.270000E+03	4.828377E-16	3.019556E-17
6.280000E+03	4.782600E-16	2.992774E-17
6.290000E+03	4.736546E-16	2.965812E-17
6.300000E+03	4.690228E-16	2.938672E-17
6.310000E+03	4.643569E-16	2.911301E-17
6.320000E+03	4.596610E-16	2.883719E-17
6.330000E+03	4.549305E-16	2.855893E-17
6.340000E+03	4.501627E-16	2.827799E-17
6.350000E+03	4.453708E-16	2.799518E-17
6.360000E+03	4.405499E-16	2.771012E-17
6.370000E+03	4.357069E-16	2.742320E-17
6.380000E+03	4.308503E-16	2.713492E-17
6.390000E+03	4.259906E-16	2.684591E-17
6.400000E+03	4.211411E-16	2.655695E-17
6.410000E+03	4.163127E-16	2.626871E-17
6.420000E+03	4.115241E-16	2.598233E-17
6.430000E+03	4.067965E-16	2.569915E-17
6.440000E+03	4.021545E-16	2.542068E-17
6.450000E+03	3.976276E-16	2.514879E-17
6.460000E+03	3.932525E-16	2.488579E-17
6.470000E+03	3.890674E-16	2.463410E-17
6.480000E+03	3.851201E-16	2.439674E-17
6.490000E+03	3.814491E-16	2.417617E-17
6.500000E+03	3.780965E-16	2.397505E-17
6.510000E+03	3.751021E-16	2.379593E-17
6.520000E+03	3.725026E-16	2.364116E-17
6.530000E+03	3.703226E-16	2.351231E-17
6.540000E+03	3.685943E-16	2.341146E-17
6.550000E+03	3.673363E-16	2.333979E-17
6.560000E+03	3.665607E-16	2.329809E-17
6.570000E+03	3.662731E-16	2.328673E-17
6.580000E+03	3.664809E-16	2.330618E-17
6.590000E+03	3.671664E-16	2.335533E-17
6.600000E+03	3.683273E-16	2.343402E-17
6.610000E+03	3.699359E-16	2.354048E-17
6.620000E+03	3.719622E-16	2.367280E-17
6.630000E+03	3.743698E-16	2.382863E-17
6.640000E+03	3.771210E-16	2.400555E-17
6.650000E+03	3.801732E-16	2.420082E-17
6.660000E+03	3.834703E-16	2.441083E-17
6.670000E+03	3.869572E-16	2.463204E-17
6.680000E+03	3.905870E-16	2.486143E-17
6.690000E+03	3.942924E-16	2.509466E-17
6.700000E+03	3.980208E-16	2.532835E-17
6.710000E+03	4.017218E-16	2.555927E-17
6.720000E+03	4.053324E-16	2.578335E-17
6.730000E+03	4.088193E-16	2.599845E-17
6.740000E+03	4.121282E-16	2.620109E-17
6.750000E+03	4.152207E-16	2.638879E-17
6.760000E+03	4.180753E-16	2.656019E-17
6.770000E+03	4.206555E-16	2.671295E-17
6.780000E+03	4.229471E-16	2.684616E-17
6.790000E+03	4.249370E-16	2.695900E-17
6.800000E+03	4.266175E-16	2.705097E-17
6.810000E+03	4.279867E-16	2.712199E-17
6.820000E+03	4.290524E-16	2.717256E-17
6.830000E+03	4.298096E-16	2.720239E-17
6.840000E+03	4.302792E-16	2.721284E-17
6.850000E+03	4.304673E-16	2.720433E-17
6.860000E+03	4.303875E-16	2.717775E-17
6.870000E+03	4.300546E-16	2.713409E-17
6.880000E+03	4.294839E-16	2.707434E-17
6.890000E+03	4.286968E-16	2.699990E-17
6.900000E+03	4.277027E-16	2.691143E-17
6.910000E+03	4.265164E-16	2.680989E-17
6.920000E+03	4.251579E-16	2.669660E-17
6.930000E+03	4.236292E-16	2.657172E-17
6.940000E+03	4.219546E-16	2.643685E-17
6.950000E+03	4.201405E-16	2.629242E-17
6.960000E+03	4.181982E-16	2.613921E-17
6.970000E+03	4.161389E-16	2.597796E-17
6.980000E+03	4.139729E-16	2.580937E-17
6.990000E+03	4.117164E-16	2.563451E-17
7.000000E+03	4.093680E-16	2.545333E-17
7.010000E+03	4.069436E-16	2.526688E-17
7.020000E+03	4.044594E-16	2.507621E-17
7.030000E+03	4.019145E-16	2.488132E-17
7.040000E+03	3.993203E-16	2.468296E-17
7.050000E+03	3.967003E-16	2.448264E-17
7.060000E+03	3.940558E-16	2.428046E-17
7.070000E+03	3.914065E-16	2.407769E-17
7.080000E+03	3.887675E-16	2.387529E-17
7.090000E+03	3.861494E-16	2.367394E-17
7.100000E+03	3.835695E-16	2.347473E-17
7.110000E+03	3.810521E-16	2.327917E-17
7.120000E+03	3.786107E-16	2.308810E-17
7.130000E+03	3.762657E-16	2.290275E-17
7.140000E+03	3.740369E-16	2.272436E-17
7.150000E+03	3.719500E-16	2.255446E-17
7.160000E+03	3.700131E-16	2.239353E-17
7.170000E+03	3.682499E-16	2.224298E-17
7.180000E+03	3.666707E-16	2.210341E-17
7.190000E+03	3.653004E-16	2.197627E-17
7.200000E+03	3.641334E-16	2.186119E-17
7.210000E+03	3.631878E-16	2.175921E-17
7.220000E+03	3.624619E-16	2.167017E-17
7.230000E+03	3.619609E-16	2.159433E-17
7.240000E+03	3.616694E-16	2.153072E-17
7.250000E+03	3.615845E-16	2.147911E-17
7.260000E+03	3.616877E-16	2.143836E-17
7.270000E+03	3.619680E-16	2.140778E-17
7.280000E+03	3.623996E-16	2.138580E-17
7.290000E+03	3.629646E-16	2.137134E-17
7.300000E+03	3.636253E-16	2.136216E-17
7.310000E+03	3.643580E-16	2.135686E-17
7.320000E+03	3.651321E-16	2.135367E-17
7.330000E+03	3.659096E-16	2.135038E-17
7.340000E+03	3.666578E-16	2.134511E-17
7.350000E+03	3.673492E-16	2.133633E-17
7.360000E+03	3.679402E-16	2.132154E-17
7.370000E+03	3.684055E-16	2.129938E-17
7.380000E+03	3.687105E-16	2.126792E-17
7.390000E+03	3.688346E-16	2.122609E-17
7.400000E+03	3.687432E-16	2.117201E-17
7.410000E+03	3.684230E-16	2.110503E-17
7.420000E+03	3.678533E-16	2.102410E-17
7.430000E+03	3.670235E-16	2.092875E-17
7.440000E+03	3.659279E-16	2.081879E-17
7.450000E+03	3.645713E-16	2.069463E-17
7.460000E+03	3.629459E-16	2.055596E-17
7.470000E+03	3.610768E-16	2.040434E-17
7.480000E+03	3.589649E-16	2.023992E-17
7.490000E+03	3.566315E-16	2.006405E-17
7.500000E+03	3.540958E-16	1.987788E-17
7.510000E+03	3.513851E-16	1.968300E-17
7.520000E+03	3.485178E-16	1.948043E-17
7.530000E+03	3.455252E-16	1.927195E-17
7.540000E+03	3.424339E-16	1.905901E-17
7.550000E+03	3.392714E-16	1.884314E-17
7.560000E+03	3.360663E-16	1.862590E-17
7.570000E+03	3.328484E-16	1.840891E-17
7.580000E+03	3.296512E-16	1.819399E-17
7.590000E+03	3.264960E-16	1.798225E-17
7.600000E+03	3.234125E-16	1.777527E-17
7.610000E+03	3.204170E-16	1.757389E-17
7.620000E+03	3.175335E-16	1.737935E-17
7.630000E+03	3.147774E-16	1.719242E-17
7.640000E+03	3.121608E-16	1.701368E-17
7.650000E+03	3.096923E-16	1.684352E-17
7.660000E+03	3.073776E-16	1.668217E-17
7.670000E+03	3.052193E-16	1.652970E-17
7.680000E+03	3.032174E-16	1.638600E-17
7.690000E+03	3.013748E-16	1.625118E-17
7.700000E+03	2.996775E-16	1.612437E-17
7.710000E+03	2.981301E-16	1.600577E-17
7.720000E+03	2.967215E-16	1.589470E-17
7.730000E+03	2.954447E-16	1.579072E-17
7.740000E+03	2.942928E-16	1.569337E-17
7.750000E+03	2.932583E-16	1.560222E-17
7.760000E+03	2.923343E-16	1.551681E-17
