#wls	flux	fluxerr
1.600000E+03	1.696452E-16	9.959334E-18
1.640000E+03	1.744751E-16	1.018968E-17
1.680000E+03	1.795877E-16	1.043219E-17
1.720000E+03	1.849634E-16	1.068533E-17
1.760000E+03	1.906534E-16	1.095165E-17
1.800000E+03	1.966762E-16	1.123172E-17
1.840000E+03	2.030907E-16	1.152840E-17
1.880000E+03	2.098804E-16	1.184016E-17
1.920000E+03	2.171095E-16	1.217001E-17
1.960000E+03	2.248054E-16	1.251880E-17
2.000000E+03	2.330420E-16	1.288986E-17
2.040000E+03	2.418547E-16	1.328428E-17
2.080000E+03	2.512329E-16	1.370056E-17
2.120000E+03	2.613108E-16	1.414500E-17
2.160000E+03	2.720842E-16	1.461622E-17
2.200000E+03	2.836510E-16	1.511823E-17
2.240000E+03	2.960086E-16	1.564953E-17
2.280000E+03	3.093210E-16	1.621730E-17
2.320000E+03	3.235345E-16	1.681705E-17
2.360000E+03	3.388268E-16	1.745626E-17
2.400000E+03	3.552055E-16	1.813331E-17
2.440000E+03	3.727375E-16	1.884950E-17
2.480000E+03	3.915614E-16	1.960951E-17
2.520000E+03	4.117567E-16	2.041473E-17
2.560000E+03	4.334058E-16	2.126644E-17
2.600000E+03	4.565926E-16	2.216571E-17
2.640000E+03	4.814025E-16	2.311342E-17
2.680000E+03	5.080037E-16	2.411403E-17
2.720000E+03	5.364902E-16	2.516809E-17
2.760000E+03	5.669546E-16	2.627566E-17
2.800000E+03	5.996700E-16	2.744476E-17
2.840000E+03	6.347399E-16	2.867493E-17
2.880000E+03	6.722614E-16	2.996499E-17
2.920000E+03	7.126272E-16	3.132634E-17
2.960000E+03	7.560474E-16	3.276129E-17
3.000000E+03	8.028376E-16	3.427589E-17
3.010000E+03	8.151182E-16	3.466842E-17
3.020000E+03	8.276245E-16	3.506591E-17
3.030000E+03	8.403574E-16	3.546824E-17
3.040000E+03	8.533184E-16	3.587534E-17
3.050000E+03	8.665080E-16	3.628709E-17
3.060000E+03	8.800425E-16	3.670819E-17
3.070000E+03	8.938091E-16	3.713375E-17
3.080000E+03	9.078080E-16	3.756363E-17
3.090000E+03	9.221577E-16	3.800255E-17
3.100000E+03	9.367418E-16	3.844555E-17
3.110000E+03	9.516802E-16	3.889735E-17
3.120000E+03	9.668541E-16	3.935290E-17
3.130000E+03	9.823847E-16	3.981697E-17
3.140000E+03	9.982738E-16	4.028940E-17
3.150000E+03	1.014399E-15	4.076505E-17
3.160000E+03	1.031008E-15	4.125367E-17
3.170000E+03	1.047853E-15	4.174510E-17
3.180000E+03	1.065058E-15	4.224408E-17
3.190000E+03	1.082624E-15	4.275043E-17
3.200000E+03	1.100549E-15	4.326380E-17
3.210000E+03	1.118962E-15	4.378908E-17
3.220000E+03	1.137735E-15	4.432089E-17
3.230000E+03	1.156863E-15	4.485888E-17
3.240000E+03	1.176347E-15	4.540278E-17
3.250000E+03	1.196313E-15	4.595727E-17
3.260000E+03	1.216763E-15	4.652202E-17
3.270000E+03	1.237558E-15	4.709149E-17
3.280000E+03	1.258828E-15	4.767035E-17
3.290000E+03	1.280570E-15	4.825818E-17
3.300000E+03	1.302778E-15	4.885444E-17
3.310000E+03	1.325447E-15	4.945861E-17
3.320000E+03	1.348569E-15	5.007011E-17
3.330000E+03	1.372277E-15	5.069350E-17
3.340000E+03	1.396280E-15	5.131773E-17
3.350000E+03	1.420991E-15	5.195766E-17
3.360000E+03	1.446115E-15	5.260215E-17
3.370000E+03	1.471639E-15	5.325037E-17
3.380000E+03	1.497834E-15	5.391177E-17
3.390000E+03	1.524396E-15	5.457511E-17
3.400000E+03	1.551597E-15	5.524970E-17
3.410000E+03	1.579124E-15	5.592406E-17
3.420000E+03	1.607244E-15	5.660739E-17
3.430000E+03	1.635934E-15	5.729839E-17
3.440000E+03	1.665019E-15	5.799058E-17
3.450000E+03	1.694613E-15	5.868763E-17
3.460000E+03	1.724681E-15	5.938793E-17
3.470000E+03	1.755036E-15	6.008476E-17
3.480000E+03	1.785931E-15	6.078649E-17
3.490000E+03	1.817319E-15	6.149112E-17
3.500000E+03	1.848850E-15	6.218648E-17
3.510000E+03	1.880912E-15	6.288544E-17
3.520000E+03	1.913144E-15	6.357554E-17
3.530000E+03	1.945624E-15	6.425923E-17
3.540000E+03	1.978274E-15	6.493372E-17
3.550000E+03	2.011010E-15	6.559605E-17
3.560000E+03	2.043738E-15	6.624310E-17
3.570000E+03	2.076508E-15	6.687637E-17
3.580000E+03	2.109208E-15	6.749220E-17
3.590000E+03	2.141719E-15	6.808675E-17
3.600000E+03	2.173910E-15	6.865596E-17
3.610000E+03	2.205642E-15	6.919557E-17
3.620000E+03	2.236764E-15	6.970114E-17
3.630000E+03	2.267267E-15	7.017265E-17
3.640000E+03	2.296835E-15	7.060075E-17
3.650000E+03	2.325442E-15	7.098519E-17
3.660000E+03	2.353053E-15	7.132543E-17
3.670000E+03	2.379198E-15	7.160795E-17
3.680000E+03	2.403987E-15	7.183689E-17
3.690000E+03	2.427106E-15	7.200377E-17
3.700000E+03	2.448539E-15	7.210916E-17
3.710000E+03	2.468142E-15	7.214993E-17
3.720000E+03	2.485800E-15	7.212389E-17
3.730000E+03	2.501426E-15	7.202975E-17
3.740000E+03	2.514970E-15	7.186745E-17
3.750000E+03	2.526553E-15	7.164174E-17
3.760000E+03	2.536068E-15	7.135091E-17
3.770000E+03	2.543845E-15	7.100551E-17
3.780000E+03	2.549729E-15	7.060244E-17
3.790000E+03	2.553995E-15	7.015050E-17
3.800000E+03	2.556813E-15	6.965543E-17
3.810000E+03	2.558501E-15	6.912676E-17
3.820000E+03	2.559263E-15	6.857079E-17
3.830000E+03	2.559092E-15	6.798797E-17
3.840000E+03	2.558556E-15	6.739387E-17
3.850000E+03	2.557753E-15	6.679138E-17
3.860000E+03	2.556787E-15	6.618336E-17
3.870000E+03	2.556064E-15	6.558037E-17
3.880000E+03	2.555551E-15	6.498144E-17
3.890000E+03	2.555610E-15	6.439558E-17
3.900000E+03	2.556374E-15	6.382571E-17
3.910000E+03	2.557758E-15	6.326932E-17
3.920000E+03	2.560051E-15	6.273305E-17
3.930000E+03	2.563318E-15	6.221788E-17
3.940000E+03	2.567513E-15	6.172204E-17
3.950000E+03	2.572748E-15	6.124763E-17
3.960000E+03	2.579020E-15	6.079382E-17
3.970000E+03	2.586211E-15	6.035719E-17
3.980000E+03	2.594271E-15	5.993596E-17
3.990000E+03	2.603290E-15	5.953160E-17
4.000000E+03	2.612916E-15	5.913552E-17
4.010000E+03	2.623192E-15	5.874825E-17
4.020000E+03	2.633979E-15	5.836632E-17
4.030000E+03	2.645048E-15	5.798436E-17
4.040000E+03	2.656242E-15	5.759881E-17
4.050000E+03	2.667407E-15	5.720634E-17
4.060000E+03	2.678392E-15	5.680380E-17
4.070000E+03	2.689054E-15	5.638838E-17
4.080000E+03	2.699193E-15	5.595622E-17
4.090000E+03	2.708766E-15	5.550688E-17
4.100000E+03	2.717601E-15	5.503732E-17
4.110000E+03	2.725543E-15	5.454510E-17
4.120000E+03	2.732584E-15	5.403072E-17
4.130000E+03	2.738584E-15	5.349221E-17
4.140000E+03	2.743471E-15	5.292902E-17
4.150000E+03	2.747166E-15	5.234054E-17
4.160000E+03	2.749459E-15	5.172376E-17
4.170000E+03	2.750311E-15	5.107910E-17
4.180000E+03	2.749550E-15	5.040454E-17
4.190000E+03	2.747051E-15	4.969911E-17
4.200000E+03	2.742623E-15	4.896077E-17
4.210000E+03	2.736078E-15	4.818772E-17
4.220000E+03	2.727292E-15	4.737950E-17
4.230000E+03	2.716160E-15	4.653602E-17
4.240000E+03	2.702497E-15	4.565601E-17
4.250000E+03	2.686269E-15	4.474086E-17
4.260000E+03	2.667437E-15	4.379190E-17
4.270000E+03	2.646067E-15	4.281224E-17
4.280000E+03	2.622186E-15	4.180424E-17
4.290000E+03	2.596027E-15	4.077352E-17
4.300000E+03	2.567692E-15	3.972343E-17
4.310000E+03	2.537485E-15	3.866027E-17
4.320000E+03	2.505754E-15	3.759072E-17
4.330000E+03	2.472802E-15	3.652051E-17
4.340000E+03	2.439060E-15	3.545686E-17
4.350000E+03	2.404897E-15	3.440575E-17
4.360000E+03	2.370742E-15	3.337366E-17
4.370000E+03	2.337068E-15	3.236730E-17
4.380000E+03	2.304300E-15	3.139223E-17
4.390000E+03	2.272772E-15	3.045249E-17
4.400000E+03	2.242936E-15	2.955334E-17
4.410000E+03	2.215090E-15	2.869769E-17
4.420000E+03	2.189522E-15	2.788808E-17
4.430000E+03	2.166457E-15	2.712603E-17
4.440000E+03	2.146058E-15	2.641215E-17
4.450000E+03	2.128390E-15	2.574575E-17
4.460000E+03	2.113543E-15	2.512649E-17
4.470000E+03	2.101477E-15	2.455242E-17
4.480000E+03	2.092150E-15	2.402175E-17
4.490000E+03	2.085434E-15	2.353176E-17
4.500000E+03	2.081096E-15	2.307876E-17
4.510000E+03	2.079010E-15	2.266051E-17
4.520000E+03	2.078882E-15	2.227311E-17
4.530000E+03	2.080510E-15	2.191397E-17
4.540000E+03	2.083580E-15	2.157952E-17
4.550000E+03	2.087855E-15	2.126731E-17
4.560000E+03	2.093104E-15	2.097516E-17
4.570000E+03	2.099081E-15	2.070098E-17
4.580000E+03	2.105540E-15	2.044287E-17
4.590000E+03	2.112249E-15	2.019928E-17
4.600000E+03	2.118999E-15	1.996907E-17
4.610000E+03	2.125560E-15	1.975101E-17
4.620000E+03	2.131699E-15	1.954399E-17
4.630000E+03	2.137206E-15	1.934722E-17
4.640000E+03	2.141845E-15	1.915975E-17
4.650000E+03	2.145405E-15	1.898089E-17
4.660000E+03	2.147684E-15	1.881006E-17
4.670000E+03	2.148435E-15	1.864623E-17
4.680000E+03	2.147477E-15	1.848891E-17
4.690000E+03	2.144655E-15	1.833774E-17
4.700000E+03	2.139832E-15	1.819235E-17
4.710000E+03	2.132858E-15	1.805211E-17
4.720000E+03	2.123703E-15	1.791716E-17
4.730000E+03	2.112313E-15	1.778690E-17
4.740000E+03	2.098782E-15	1.766147E-17
4.750000E+03	2.083203E-15	1.754076E-17
4.760000E+03	2.065809E-15	1.742565E-17
4.770000E+03	2.046893E-15	1.731736E-17
4.780000E+03	2.026817E-15	1.721761E-17
4.790000E+03	2.006033E-15	1.712880E-17
4.800000E+03	1.984886E-15	1.705245E-17
4.810000E+03	1.963762E-15	1.699045E-17
4.820000E+03	1.942900E-15	1.694355E-17
4.830000E+03	1.922432E-15	1.691163E-17
4.840000E+03	1.902406E-15	1.689392E-17
4.850000E+03	1.882807E-15	1.688914E-17
4.860000E+03	1.863597E-15	1.689589E-17
4.870000E+03	1.844687E-15	1.691231E-17
4.880000E+03	1.825950E-15	1.693622E-17
4.890000E+03	1.807252E-15	1.696541E-17
4.900000E+03	1.788382E-15	1.699688E-17
4.910000E+03	1.769212E-15	1.702844E-17
4.920000E+03	1.749588E-15	1.705760E-17
4.930000E+03	1.729391E-15	1.708218E-17
4.940000E+03	1.708560E-15	1.710059E-17
4.950000E+03	1.687027E-15	1.711114E-17
4.960000E+03	1.664851E-15	1.711351E-17
4.970000E+03	1.642106E-15	1.710756E-17
4.980000E+03	1.618895E-15	1.709355E-17
4.990000E+03	1.595417E-15	1.707288E-17
5.000000E+03	1.571829E-15	1.704664E-17
5.010000E+03	1.548387E-15	1.701714E-17
5.020000E+03	1.525299E-15	1.698636E-17
5.030000E+03	1.502796E-15	1.695670E-17
5.040000E+03	1.481112E-15	1.693075E-17
5.050000E+03	1.460435E-15	1.691076E-17
5.060000E+03	1.440957E-15	1.689915E-17
5.070000E+03	1.422832E-15	1.689805E-17
5.080000E+03	1.406165E-15	1.690913E-17
5.090000E+03	1.391066E-15	1.693419E-17
5.100000E+03	1.377603E-15	1.697458E-17
5.110000E+03	1.365817E-15	1.703141E-17
5.120000E+03	1.355730E-15	1.710556E-17
5.130000E+03	1.347343E-15	1.719766E-17
5.140000E+03	1.340639E-15	1.730812E-17
5.150000E+03	1.335584E-15	1.743715E-17
5.160000E+03	1.332131E-15	1.758473E-17
5.170000E+03	1.330214E-15	1.775060E-17
5.180000E+03	1.329751E-15	1.793421E-17
5.190000E+03	1.330645E-15	1.813477E-17
5.200000E+03	1.332773E-15	1.835108E-17
5.210000E+03	1.335997E-15	1.858166E-17
5.220000E+03	1.340157E-15	1.882463E-17
5.230000E+03	1.345071E-15	1.907772E-17
5.240000E+03	1.350554E-15	1.933849E-17
5.250000E+03	1.356359E-15	1.960354E-17
5.260000E+03	1.362271E-15	1.986978E-17
5.270000E+03	1.368055E-15	2.013370E-17
5.280000E+03	1.373469E-15	2.039161E-17
5.290000E+03	1.378265E-15	2.063957E-17
5.300000E+03	1.382247E-15	2.087432E-17
5.310000E+03	1.385178E-15	2.109189E-17
5.320000E+03	1.386886E-15	2.128921E-17
5.330000E+03	1.387201E-15	2.146313E-17
5.340000E+03	1.386011E-15	2.161139E-17
5.350000E+03	1.383228E-15	2.173203E-17
5.360000E+03	1.378785E-15	2.182342E-17
5.370000E+03	1.372688E-15	2.188506E-17
5.380000E+03	1.364949E-15	2.191663E-17
5.390000E+03	1.355640E-15	2.191873E-17
5.400000E+03	1.344883E-15	2.189284E-17
5.410000E+03	1.332805E-15	2.184063E-17
5.420000E+03	1.319564E-15	2.176433E-17
5.430000E+03	1.305384E-15	2.166735E-17
5.440000E+03	1.290465E-15	2.155281E-17
5.450000E+03	1.275020E-15	2.142411E-17
5.460000E+03	1.259300E-15	2.128543E-17
5.470000E+03	1.243500E-15	2.114011E-17
5.480000E+03	1.227833E-15	2.099182E-17
5.490000E+03	1.212503E-15	2.084419E-17
5.500000E+03	1.197681E-15	2.070037E-17
5.510000E+03	1.183503E-15	2.056296E-17
5.520000E+03	1.170092E-15	2.043434E-17
5.530000E+03	1.157556E-15	2.031670E-17
5.540000E+03	1.145946E-15	2.021124E-17
5.550000E+03	1.135348E-15	2.011980E-17
5.560000E+03	1.125773E-15	2.004290E-17
5.570000E+03	1.117255E-15	1.998145E-17
5.580000E+03	1.109789E-15	1.993568E-17
5.590000E+03	1.103399E-15	1.990633E-17
5.600000E+03	1.098059E-15	1.989319E-17
5.610000E+03	1.093770E-15	1.989661E-17
5.620000E+03	1.090531E-15	1.991683E-17
5.630000E+03	1.088304E-15	1.995341E-17
5.640000E+03	1.087092E-15	2.000663E-17
5.650000E+03	1.086843E-15	2.007581E-17
5.660000E+03	1.087541E-15	2.016082E-17
5.670000E+03	1.089111E-15	2.026052E-17
5.680000E+03	1.091507E-15	2.037422E-17
5.690000E+03	1.094623E-15	2.050009E-17
5.700000E+03	1.098363E-15	2.063650E-17
5.710000E+03	1.102606E-15	2.078125E-17
5.720000E+03	1.107208E-15	2.093176E-17
5.730000E+03	1.112003E-15	2.108494E-17
5.740000E+03	1.116836E-15	2.123786E-17
5.750000E+03	1.121519E-15	2.138698E-17
5.760000E+03	1.125889E-15	2.152916E-17
5.770000E+03	1.129755E-15	2.166069E-17
5.780000E+03	1.132978E-15	2.177887E-17
5.790000E+03	1.135407E-15	2.188069E-17
5.800000E+03	1.136921E-15	2.196372E-17
5.810000E+03	1.137428E-15	2.202611E-17
5.820000E+03	1.136858E-15	2.206635E-17
5.830000E+03	1.135196E-15	2.208407E-17
5.840000E+03	1.132438E-15	2.207908E-17
5.850000E+03	1.128628E-15	2.205215E-17
5.860000E+03	1.123853E-15	2.200490E-17
5.870000E+03	1.118195E-15	2.193887E-17
5.880000E+03	1.111795E-15	2.185678E-17
5.890000E+03	1.104802E-15	2.176154E-17
5.900000E+03	1.097370E-15	2.165618E-17
5.910000E+03	1.089669E-15	2.154406E-17
5.920000E+03	1.081883E-15	2.142886E-17
5.930000E+03	1.074160E-15	2.131359E-17
5.940000E+03	1.066685E-15	2.120195E-17
5.950000E+03	1.059575E-15	2.109635E-17
5.960000E+03	1.052990E-15	2.100013E-17
5.970000E+03	1.047015E-15	2.091504E-17
5.980000E+03	1.041760E-15	2.084340E-17
5.990000E+03	1.037282E-15	2.078648E-17
6.000000E+03	1.033621E-15	2.074523E-17
6.010000E+03	1.030787E-15	2.071994E-17
6.020000E+03	1.028784E-15	2.071081E-17
6.030000E+03	1.027582E-15	2.071738E-17
6.040000E+03	1.027120E-15	2.073854E-17
6.050000E+03	1.027314E-15	2.077268E-17
6.060000E+03	1.028096E-15	2.081853E-17
6.070000E+03	1.029335E-15	2.087351E-17
6.080000E+03	1.030918E-15	2.093546E-17
6.090000E+03	1.032699E-15	2.100143E-17
6.100000E+03	1.034530E-15	2.106850E-17
6.110000E+03	1.036256E-15	2.113355E-17
6.120000E+03	1.037707E-15	2.119315E-17
6.130000E+03	1.038724E-15	2.124405E-17
6.140000E+03	1.039148E-15	2.128302E-17
6.150000E+03	1.038825E-15	2.130689E-17
6.160000E+03	1.037605E-15	2.131254E-17
6.170000E+03	1.035378E-15	2.129769E-17
6.180000E+03	1.032030E-15	2.125988E-17
6.190000E+03	1.027468E-15	2.119709E-17
6.200000E+03	1.021596E-15	2.110718E-17
6.210000E+03	1.014382E-15	2.098938E-17
6.220000E+03	1.005782E-15	2.084263E-17
6.230000E+03	9.957863E-16	2.066660E-17
6.240000E+03	9.844272E-16	2.046178E-17
6.250000E+03	9.717526E-16	2.022904E-17
6.260000E+03	9.578854E-16	1.997080E-17
6.270000E+03	9.429688E-16	1.968991E-17
6.280000E+03	9.272141E-16	1.939068E-17
6.290000E+03	9.108770E-16	1.907836E-17
6.300000E+03	8.942394E-16	1.875879E-17
6.310000E+03	8.776072E-16	1.843836E-17
6.320000E+03	8.612973E-16	1.812372E-17
6.330000E+03	8.456409E-16	1.782186E-17
6.340000E+03	8.309180E-16	1.753875E-17
6.350000E+03	8.174153E-16	1.728053E-17
6.360000E+03	8.053640E-16	1.705220E-17
6.370000E+03	7.949425E-16	1.685768E-17
6.380000E+03	7.863113E-16	1.670050E-17
6.390000E+03	7.795371E-16	1.658226E-17
6.400000E+03	7.746571E-16	1.650392E-17
6.410000E+03	7.716562E-16	1.646532E-17
6.420000E+03	7.704614E-16	1.646508E-17
6.430000E+03	7.709556E-16	1.650084E-17
6.440000E+03	7.729911E-16	1.656960E-17
6.450000E+03	7.763888E-16	1.666765E-17
6.460000E+03	7.809457E-16	1.679074E-17
6.470000E+03	7.864333E-16	1.693404E-17
6.480000E+03	7.926208E-16	1.709266E-17
6.490000E+03	7.992838E-16	1.726179E-17
6.500000E+03	8.061779E-16	1.743619E-17
6.510000E+03	8.130980E-16	1.761141E-17
6.520000E+03	8.198180E-16	1.778253E-17
6.530000E+03	8.261653E-16	1.794577E-17
6.540000E+03	8.320105E-16	1.809827E-17
6.550000E+03	8.372253E-16	1.823717E-17
6.560000E+03	8.417640E-16	1.836139E-17
6.570000E+03	8.455907E-16	1.847008E-17
6.580000E+03	8.487024E-16	1.856310E-17
6.590000E+03	8.511511E-16	1.864151E-17
6.600000E+03	8.529823E-16	1.870624E-17
6.610000E+03	8.542642E-16	1.875872E-17
6.620000E+03	8.550708E-16	1.880053E-17
6.630000E+03	8.554756E-16	1.883323E-17
6.640000E+03	8.555541E-16	1.885844E-17
6.650000E+03	8.553514E-16	1.887714E-17
6.660000E+03	8.549067E-16	1.889015E-17
6.670000E+03	8.542516E-16	1.889816E-17
6.680000E+03	8.533910E-16	1.890125E-17
6.690000E+03	8.523042E-16	1.889894E-17
6.700000E+03	8.509851E-16	1.889108E-17
6.710000E+03	8.493782E-16	1.887642E-17
6.720000E+03	8.474498E-16	1.885419E-17
6.730000E+03	8.451534E-16	1.882333E-17
6.740000E+03	8.424432E-16	1.878278E-17
6.750000E+03	8.392783E-16	1.873163E-17
6.760000E+03	8.356346E-16	1.866929E-17
6.770000E+03	8.314797E-16	1.859502E-17
6.780000E+03	8.268123E-16	1.850876E-17
6.790000E+03	8.216250E-16	1.841032E-17
6.800000E+03	8.159334E-16	1.830002E-17
6.810000E+03	8.097844E-16	1.817890E-17
6.820000E+03	8.031990E-16	1.804741E-17
6.830000E+03	7.962271E-16	1.790665E-17
6.840000E+03	7.889441E-16	1.775832E-17
6.850000E+03	7.813943E-16	1.760342E-17
6.860000E+03	7.736519E-16	1.744360E-17
6.870000E+03	7.657821E-16	1.728035E-17
6.880000E+03	7.578480E-16	1.711509E-17
6.890000E+03	7.499083E-16	1.694918E-17
6.900000E+03	7.420161E-16	1.678382E-17
6.910000E+03	7.342085E-16	1.661987E-17
6.920000E+03	7.265411E-16	1.645862E-17
6.930000E+03	7.190273E-16	1.630039E-17
6.940000E+03	7.117066E-16	1.614610E-17
6.950000E+03	7.045777E-16	1.599575E-17
6.960000E+03	6.976663E-16	1.584994E-17
6.970000E+03	6.909592E-16	1.570841E-17
6.980000E+03	6.844633E-16	1.557133E-17
6.990000E+03	6.781727E-16	1.543860E-17
7.000000E+03	6.720786E-16	1.531004E-17
7.010000E+03	6.661607E-16	1.518522E-17
7.020000E+03	6.604202E-16	1.506418E-17
7.030000E+03	6.548247E-16	1.494620E-17
7.040000E+03	6.493556E-16	1.483090E-17
7.050000E+03	6.440087E-16	1.471818E-17
7.060000E+03	6.387399E-16	1.460707E-17
7.070000E+03	6.335516E-16	1.449763E-17
7.080000E+03	6.284001E-16	1.438889E-17
7.090000E+03	6.232819E-16	1.428078E-17
7.100000E+03	6.181795E-16	1.417292E-17
7.110000E+03	6.130636E-16	1.406465E-17
7.120000E+03	6.079385E-16	1.395608E-17
7.130000E+03	6.027901E-16	1.384691E-17
7.140000E+03	5.976166E-16	1.373710E-17
7.150000E+03	5.924141E-16	1.362659E-17
7.160000E+03	5.872059E-16	1.351591E-17
7.170000E+03	5.819913E-16	1.340507E-17
7.180000E+03	5.768040E-16	1.329486E-17
7.190000E+03	5.716462E-16	1.318533E-17
7.200000E+03	5.665670E-16	1.307765E-17
7.210000E+03	5.615834E-16	1.297222E-17
7.220000E+03	5.567282E-16	1.286981E-17
7.230000E+03	5.520424E-16	1.277139E-17
7.240000E+03	5.475525E-16	1.267760E-17
7.250000E+03	5.432900E-16	1.258919E-17
7.260000E+03	5.392899E-16	1.250699E-17
7.270000E+03	5.355621E-16	1.243127E-17
7.280000E+03	5.321377E-16	1.236277E-17
7.290000E+03	5.290209E-16	1.230162E-17
7.300000E+03	5.262083E-16	1.224778E-17
7.310000E+03	5.237090E-16	1.220149E-17
7.320000E+03	5.214982E-16	1.216220E-17
7.330000E+03	5.195636E-16	1.212967E-17
7.340000E+03	5.178800E-16	1.210335E-17
7.350000E+03	5.164174E-16	1.208255E-17
7.360000E+03	5.151413E-16	1.206651E-17
7.370000E+03	5.140078E-16	1.205423E-17
7.380000E+03	5.129841E-16	1.204496E-17
7.390000E+03	5.120301E-16	1.203779E-17
7.400000E+03	5.111058E-16	1.203180E-17
7.410000E+03	5.101714E-16	1.202606E-17
7.420000E+03	5.091822E-16	1.201955E-17
7.430000E+03	5.081148E-16	1.201171E-17
7.440000E+03	5.069346E-16	1.200174E-17
7.450000E+03	5.056037E-16	1.198873E-17
7.460000E+03	5.040996E-16	1.197215E-17
7.470000E+03	5.023838E-16	1.195106E-17
7.480000E+03	5.004408E-16	1.192505E-17
7.490000E+03	4.982521E-16	1.189363E-17
7.500000E+03	4.957967E-16	1.185625E-17
7.510000E+03	4.930701E-16	1.181274E-17
7.520000E+03	4.900590E-16	1.176274E-17
7.530000E+03	4.867664E-16	1.170624E-17
7.540000E+03	4.831868E-16	1.164306E-17
7.550000E+03	4.793243E-16	1.157324E-17
7.560000E+03	4.751865E-16	1.149688E-17
7.570000E+03	4.707841E-16	1.141419E-17
7.580000E+03	4.661366E-16	1.132557E-17
7.590000E+03	4.612472E-16	1.123105E-17
7.600000E+03	4.561461E-16	1.113128E-17
7.610000E+03	4.508470E-16	1.102656E-17
7.620000E+03	4.453717E-16	1.091735E-17
7.630000E+03	4.397444E-16	1.080420E-17
7.640000E+03	4.339971E-16	1.068784E-17
7.650000E+03	4.281471E-16	1.056865E-17
7.660000E+03	4.222309E-16	1.044750E-17
7.670000E+03	4.162875E-16	1.032532E-17
7.680000E+03	4.103462E-16	1.020281E-17
7.690000E+03	4.044381E-16	1.008072E-17
7.700000E+03	3.986110E-16	9.960226E-18
7.710000E+03	3.929018E-16	9.842253E-18
7.720000E+03	3.873359E-16	9.727438E-18
7.730000E+03	3.819579E-16	9.616914E-18
7.740000E+03	3.767892E-16	9.511237E-18
7.750000E+03	3.718685E-16	9.411411E-18
7.760000E+03	3.672207E-16	9.318099E-18
