#wls	flux	fluxerr
1.600000E+03	9.346340E-17	1.837246E-18
1.640000E+03	9.498971E-17	1.860252E-18
1.680000E+03	9.657808E-17	1.884065E-18
1.720000E+03	9.821079E-17	1.908311E-18
1.760000E+03	9.990607E-17	1.933322E-18
1.800000E+03	1.016832E-16	1.959439E-18
1.840000E+03	1.035238E-16	1.986275E-18
1.880000E+03	1.054473E-16	2.014172E-18
1.920000E+03	1.074544E-16	2.043101E-18
1.960000E+03	1.095450E-16	2.073027E-18
2.000000E+03	1.117193E-16	2.103910E-18
2.040000E+03	1.139768E-16	2.135699E-18
2.080000E+03	1.163587E-16	2.169120E-18
2.120000E+03	1.188231E-16	2.203339E-18
2.160000E+03	1.214115E-16	2.239075E-18
2.200000E+03	1.241018E-16	2.275859E-18
2.240000E+03	1.269141E-16	2.314006E-18
2.280000E+03	1.298694E-16	2.353830E-18
2.320000E+03	1.329434E-16	2.394822E-18
2.360000E+03	1.361792E-16	2.437682E-18
2.400000E+03	1.395511E-16	2.481872E-18
2.440000E+03	1.430789E-16	2.527658E-18
2.480000E+03	1.467818E-16	2.575294E-18
2.520000E+03	1.506555E-16	2.624604E-18
2.560000E+03	1.547183E-16	2.675802E-18
2.600000E+03	1.589885E-16	2.729095E-18
2.640000E+03	1.634835E-16	2.784656E-18
2.680000E+03	1.681956E-16	2.842224E-18
2.720000E+03	1.731653E-16	2.902345E-18
2.760000E+03	1.784081E-16	2.965122E-18
2.800000E+03	1.839386E-16	3.030628E-18
2.840000E+03	1.897702E-16	3.098908E-18
2.880000E+03	1.959414E-16	3.170395E-18
2.920000E+03	2.024901E-16	3.245486E-18
2.960000E+03	2.094797E-16	3.324953E-18
3.000000E+03	2.168978E-16	3.408329E-18
3.010000E+03	2.188218E-16	3.429791E-18
3.020000E+03	2.208114E-16	3.452084E-18
3.030000E+03	2.227902E-16	3.474005E-18
3.040000E+03	2.248343E-16	3.496740E-18
3.050000E+03	2.269181E-16	3.519881E-18
3.060000E+03	2.290161E-16	3.543028E-18
3.070000E+03	2.311536E-16	3.566569E-18
3.080000E+03	2.333558E-16	3.590885E-18
3.090000E+03	2.355720E-16	3.615189E-18
3.100000E+03	2.378274E-16	3.639863E-18
3.110000E+03	2.401474E-16	3.665290E-18
3.120000E+03	2.424812E-16	3.690686E-18
3.130000E+03	2.448795E-16	3.716819E-18
3.140000E+03	2.473424E-16	3.743678E-18
3.150000E+03	2.498192E-16	3.770492E-18
3.160000E+03	2.523607E-16	3.798019E-18
3.170000E+03	2.549418E-16	3.825875E-18
3.180000E+03	2.575879E-16	3.854431E-18
3.190000E+03	2.602992E-16	3.883683E-18
3.200000E+03	2.630506E-16	3.913245E-18
3.210000E+03	2.658677E-16	3.943494E-18
3.220000E+03	2.687510E-16	3.974421E-18
3.230000E+03	2.717006E-16	4.006024E-18
3.240000E+03	2.746921E-16	4.037929E-18
3.250000E+03	2.777762E-16	4.070873E-18
3.260000E+03	2.809032E-16	4.104118E-18
3.270000E+03	2.841243E-16	4.138400E-18
3.280000E+03	2.874148E-16	4.173346E-18
3.290000E+03	2.907758E-16	4.208962E-18
3.300000E+03	2.942331E-16	4.245609E-18
3.310000E+03	2.977628E-16	4.282926E-18
3.320000E+03	3.013910E-16	4.321280E-18
3.330000E+03	3.051189E-16	4.360668E-18
3.340000E+03	3.089228E-16	4.400740E-18
3.350000E+03	3.128292E-16	4.441859E-18
3.360000E+03	3.168397E-16	4.484029E-18
3.370000E+03	3.209557E-16	4.527258E-18
3.380000E+03	3.251792E-16	4.571553E-18
3.390000E+03	3.295370E-16	4.617275E-18
3.400000E+03	3.340061E-16	4.664080E-18
3.410000E+03	3.385886E-16	4.711980E-18
3.420000E+03	3.433117E-16	4.761335E-18
3.430000E+03	3.481527E-16	4.811808E-18
3.440000E+03	3.531388E-16	4.863755E-18
3.450000E+03	3.582727E-16	4.917189E-18
3.460000E+03	3.635567E-16	4.972119E-18
3.470000E+03	3.689934E-16	5.028555E-18
3.480000E+03	3.746101E-16	5.086844E-18
3.490000E+03	3.803595E-16	5.146316E-18
3.500000E+03	3.862937E-16	5.207654E-18
3.510000E+03	3.924149E-16	5.270856E-18
3.520000E+03	3.987001E-16	5.335585E-18
3.530000E+03	4.052008E-16	5.402501E-18
3.540000E+03	4.118686E-16	5.470924E-18
3.550000E+03	4.187290E-16	5.541166E-18
3.560000E+03	4.258073E-16	5.613530E-18
3.570000E+03	4.330531E-16	5.687318E-18
3.580000E+03	4.405401E-16	5.763467E-18
3.590000E+03	4.482164E-16	5.841258E-18
3.600000E+03	4.561037E-16	5.920945E-18
3.610000E+03	4.641725E-16	6.002111E-18
3.620000E+03	4.724677E-16	6.085303E-18
3.630000E+03	4.809571E-16	6.170072E-18
3.640000E+03	4.896324E-16	6.256278E-18
3.650000E+03	4.984837E-16	6.343765E-18
3.660000E+03	5.075502E-16	6.432999E-18
3.670000E+03	5.167685E-16	6.523144E-18
3.680000E+03	5.261240E-16	6.613992E-18
3.690000E+03	5.356512E-16	6.705950E-18
3.700000E+03	5.453076E-16	6.798459E-18
3.710000E+03	5.550743E-16	6.891261E-18
3.720000E+03	5.649564E-16	6.984402E-18
3.730000E+03	5.749075E-16	7.077288E-18
3.740000E+03	5.849304E-16	7.169943E-18
3.750000E+03	5.949770E-16	7.261764E-18
3.760000E+03	6.050737E-16	7.353069E-18
3.770000E+03	6.151709E-16	7.443247E-18
3.780000E+03	6.252186E-16	7.531696E-18
3.790000E+03	6.352422E-16	7.618724E-18
3.800000E+03	6.452166E-16	7.704038E-18
3.810000E+03	6.550921E-16	7.787052E-18
3.820000E+03	6.648442E-16	7.867494E-18
3.830000E+03	6.744992E-16	7.945690E-18
3.840000E+03	6.839845E-16	8.020807E-18
3.850000E+03	6.932785E-16	8.092620E-18
3.860000E+03	7.024101E-16	8.161495E-18
3.870000E+03	7.113354E-16	8.226953E-18
3.880000E+03	7.200367E-16	8.288825E-18
3.890000E+03	7.284983E-16	8.346965E-18
3.900000E+03	7.367056E-16	8.401252E-18
3.910000E+03	7.446459E-16	8.451582E-18
3.920000E+03	7.523078E-16	8.497873E-18
3.930000E+03	7.597046E-16	8.540321E-18
3.940000E+03	7.667806E-16	8.578352E-18
3.950000E+03	7.735744E-16	8.612448E-18
3.960000E+03	7.800554E-16	8.642320E-18
3.970000E+03	7.862174E-16	8.667956E-18
3.980000E+03	7.920323E-16	8.689101E-18
3.990000E+03	7.975393E-16	8.706247E-18
4.000000E+03	8.026897E-16	8.718918E-18
4.010000E+03	8.075017E-16	8.727374E-18
4.020000E+03	8.119515E-16	8.731419E-18
4.030000E+03	8.160590E-16	8.731331E-18
4.040000E+03	8.198038E-16	8.726953E-18
4.050000E+03	8.231886E-16	8.718381E-18
4.060000E+03	8.261987E-16	8.705522E-18
4.070000E+03	8.288624E-16	8.688741E-18
4.080000E+03	8.311512E-16	8.667805E-18
4.090000E+03	8.331186E-16	8.643334E-18
4.100000E+03	8.347615E-16	8.615358E-18
4.110000E+03	8.360619E-16	8.583749E-18
4.120000E+03	8.370610E-16	8.548992E-18
4.130000E+03	8.377821E-16	8.511380E-18
4.140000E+03	8.382317E-16	8.471029E-18
4.150000E+03	8.384348E-16	8.428243E-18
4.160000E+03	8.383981E-16	8.383137E-18
4.170000E+03	8.381280E-16	8.335820E-18
4.180000E+03	8.376630E-16	8.286718E-18
4.190000E+03	8.370046E-16	8.235885E-18
4.200000E+03	8.361516E-16	8.183350E-18
4.210000E+03	8.351161E-16	8.129267E-18
4.220000E+03	8.338901E-16	8.073598E-18
4.230000E+03	8.324777E-16	8.016420E-18
4.240000E+03	8.308639E-16	7.957626E-18
4.250000E+03	8.290454E-16	7.897226E-18
4.260000E+03	8.270012E-16	7.835062E-18
4.270000E+03	8.247082E-16	7.770958E-18
4.280000E+03	8.221705E-16	7.705000E-18
4.290000E+03	8.193619E-16	7.636990E-18
4.300000E+03	8.162570E-16	7.566743E-18
4.310000E+03	8.128319E-16	7.494089E-18
4.320000E+03	8.090911E-16	7.419129E-18
4.330000E+03	8.050149E-16	7.341736E-18
4.340000E+03	8.005878E-16	7.261827E-18
4.350000E+03	7.958241E-16	7.179591E-18
4.360000E+03	7.907057E-16	7.094921E-18
4.370000E+03	7.852574E-16	7.008096E-18
4.380000E+03	7.794854E-16	6.919226E-18
4.390000E+03	7.734146E-16	6.828582E-18
4.400000E+03	7.670760E-16	6.736483E-18
4.410000E+03	7.604954E-16	6.643196E-18
4.420000E+03	7.537375E-16	6.549322E-18
4.430000E+03	7.468282E-16	6.455113E-18
4.440000E+03	7.398201E-16	6.361045E-18
4.450000E+03	7.327799E-16	6.267703E-18
4.460000E+03	7.257459E-16	6.175419E-18
4.470000E+03	7.187892E-16	6.084798E-18
4.480000E+03	7.119614E-16	5.996265E-18
4.490000E+03	7.053243E-16	5.910322E-18
4.500000E+03	6.989190E-16	5.827290E-18
4.510000E+03	6.928130E-16	5.747701E-18
4.520000E+03	6.870603E-16	5.671964E-18
4.530000E+03	6.816925E-16	5.600300E-18
4.540000E+03	6.767542E-16	5.533030E-18
4.550000E+03	6.722919E-16	5.470482E-18
4.560000E+03	6.683189E-16	5.412715E-18
4.570000E+03	6.648667E-16	5.359931E-18
4.580000E+03	6.619495E-16	5.312192E-18
4.590000E+03	6.595566E-16	5.269359E-18
4.600000E+03	6.577011E-16	5.231489E-18
4.610000E+03	6.563542E-16	5.198306E-18
4.620000E+03	6.555026E-16	5.169663E-18
4.630000E+03	6.551158E-16	5.145283E-18
4.640000E+03	6.551553E-16	5.124830E-18
4.650000E+03	6.555747E-16	5.107917E-18
4.660000E+03	6.563132E-16	5.094051E-18
4.670000E+03	6.573275E-16	5.082884E-18
4.680000E+03	6.585395E-16	5.073806E-18
4.690000E+03	6.598987E-16	5.066429E-18
4.700000E+03	6.613236E-16	5.060137E-18
4.710000E+03	6.627568E-16	5.054502E-18
4.720000E+03	6.641364E-16	5.049070E-18
4.730000E+03	6.653912E-16	5.043325E-18
4.740000E+03	6.664730E-16	5.036924E-18
4.750000E+03	6.673352E-16	5.029546E-18
4.760000E+03	6.679430E-16	5.020957E-18
4.770000E+03	6.682659E-16	5.010957E-18
4.780000E+03	6.683004E-16	4.999550E-18
4.790000E+03	6.680325E-16	4.986655E-18
4.800000E+03	6.675078E-16	4.972640E-18
4.810000E+03	6.667421E-16	4.957636E-18
4.820000E+03	6.657762E-16	4.941951E-18
4.830000E+03	6.646464E-16	4.925855E-18
4.840000E+03	6.634049E-16	4.909730E-18
4.850000E+03	6.620695E-16	4.893701E-18
4.860000E+03	6.606940E-16	4.878158E-18
4.870000E+03	6.593088E-16	4.863317E-18
4.880000E+03	6.579481E-16	4.849416E-18
4.890000E+03	6.566342E-16	4.836600E-18
4.900000E+03	6.553920E-16	4.825034E-18
4.910000E+03	6.542290E-16	4.814756E-18
4.920000E+03	6.531718E-16	4.805941E-18
4.930000E+03	6.522311E-16	4.798648E-18
4.940000E+03	6.514166E-16	4.792933E-18
4.950000E+03	6.507371E-16	4.788840E-18
4.960000E+03	6.501995E-16	4.786407E-18
4.970000E+03	6.498167E-16	4.785710E-18
4.980000E+03	6.495927E-16	4.786764E-18
4.990000E+03	6.495367E-16	4.789622E-18
5.000000E+03	6.496356E-16	4.794175E-18
5.010000E+03	6.499088E-16	4.800553E-18
5.020000E+03	6.503407E-16	4.808630E-18
5.030000E+03	6.509278E-16	4.818367E-18
5.040000E+03	6.516868E-16	4.829878E-18
5.050000E+03	6.525934E-16	4.842972E-18
5.060000E+03	6.536578E-16	4.857717E-18
5.070000E+03	6.548709E-16	4.874034E-18
5.080000E+03	6.562385E-16	4.891960E-18
5.090000E+03	6.577619E-16	4.911497E-18
5.100000E+03	6.594448E-16	4.932665E-18
5.110000E+03	6.612934E-16	4.955504E-18
5.120000E+03	6.633173E-16	4.980079E-18
5.130000E+03	6.655353E-16	5.006529E-18
5.140000E+03	6.679556E-16	5.034912E-18
5.150000E+03	6.705957E-16	5.065357E-18
5.160000E+03	6.734818E-16	5.098063E-18
5.170000E+03	6.766349E-16	5.133189E-18
5.180000E+03	6.800696E-16	5.170848E-18
5.190000E+03	6.838212E-16	5.211314E-18
5.200000E+03	6.878963E-16	5.254644E-18
5.210000E+03	6.923207E-16	5.301043E-18
5.220000E+03	6.971176E-16	5.350697E-18
5.230000E+03	7.022930E-16	5.403666E-18
5.240000E+03	7.078555E-16	5.460026E-18
5.250000E+03	7.138092E-16	5.519822E-18
5.260000E+03	7.201676E-16	5.583175E-18
5.270000E+03	7.269022E-16	5.649876E-18
5.280000E+03	7.340225E-16	5.720015E-18
5.290000E+03	7.414954E-16	5.793346E-18
5.300000E+03	7.493115E-16	5.869809E-18
5.310000E+03	7.574258E-16	5.949062E-18
5.320000E+03	7.658175E-16	6.030953E-18
5.330000E+03	7.744459E-16	6.115167E-18
5.340000E+03	7.832580E-16	6.201289E-18
5.350000E+03	7.922119E-16	6.288991E-18
5.360000E+03	8.012551E-16	6.377853E-18
5.370000E+03	8.103409E-16	6.467498E-18
5.380000E+03	8.194047E-16	6.557402E-18
5.390000E+03	8.283984E-16	6.647167E-18
5.400000E+03	8.372745E-16	6.736395E-18
5.410000E+03	8.459623E-16	6.824498E-18
5.420000E+03	8.544276E-16	6.911175E-18
5.430000E+03	8.626230E-16	6.996017E-18
5.440000E+03	8.704972E-16	7.078578E-18
5.450000E+03	8.780299E-16	7.158661E-18
5.460000E+03	8.851809E-16	7.235901E-18
5.470000E+03	8.919243E-16	7.310053E-18
5.480000E+03	8.982494E-16	7.380989E-18
5.490000E+03	9.041425E-16	7.448560E-18
5.500000E+03	9.095865E-16	7.512586E-18
5.510000E+03	9.145782E-16	7.572999E-18
5.520000E+03	9.191281E-16	7.629849E-18
5.530000E+03	9.232411E-16	7.683137E-18
5.540000E+03	9.269161E-16	7.732817E-18
5.550000E+03	9.301629E-16	7.778933E-18
5.560000E+03	9.329926E-16	7.821544E-18
5.570000E+03	9.354172E-16	7.860714E-18
5.580000E+03	9.374485E-16	7.896509E-18
5.590000E+03	9.390886E-16	7.928916E-18
5.600000E+03	9.403481E-16	7.957992E-18
5.610000E+03	9.412460E-16	7.983868E-18
5.620000E+03	9.417721E-16	8.006430E-18
5.630000E+03	9.419339E-16	8.025712E-18
5.640000E+03	9.417472E-16	8.041822E-18
5.650000E+03	9.412084E-16	8.054703E-18
5.660000E+03	9.403223E-16	8.064373E-18
5.670000E+03	9.390939E-16	8.070848E-18
5.680000E+03	9.375182E-16	8.074064E-18
5.690000E+03	9.355998E-16	8.074037E-18
5.700000E+03	9.333439E-16	8.070791E-18
5.710000E+03	9.307653E-16	8.064432E-18
5.720000E+03	9.278524E-16	8.054840E-18
5.730000E+03	9.246132E-16	8.042067E-18
5.740000E+03	9.210663E-16	8.026257E-18
5.750000E+03	9.172145E-16	8.007418E-18
5.760000E+03	9.130715E-16	7.985655E-18
5.770000E+03	9.086631E-16	7.961178E-18
5.780000E+03	9.039910E-16	7.933993E-18
5.790000E+03	8.990782E-16	7.904288E-18
5.800000E+03	8.939684E-16	7.872441E-18
5.810000E+03	8.886653E-16	7.838476E-18
5.820000E+03	8.832192E-16	7.802832E-18
5.830000E+03	8.776660E-16	7.765822E-18
5.840000E+03	8.720268E-16	7.727633E-18
5.850000E+03	8.663509E-16	7.688701E-18
5.860000E+03	8.606884E-16	7.649472E-18
5.870000E+03	8.550639E-16	7.610170E-18
5.880000E+03	8.495186E-16	7.571168E-18
5.890000E+03	8.441086E-16	7.532972E-18
5.900000E+03	8.388453E-16	7.495693E-18
5.910000E+03	8.337777E-16	7.459779E-18
5.920000E+03	8.289339E-16	7.425489E-18
5.930000E+03	8.243195E-16	7.392887E-18
5.940000E+03	8.199670E-16	7.362275E-18
5.950000E+03	8.158777E-16	7.333677E-18
5.960000E+03	8.120462E-16	7.307054E-18
5.970000E+03	8.084843E-16	7.282524E-18
5.980000E+03	8.051729E-16	7.259925E-18
5.990000E+03	8.020951E-16	7.239115E-18
6.000000E+03	7.992281E-16	7.219895E-18
6.010000E+03	7.965442E-16	7.202025E-18
6.020000E+03	7.940123E-16	7.185229E-18
6.030000E+03	7.916062E-16	7.169276E-18
6.040000E+03	7.892743E-16	7.153705E-18
6.050000E+03	7.870042E-16	7.138405E-18
6.060000E+03	7.847446E-16	7.122918E-18
6.070000E+03	7.824772E-16	7.107078E-18
6.080000E+03	7.801551E-16	7.090462E-18
6.090000E+03	7.777733E-16	7.073027E-18
6.100000E+03	7.752919E-16	7.054411E-18
6.110000E+03	7.727130E-16	7.034637E-18
6.120000E+03	7.700046E-16	7.013414E-18
6.130000E+03	7.671691E-16	6.990766E-18
6.140000E+03	7.641893E-16	6.966539E-18
6.150000E+03	7.610666E-16	6.940748E-18
6.160000E+03	7.577974E-16	6.913362E-18
6.170000E+03	7.543579E-16	6.884168E-18
6.180000E+03	7.507572E-16	6.853252E-18
6.190000E+03	7.469919E-16	6.820585E-18
6.200000E+03	7.430916E-16	6.786439E-18
6.210000E+03	7.390600E-16	6.750852E-18
6.220000E+03	7.349209E-16	6.714044E-18
6.230000E+03	7.306820E-16	6.676089E-18
6.240000E+03	7.263790E-16	6.637316E-18
6.250000E+03	7.220382E-16	6.597971E-18
6.260000E+03	7.176904E-16	6.558340E-18
6.270000E+03	7.133840E-16	6.518869E-18
6.280000E+03	7.091481E-16	6.479829E-18
6.290000E+03	7.050426E-16	6.441771E-18
6.300000E+03	7.010920E-16	6.404924E-18
6.310000E+03	6.973504E-16	6.369784E-18
6.320000E+03	6.938707E-16	6.336841E-18
6.330000E+03	6.906905E-16	6.306438E-18
6.340000E+03	6.878444E-16	6.278895E-18
6.350000E+03	6.853849E-16	6.254691E-18
6.360000E+03	6.833378E-16	6.234064E-18
6.370000E+03	6.817304E-16	6.217260E-18
6.380000E+03	6.805825E-16	6.204460E-18
6.390000E+03	6.799134E-16	6.195836E-18
6.400000E+03	6.797195E-16	6.191352E-18
6.410000E+03	6.800103E-16	6.191089E-18
6.420000E+03	6.807587E-16	6.194797E-18
6.430000E+03	6.819586E-16	6.202413E-18
6.440000E+03	6.835835E-16	6.213690E-18
6.450000E+03	6.855946E-16	6.228271E-18
6.460000E+03	6.879706E-16	6.245953E-18
6.470000E+03	6.906718E-16	6.266371E-18
6.480000E+03	6.936474E-16	6.289059E-18
6.490000E+03	6.968651E-16	6.313717E-18
6.500000E+03	7.002679E-16	6.339824E-18
6.510000E+03	7.038182E-16	6.367037E-18
6.520000E+03	7.074399E-16	6.394663E-18
6.530000E+03	7.111016E-16	6.422415E-18
6.540000E+03	7.147342E-16	6.449671E-18
6.550000E+03	7.182932E-16	6.476028E-18
6.560000E+03	7.217130E-16	6.500899E-18
6.570000E+03	7.249699E-16	6.524073E-18
6.580000E+03	7.279967E-16	6.544950E-18
6.590000E+03	7.307691E-16	6.563320E-18
6.600000E+03	7.332512E-16	6.578868E-18
6.610000E+03	7.354026E-16	6.591244E-18
6.620000E+03	7.371952E-16	6.600204E-18
6.630000E+03	7.386118E-16	6.605611E-18
6.640000E+03	7.396311E-16	6.607285E-18
6.650000E+03	7.402347E-16	6.605079E-18
6.660000E+03	7.403985E-16	6.598796E-18
6.670000E+03	7.401262E-16	6.588483E-18
6.680000E+03	7.393990E-16	6.573995E-18
6.690000E+03	7.382088E-16	6.555278E-18
6.700000E+03	7.365505E-16	6.532308E-18
6.710000E+03	7.344297E-16	6.505155E-18
6.720000E+03	7.318467E-16	6.473844E-18
6.730000E+03	7.288050E-16	6.438428E-18
6.740000E+03	7.253115E-16	6.398990E-18
6.750000E+03	7.213851E-16	6.355720E-18
6.760000E+03	7.170316E-16	6.308692E-18
6.770000E+03	7.122692E-16	6.258088E-18
6.780000E+03	7.071279E-16	6.204193E-18
6.790000E+03	7.016328E-16	6.147249E-18
6.800000E+03	6.958127E-16	6.087530E-18
6.810000E+03	6.896991E-16	6.025328E-18
6.820000E+03	6.833336E-16	5.961028E-18
6.830000E+03	6.767439E-16	5.894887E-18
6.840000E+03	6.699742E-16	5.827306E-18
6.850000E+03	6.630540E-16	5.758556E-18
6.860000E+03	6.560277E-16	5.689035E-18
6.870000E+03	6.489311E-16	5.619065E-18
6.880000E+03	6.417988E-16	5.548954E-18
6.890000E+03	6.346629E-16	5.478990E-18
6.900000E+03	6.275614E-16	5.409505E-18
6.910000E+03	6.205064E-16	5.340612E-18
6.920000E+03	6.135377E-16	5.272655E-18
6.930000E+03	6.066696E-16	5.205760E-18
6.940000E+03	5.999278E-16	5.140152E-18
6.950000E+03	5.933209E-16	5.075904E-18
6.960000E+03	5.868691E-16	5.013191E-18
6.970000E+03	5.805754E-16	4.952037E-18
6.980000E+03	5.744548E-16	4.892570E-18
6.990000E+03	5.685128E-16	4.834837E-18
7.000000E+03	5.627462E-16	4.778808E-18
7.010000E+03	5.571567E-16	4.724497E-18
7.020000E+03	5.517583E-16	4.672022E-18
7.030000E+03	5.465362E-16	4.621256E-18
7.040000E+03	5.414950E-16	4.572236E-18
7.050000E+03	5.366246E-16	4.524876E-18
7.060000E+03	5.319276E-16	4.479198E-18
7.070000E+03	5.273925E-16	4.435102E-18
7.080000E+03	5.230205E-16	4.392600E-18
7.090000E+03	5.188056E-16	4.351641E-18
7.100000E+03	5.147351E-16	4.312117E-18
7.110000E+03	5.108091E-16	4.274030E-18
7.120000E+03	5.070145E-16	4.237270E-18
7.130000E+03	5.033446E-16	4.201784E-18
7.140000E+03	4.997995E-16	4.167573E-18
7.150000E+03	4.963666E-16	4.134533E-18
7.160000E+03	4.930399E-16	4.102616E-18
7.170000E+03	4.898198E-16	4.071828E-18
7.180000E+03	4.866889E-16	4.042025E-18
7.190000E+03	4.836549E-16	4.013275E-18
7.200000E+03	4.807075E-16	3.985495E-18
7.210000E+03	4.778429E-16	3.958657E-18
7.220000E+03	4.750582E-16	3.932737E-18
7.230000E+03	4.723505E-16	3.907717E-18
7.240000E+03	4.697117E-16	3.883532E-18
7.250000E+03	4.671519E-16	3.860269E-18
7.260000E+03	4.646635E-16	3.837868E-18
7.270000E+03	4.622448E-16	3.816321E-18
7.280000E+03	4.598947E-16	3.795620E-18
7.290000E+03	4.576115E-16	3.775755E-18
7.300000E+03	4.553938E-16	3.756718E-18
7.310000E+03	4.532396E-16	3.738499E-18
7.320000E+03	4.511469E-16	3.721083E-18
7.330000E+03	4.491192E-16	3.704503E-18
7.340000E+03	4.471536E-16	3.688739E-18
7.350000E+03	4.452467E-16	3.673769E-18
7.360000E+03	4.433948E-16	3.659565E-18
7.370000E+03	4.415997E-16	3.646146E-18
7.380000E+03	4.398564E-16	3.633477E-18
7.390000E+03	4.381659E-16	3.621568E-18
7.400000E+03	4.365223E-16	3.610377E-18
7.410000E+03	4.349200E-16	3.599861E-18
7.420000E+03	4.333644E-16	3.590067E-18
7.430000E+03	4.318430E-16	3.580900E-18
7.440000E+03	4.303435E-16	3.572258E-18
7.450000E+03	4.288593E-16	3.564092E-18
7.460000E+03	4.273778E-16	3.556300E-18
7.470000E+03	4.258926E-16	3.548830E-18
7.480000E+03	4.243914E-16	3.541584E-18
7.490000E+03	4.228626E-16	3.534459E-18
7.500000E+03	4.213004E-16	3.527396E-18
7.510000E+03	4.196996E-16	3.520342E-18
7.520000E+03	4.180443E-16	3.513151E-18
7.530000E+03	4.163414E-16	3.505870E-18
7.540000E+03	4.145763E-16	3.498363E-18
7.550000E+03	4.127459E-16	3.490592E-18
7.560000E+03	4.108533E-16	3.482568E-18
7.570000E+03	4.088857E-16	3.474168E-18
7.580000E+03	4.068532E-16	3.465465E-18
7.590000E+03	4.047448E-16	3.456349E-18
7.600000E+03	4.025726E-16	3.446909E-18
7.610000E+03	4.003283E-16	3.437058E-18
7.620000E+03	3.980212E-16	3.426860E-18
7.630000E+03	3.956560E-16	3.416341E-18
7.640000E+03	3.932395E-16	3.405544E-18
7.650000E+03	3.907790E-16	3.394519E-18
7.660000E+03	3.882834E-16	3.383328E-18
7.670000E+03	3.857573E-16	3.371998E-18
7.680000E+03	3.832217E-16	3.360699E-18
7.690000E+03	3.806776E-16	3.349430E-18
7.700000E+03	3.781471E-16	3.338374E-18
7.710000E+03	3.756322E-16	3.327539E-18
7.720000E+03	3.731553E-16	3.317118E-18
7.730000E+03	3.707236E-16	3.307167E-18
7.740000E+03	3.683486E-16	3.297784E-18
7.750000E+03	3.660466E-16	3.289111E-18
7.760000E+03	3.638231E-16	3.281196E-18
