#wls	flux	fluxerr
1.600000E+03	5.341533E-17	1.503164E-18
1.640000E+03	5.399603E-17	1.515899E-18
1.680000E+03	5.459426E-17	1.528955E-18
1.720000E+03	5.520936E-17	1.542305E-18
1.760000E+03	5.584056E-17	1.555919E-18
1.800000E+03	5.649715E-17	1.570047E-18
1.840000E+03	5.716817E-17	1.584372E-18
1.880000E+03	5.787310E-17	1.599426E-18
1.920000E+03	5.859048E-17	1.614602E-18
1.960000E+03	5.932941E-17	1.630142E-18
2.000000E+03	6.009912E-17	1.646287E-18
2.040000E+03	6.089840E-17	1.662989E-18
2.080000E+03	6.171535E-17	1.679909E-18
2.120000E+03	6.256956E-17	1.697569E-18
2.160000E+03	6.344884E-17	1.715620E-18
2.200000E+03	6.437284E-17	1.734578E-18
2.240000E+03	6.531832E-17	1.753797E-18
2.280000E+03	6.630478E-17	1.773785E-18
2.320000E+03	6.734095E-17	1.794753E-18
2.360000E+03	6.841387E-17	1.816335E-18
2.400000E+03	6.953206E-17	1.838733E-18
2.440000E+03	7.069307E-17	1.861859E-18
2.480000E+03	7.191614E-17	1.886193E-18
2.520000E+03	7.318782E-17	1.911354E-18
2.560000E+03	7.453812E-17	1.938094E-18
2.600000E+03	7.594265E-17	1.965742E-18
2.640000E+03	7.743139E-17	1.995040E-18
2.680000E+03	7.900179E-17	2.025879E-18
2.720000E+03	8.066232E-17	2.058431E-18
2.760000E+03	8.243244E-17	2.093143E-18
2.800000E+03	8.431036E-17	2.129911E-18
2.840000E+03	8.631618E-17	2.169185E-18
2.880000E+03	8.846018E-17	2.211151E-18
2.920000E+03	9.077426E-17	2.256531E-18
2.960000E+03	9.325974E-17	2.305265E-18
3.000000E+03	9.595097E-17	2.358108E-18
3.010000E+03	9.665892E-17	2.372021E-18
3.020000E+03	9.738542E-17	2.386321E-18
3.030000E+03	9.813030E-17	2.401002E-18
3.040000E+03	9.888339E-17	2.415813E-18
3.050000E+03	9.965520E-17	2.431009E-18
3.060000E+03	1.004458E-16	2.446589E-18
3.070000E+03	1.012450E-16	2.462303E-18
3.080000E+03	1.020736E-16	2.478655E-18
3.090000E+03	1.029111E-16	2.495145E-18
3.100000E+03	1.037783E-16	2.512272E-18
3.110000E+03	1.046547E-16	2.529540E-18
3.120000E+03	1.055612E-16	2.547450E-18
3.130000E+03	1.064875E-16	2.565751E-18
3.140000E+03	1.074237E-16	2.584202E-18
3.150000E+03	1.084007E-16	2.603544E-18
3.160000E+03	1.093880E-16	2.623039E-18
3.170000E+03	1.104062E-16	2.643181E-18
3.180000E+03	1.114456E-16	2.663729E-18
3.190000E+03	1.125061E-16	2.684684E-18
3.200000E+03	1.135985E-16	2.706296E-18
3.210000E+03	1.147228E-16	2.728564E-18
3.220000E+03	1.158694E-16	2.751251E-18
3.230000E+03	1.170485E-16	2.774600E-18
3.240000E+03	1.182504E-16	2.798376E-18
3.250000E+03	1.194956E-16	2.823060E-18
3.260000E+03	1.207644E-16	2.848179E-18
3.270000E+03	1.220670E-16	2.873971E-18
3.280000E+03	1.234039E-16	2.900447E-18
3.290000E+03	1.247754E-16	2.927604E-18
3.300000E+03	1.261819E-16	2.955449E-18
3.310000E+03	1.276338E-16	2.984222E-18
3.320000E+03	1.291114E-16	3.013452E-18
3.330000E+03	1.306351E-16	3.043616E-18
3.340000E+03	1.321954E-16	3.074483E-18
3.350000E+03	1.338026E-16	3.106286E-18
3.360000E+03	1.354470E-16	3.138797E-18
3.370000E+03	1.371392E-16	3.172253E-18
3.380000E+03	1.388793E-16	3.206652E-18
3.390000E+03	1.406576E-16	3.241763E-18
3.400000E+03	1.424948E-16	3.278055E-18
3.410000E+03	1.443708E-16	3.315059E-18
3.420000E+03	1.462960E-16	3.353010E-18
3.430000E+03	1.482708E-16	3.391905E-18
3.440000E+03	1.503053E-16	3.431972E-18
3.450000E+03	1.523897E-16	3.472977E-18
3.460000E+03	1.545241E-16	3.514915E-18
3.470000E+03	1.567185E-16	3.558007E-18
3.480000E+03	1.589631E-16	3.602021E-18
3.490000E+03	1.612677E-16	3.647171E-18
3.500000E+03	1.636323E-16	3.693449E-18
3.510000E+03	1.660567E-16	3.740840E-18
3.520000E+03	1.685406E-16	3.789329E-18
3.530000E+03	1.710734E-16	3.838673E-18
3.540000E+03	1.736749E-16	3.889303E-18
3.550000E+03	1.763446E-16	3.941200E-18
3.560000E+03	1.790614E-16	3.993882E-18
3.570000E+03	1.818447E-16	4.047775E-18
3.580000E+03	1.846936E-16	4.102847E-18
3.590000E+03	1.876070E-16	4.159065E-18
3.600000E+03	1.905733E-16	4.216163E-18
3.610000E+03	1.936013E-16	4.274328E-18
3.620000E+03	1.966996E-16	4.333736E-18
3.630000E+03	1.998561E-16	4.394115E-18
3.640000E+03	2.030688E-16	4.455410E-18
3.650000E+03	2.063358E-16	4.517568E-18
3.660000E+03	2.096645E-16	4.580747E-18
3.670000E+03	2.130424E-16	4.644663E-18
3.680000E+03	2.164871E-16	4.709688E-18
3.690000E+03	2.199750E-16	4.775304E-18
3.700000E+03	2.235236E-16	4.841879E-18
3.710000E+03	2.271087E-16	4.908884E-18
3.720000E+03	2.307473E-16	4.976678E-18
3.730000E+03	2.344253E-16	5.044948E-18
3.740000E+03	2.381487E-16	5.113818E-18
3.750000E+03	2.419032E-16	5.182972E-18
3.760000E+03	2.457046E-16	5.252743E-18
3.770000E+03	2.495277E-16	5.322589E-18
3.780000E+03	2.533779E-16	5.392618E-18
3.790000E+03	2.572501E-16	5.462718E-18
3.800000E+03	2.611493E-16	5.532990E-18
3.810000E+03	2.650496E-16	5.602882E-18
3.820000E+03	2.689759E-16	5.672920E-18
3.830000E+03	2.729023E-16	5.742552E-18
3.840000E+03	2.768229E-16	5.811656E-18
3.850000E+03	2.807520E-16	5.880529E-18
3.860000E+03	2.846633E-16	5.948621E-18
3.870000E+03	2.885709E-16	6.016229E-18
3.880000E+03	2.924485E-16	6.082806E-18
3.890000E+03	2.963099E-16	6.148640E-18
3.900000E+03	3.001391E-16	6.213403E-18
3.910000E+03	3.039395E-16	6.277172E-18
3.920000E+03	3.076952E-16	6.339621E-18
3.930000E+03	3.114002E-16	6.400633E-18
3.940000E+03	3.150679E-16	6.460489E-18
3.950000E+03	3.186632E-16	6.518482E-18
3.960000E+03	3.222095E-16	6.575092E-18
3.970000E+03	3.256816E-16	6.629821E-18
3.980000E+03	3.290933E-16	6.682957E-18
3.990000E+03	3.324204E-16	6.734017E-18
4.000000E+03	3.356672E-16	6.783104E-18
4.010000E+03	3.388288E-16	6.830131E-18
4.020000E+03	3.418915E-16	6.874836E-18
4.030000E+03	3.448695E-16	6.917520E-18
4.040000E+03	3.477407E-16	6.957750E-18
4.050000E+03	3.505104E-16	6.995652E-18
4.060000E+03	3.531754E-16	7.031177E-18
4.070000E+03	3.557328E-16	7.064284E-18
4.080000E+03	3.581712E-16	7.094766E-18
4.090000E+03	3.604974E-16	7.122773E-18
4.100000E+03	3.626925E-16	7.147954E-18
4.110000E+03	3.647809E-16	7.170807E-18
4.120000E+03	3.667363E-16	7.190833E-18
4.130000E+03	3.685670E-16	7.208217E-18
4.140000E+03	3.702647E-16	7.222818E-18
4.150000E+03	3.718384E-16	7.234831E-18
4.160000E+03	3.732888E-16	7.244292E-18
4.170000E+03	3.746018E-16	7.250943E-18
4.180000E+03	3.757794E-16	7.254849E-18
4.190000E+03	3.768321E-16	7.256234E-18
4.200000E+03	3.777475E-16	7.254879E-18
4.210000E+03	3.785368E-16	7.251021E-18
4.220000E+03	3.791965E-16	7.244615E-18
4.230000E+03	3.797237E-16	7.235626E-18
4.240000E+03	3.801237E-16	7.224176E-18
4.250000E+03	3.804019E-16	7.210388E-18
4.260000E+03	3.805501E-16	7.194129E-18
4.270000E+03	3.805819E-16	7.175675E-18
4.280000E+03	3.804837E-16	7.154790E-18
4.290000E+03	3.802765E-16	7.131889E-18
4.300000E+03	3.799547E-16	7.106885E-18
4.310000E+03	3.795136E-16	7.079711E-18
4.320000E+03	3.789685E-16	7.050670E-18
4.330000E+03	3.783220E-16	7.019827E-18
4.340000E+03	3.775711E-16	6.987145E-18
4.350000E+03	3.767256E-16	6.952822E-18
4.360000E+03	3.757895E-16	6.916944E-18
4.370000E+03	3.747611E-16	6.879500E-18
4.380000E+03	3.736569E-16	6.840806E-18
4.390000E+03	3.724703E-16	6.800753E-18
4.400000E+03	3.712121E-16	6.759552E-18
4.410000E+03	3.698933E-16	6.717416E-18
4.420000E+03	3.685134E-16	6.674345E-18
4.430000E+03	3.670833E-16	6.630547E-18
4.440000E+03	3.656029E-16	6.586030E-18
4.450000E+03	3.640881E-16	6.541088E-18
4.460000E+03	3.625436E-16	6.495813E-18
4.470000E+03	3.609743E-16	6.450294E-18
4.480000E+03	3.593945E-16	6.404797E-18
4.490000E+03	3.578034E-16	6.359306E-18
4.500000E+03	3.562095E-16	6.313977E-18
4.510000E+03	3.546258E-16	6.269043E-18
4.520000E+03	3.530550E-16	6.224547E-18
4.530000E+03	3.515086E-16	6.180695E-18
4.540000E+03	3.499928E-16	6.137593E-18
4.550000E+03	3.485042E-16	6.095178E-18
4.560000E+03	3.470615E-16	6.053772E-18
4.570000E+03	3.456601E-16	6.013293E-18
4.580000E+03	3.443084E-16	5.973880E-18
4.590000E+03	3.430137E-16	5.935656E-18
4.600000E+03	3.417702E-16	5.898514E-18
4.610000E+03	3.405886E-16	5.862629E-18
4.620000E+03	3.394660E-16	5.827950E-18
4.630000E+03	3.384076E-16	5.794557E-18
4.640000E+03	3.374097E-16	5.762379E-18
4.650000E+03	3.364768E-16	5.731486E-18
4.660000E+03	3.356082E-16	5.701861E-18
4.670000E+03	3.347993E-16	5.673416E-18
4.680000E+03	3.340529E-16	5.646197E-18
4.690000E+03	3.333638E-16	5.620106E-18
4.700000E+03	3.327346E-16	5.595180E-18
4.710000E+03	3.321634E-16	5.571386E-18
4.720000E+03	3.316445E-16	5.548620E-18
4.730000E+03	3.311764E-16	5.526852E-18
4.740000E+03	3.307572E-16	5.506047E-18
4.750000E+03	3.303895E-16	5.486242E-18
4.760000E+03	3.300717E-16	5.467410E-18
4.770000E+03	3.297955E-16	5.449406E-18
4.780000E+03	3.295716E-16	5.432405E-18
4.790000E+03	3.293960E-16	5.416338E-18
4.800000E+03	3.292653E-16	5.401144E-18
4.810000E+03	3.291915E-16	5.387017E-18
4.820000E+03	3.291675E-16	5.373836E-18
4.830000E+03	3.292010E-16	5.361723E-18
4.840000E+03	3.292887E-16	5.350622E-18
4.850000E+03	3.294386E-16	5.340657E-18
4.860000E+03	3.296517E-16	5.331835E-18
4.870000E+03	3.299287E-16	5.324163E-18
4.880000E+03	3.302796E-16	5.317795E-18
4.890000E+03	3.307061E-16	5.312752E-18
4.900000E+03	3.312172E-16	5.309168E-18
4.910000E+03	3.318214E-16	5.307171E-18
4.920000E+03	3.325230E-16	5.306822E-18
4.930000E+03	3.333261E-16	5.308173E-18
4.940000E+03	3.342376E-16	5.311323E-18
4.950000E+03	3.352640E-16	5.316361E-18
4.960000E+03	3.364078E-16	5.323312E-18
4.970000E+03	3.376670E-16	5.332133E-18
4.980000E+03	3.390539E-16	5.343006E-18
4.990000E+03	3.405587E-16	5.355758E-18
5.000000E+03	3.421927E-16	5.370558E-18
5.010000E+03	3.439563E-16	5.387396E-18
5.020000E+03	3.458455E-16	5.406197E-18
5.030000E+03	3.478637E-16	5.427000E-18
5.040000E+03	3.500065E-16	5.449726E-18
5.050000E+03	3.522810E-16	5.474469E-18
5.060000E+03	3.546861E-16	5.501201E-18
5.070000E+03	3.572173E-16	5.529839E-18
5.080000E+03	3.598775E-16	5.560416E-18
5.090000E+03	3.626660E-16	5.592907E-18
5.100000E+03	3.655818E-16	5.627286E-18
5.110000E+03	3.686242E-16	5.663531E-18
5.120000E+03	3.717929E-16	5.701623E-18
5.130000E+03	3.750912E-16	5.741602E-18
5.140000E+03	3.785149E-16	5.783391E-18
5.150000E+03	3.820678E-16	5.827038E-18
5.160000E+03	3.857500E-16	5.872530E-18
5.170000E+03	3.895574E-16	5.919796E-18
5.180000E+03	3.934944E-16	5.968890E-18
5.190000E+03	3.975572E-16	6.019740E-18
5.200000E+03	4.017545E-16	6.072471E-18
5.210000E+03	4.060783E-16	6.126947E-18
5.220000E+03	4.105332E-16	6.183227E-18
5.230000E+03	4.151153E-16	6.241240E-18
5.240000E+03	4.198334E-16	6.301107E-18
5.250000E+03	4.246746E-16	6.362622E-18
5.260000E+03	4.296473E-16	6.425900E-18
5.270000E+03	4.347512E-16	6.490924E-18
5.280000E+03	4.399809E-16	6.557603E-18
5.290000E+03	4.453306E-16	6.625837E-18
5.300000E+03	4.508077E-16	6.695728E-18
5.310000E+03	4.564006E-16	6.767089E-18
5.320000E+03	4.621111E-16	6.839938E-18
5.330000E+03	4.679260E-16	6.914067E-18
5.340000E+03	4.738506E-16	6.989547E-18
5.350000E+03	4.798650E-16	7.066073E-18
5.360000E+03	4.859730E-16	7.143691E-18
5.370000E+03	4.921578E-16	7.222145E-18
5.380000E+03	4.984166E-16	7.301387E-18
5.390000E+03	5.047250E-16	7.381050E-18
5.400000E+03	5.110835E-16	7.461138E-18
5.410000E+03	5.174654E-16	7.541253E-18
5.420000E+03	5.238643E-16	7.621298E-18
5.430000E+03	5.302562E-16	7.700920E-18
5.440000E+03	5.366327E-16	7.779995E-18
5.450000E+03	5.429626E-16	7.858069E-18
5.460000E+03	5.492355E-16	7.934994E-18
5.470000E+03	5.554348E-16	8.010531E-18
5.480000E+03	5.615322E-16	8.084274E-18
5.490000E+03	5.675099E-16	8.155971E-18
5.500000E+03	5.733610E-16	8.225531E-18
5.510000E+03	5.790557E-16	8.292533E-18
5.520000E+03	5.845930E-16	8.356972E-18
5.530000E+03	5.899428E-16	8.418425E-18
5.540000E+03	5.951046E-16	8.476898E-18
5.550000E+03	6.000547E-16	8.532063E-18
5.560000E+03	6.047939E-16	8.583947E-18
5.570000E+03	6.092995E-16	8.632240E-18
5.580000E+03	6.135615E-16	8.676815E-18
5.590000E+03	6.175772E-16	8.717652E-18
5.600000E+03	6.213327E-16	8.754569E-18
5.610000E+03	6.248212E-16	8.787488E-18
5.620000E+03	6.280306E-16	8.816260E-18
5.630000E+03	6.309503E-16	8.840752E-18
5.640000E+03	6.335840E-16	8.861037E-18
5.650000E+03	6.359170E-16	8.876933E-18
5.660000E+03	6.379562E-16	8.888554E-18
5.670000E+03	6.396834E-16	8.895670E-18
5.680000E+03	6.411151E-16	8.898532E-18
5.690000E+03	6.422362E-16	8.896953E-18
5.700000E+03	6.430531E-16	8.891046E-18
5.710000E+03	6.435737E-16	8.880943E-18
5.720000E+03	6.437942E-16	8.866613E-18
5.730000E+03	6.437190E-16	8.848140E-18
5.740000E+03	6.433672E-16	8.825811E-18
5.750000E+03	6.427325E-16	8.799561E-18
5.760000E+03	6.418299E-16	8.769618E-18
5.770000E+03	6.406624E-16	8.736042E-18
5.780000E+03	6.392538E-16	8.699184E-18
5.790000E+03	6.376092E-16	8.659129E-18
5.800000E+03	6.357408E-16	8.616064E-18
5.810000E+03	6.336553E-16	8.570099E-18
5.820000E+03	6.313795E-16	8.521616E-18
5.830000E+03	6.289212E-16	8.470734E-18
5.840000E+03	6.262883E-16	8.417577E-18
5.850000E+03	6.235087E-16	8.362537E-18
5.860000E+03	6.205846E-16	8.305653E-18
5.870000E+03	6.175372E-16	8.247227E-18
5.880000E+03	6.143817E-16	8.187470E-18
5.890000E+03	6.111265E-16	8.126507E-18
5.900000E+03	6.077864E-16	8.064544E-18
5.910000E+03	6.043760E-16	8.001782E-18
5.920000E+03	6.009156E-16	7.938501E-18
5.930000E+03	5.974069E-16	7.874726E-18
5.940000E+03	5.938695E-16	7.810724E-18
5.950000E+03	5.903106E-16	7.746593E-18
5.960000E+03	5.867495E-16	7.682589E-18
5.970000E+03	5.831924E-16	7.618799E-18
5.980000E+03	5.796458E-16	7.555307E-18
5.990000E+03	5.761219E-16	7.492273E-18
6.000000E+03	5.726384E-16	7.429929E-18
6.010000E+03	5.691953E-16	7.368273E-18
6.020000E+03	5.658098E-16	7.307527E-18
6.030000E+03	5.624875E-16	7.247759E-18
6.040000E+03	5.592396E-16	7.189111E-18
6.050000E+03	5.560716E-16	7.131649E-18
6.060000E+03	5.529944E-16	7.075509E-18
6.070000E+03	5.500193E-16	7.020830E-18
6.080000E+03	5.471516E-16	6.967671E-18
6.090000E+03	5.444022E-16	6.916166E-18
6.100000E+03	5.417764E-16	6.866372E-18
6.110000E+03	5.392907E-16	6.818490E-18
6.120000E+03	5.369503E-16	6.772576E-18
6.130000E+03	5.347597E-16	6.728676E-18
6.140000E+03	5.327350E-16	6.686982E-18
6.150000E+03	5.308747E-16	6.647461E-18
6.160000E+03	5.291995E-16	6.610361E-18
6.170000E+03	5.277125E-16	6.575707E-18
6.180000E+03	5.264163E-16	6.543515E-18
6.190000E+03	5.253240E-16	6.513936E-18
6.200000E+03	5.244421E-16	6.487033E-18
6.210000E+03	5.237764E-16	6.462860E-18
6.220000E+03	5.233258E-16	6.441386E-18
6.230000E+03	5.230950E-16	6.422652E-18
6.240000E+03	5.230781E-16	6.406565E-18
6.250000E+03	5.232683E-16	6.393025E-18
6.260000E+03	5.236579E-16	6.381920E-18
6.270000E+03	5.242442E-16	6.373201E-18
6.280000E+03	5.250122E-16	6.366671E-18
6.290000E+03	5.259582E-16	6.362269E-18
6.300000E+03	5.270721E-16	6.359860E-18
6.310000E+03	5.283379E-16	6.359237E-18
6.320000E+03	5.297622E-16	6.360469E-18
6.330000E+03	5.313173E-16	6.363212E-18
6.340000E+03	5.330046E-16	6.367473E-18
6.350000E+03	5.348084E-16	6.373055E-18
6.360000E+03	5.367307E-16	6.379973E-18
6.370000E+03	5.387452E-16	6.387910E-18
6.380000E+03	5.408613E-16	6.396970E-18
6.390000E+03	5.430602E-16	6.406924E-18
6.400000E+03	5.453477E-16	6.417837E-18
6.410000E+03	5.477010E-16	6.429432E-18
6.420000E+03	5.501348E-16	6.441873E-18
6.430000E+03	5.526413E-16	6.455059E-18
6.440000E+03	5.552139E-16	6.468903E-18
6.450000E+03	5.578487E-16	6.483352E-18
6.460000E+03	5.605250E-16	6.498156E-18
6.470000E+03	5.631962E-16	6.512773E-18
6.480000E+03	5.658547E-16	6.527110E-18
6.490000E+03	5.684689E-16	6.540804E-18
6.500000E+03	5.710146E-16	6.553575E-18
6.510000E+03	5.734749E-16	6.565238E-18
6.520000E+03	5.758215E-16	6.575470E-18
6.530000E+03	5.780333E-16	6.584039E-18
6.540000E+03	5.801034E-16	6.590879E-18
6.550000E+03	5.820067E-16	6.595711E-18
6.560000E+03	5.837252E-16	6.598346E-18
6.570000E+03	5.852559E-16	6.598763E-18
6.580000E+03	5.865763E-16	6.596724E-18
6.590000E+03	5.876720E-16	6.592082E-18
6.600000E+03	5.885433E-16	6.584859E-18
6.610000E+03	5.891712E-16	6.574862E-18
6.620000E+03	5.895514E-16	6.562061E-18
6.630000E+03	5.896744E-16	6.546370E-18
6.640000E+03	5.895386E-16	6.527793E-18
6.650000E+03	5.891297E-16	6.506194E-18
6.660000E+03	5.884559E-16	6.481684E-18
6.670000E+03	5.875057E-16	6.454162E-18
6.680000E+03	5.862900E-16	6.423769E-18
6.690000E+03	5.847932E-16	6.390358E-18
6.700000E+03	5.830293E-16	6.354105E-18
6.710000E+03	5.809993E-16	6.315046E-18
6.720000E+03	5.786989E-16	6.273156E-18
6.730000E+03	5.761464E-16	6.228657E-18
6.740000E+03	5.733473E-16	6.181632E-18
6.750000E+03	5.703011E-16	6.132098E-18
6.760000E+03	5.670233E-16	6.080244E-18
6.770000E+03	5.635230E-16	6.026188E-18
6.780000E+03	5.598106E-16	5.970063E-18
6.790000E+03	5.559046E-16	5.912085E-18
6.800000E+03	5.518104E-16	5.852331E-18
6.810000E+03	5.475481E-16	5.791031E-18
6.820000E+03	5.431314E-16	5.728347E-18
6.830000E+03	5.385747E-16	5.664447E-18
6.840000E+03	5.338860E-16	5.599430E-18
6.850000E+03	5.291008E-16	5.533679E-18
6.860000E+03	5.242141E-16	5.467153E-18
6.870000E+03	5.192478E-16	5.400094E-18
6.880000E+03	5.142238E-16	5.332739E-18
6.890000E+03	5.091572E-16	5.265248E-18
6.900000E+03	5.040559E-16	5.197715E-18
6.910000E+03	4.989346E-16	5.130292E-18
6.920000E+03	4.938196E-16	5.063256E-18
6.930000E+03	4.887054E-16	4.996554E-18
6.940000E+03	4.836233E-16	4.930507E-18
6.950000E+03	4.785731E-16	4.865113E-18
6.960000E+03	4.735721E-16	4.800550E-18
6.970000E+03	4.686248E-16	4.736860E-18
6.980000E+03	4.637471E-16	4.674204E-18
6.990000E+03	4.589481E-16	4.612669E-18
7.000000E+03	4.542299E-16	4.552275E-18
7.010000E+03	4.496061E-16	4.493152E-18
7.020000E+03	4.450775E-16	4.435305E-18
7.030000E+03	4.406561E-16	4.378847E-18
7.040000E+03	4.363470E-16	4.323825E-18
7.050000E+03	4.321434E-16	4.270165E-18
7.060000E+03	4.280609E-16	4.218015E-18
7.070000E+03	4.241026E-16	4.167401E-18
7.080000E+03	4.202603E-16	4.118235E-18
7.090000E+03	4.165475E-16	4.070641E-18
7.100000E+03	4.129547E-16	4.024523E-18
7.110000E+03	4.094890E-16	3.979943E-18
7.120000E+03	4.061513E-16	3.936903E-18
7.130000E+03	4.029420E-16	3.895402E-18
7.140000E+03	3.998559E-16	3.855383E-18
7.150000E+03	3.968932E-16	3.816843E-18
7.160000E+03	3.940533E-16	3.779771E-18
7.170000E+03	3.913409E-16	3.744207E-18
7.180000E+03	3.887447E-16	3.710038E-18
7.190000E+03	3.862636E-16	3.677251E-18
7.200000E+03	3.839017E-16	3.645879E-18
7.210000E+03	3.816522E-16	3.615857E-18
7.220000E+03	3.795138E-16	3.587168E-18
7.230000E+03	3.774797E-16	3.559746E-18
7.240000E+03	3.755482E-16	3.533572E-18
7.250000E+03	3.737223E-16	3.508675E-18
7.260000E+03	3.719902E-16	3.484941E-18
7.270000E+03	3.703497E-16	3.462352E-18
7.280000E+03	3.687988E-16	3.440886E-18
7.290000E+03	3.673303E-16	3.420479E-18
7.300000E+03	3.659468E-16	3.401155E-18
7.310000E+03	3.646360E-16	3.382804E-18
7.320000E+03	3.634006E-16	3.365449E-18
7.330000E+03	3.622280E-16	3.348980E-18
7.340000E+03	3.611206E-16	3.333420E-18
7.350000E+03	3.600662E-16	3.318660E-18
7.360000E+03	3.590665E-16	3.304721E-18
7.370000E+03	3.581141E-16	3.291539E-18
7.380000E+03	3.572014E-16	3.279048E-18
7.390000E+03	3.563300E-16	3.267268E-18
7.400000E+03	3.554925E-16	3.256136E-18
7.410000E+03	3.546810E-16	3.245586E-18
7.420000E+03	3.538926E-16	3.235597E-18
7.430000E+03	3.531343E-16	3.226238E-18
7.440000E+03	3.523892E-16	3.217360E-18
7.450000E+03	3.516641E-16	3.209032E-18
7.460000E+03	3.509523E-16	3.201199E-18
7.470000E+03	3.502569E-16	3.193893E-18
7.480000E+03	3.495718E-16	3.187066E-18
7.490000E+03	3.489058E-16	3.180802E-18
7.500000E+03	3.482588E-16	3.175108E-18
7.510000E+03	3.476271E-16	3.169948E-18
7.520000E+03	3.470215E-16	3.165417E-18
7.530000E+03	3.464401E-16	3.161487E-18
7.540000E+03	3.458914E-16	3.158228E-18
7.550000E+03	3.453797E-16	3.155671E-18
7.560000E+03	3.449071E-16	3.153827E-18
7.570000E+03	3.444647E-16	3.152609E-18
7.580000E+03	3.440448E-16	3.151935E-18
7.590000E+03	3.436452E-16	3.151782E-18
7.600000E+03	3.432606E-16	3.152088E-18
7.610000E+03	3.428860E-16	3.152803E-18
7.620000E+03	3.425175E-16	3.153883E-18
7.630000E+03	3.421570E-16	3.155336E-18
7.640000E+03	3.417971E-16	3.157086E-18
7.650000E+03	3.414405E-16	3.159150E-18
7.660000E+03	3.410906E-16	3.161552E-18
7.670000E+03	3.407368E-16	3.164184E-18
7.680000E+03	3.403874E-16	3.167117E-18
7.690000E+03	3.400373E-16	3.170295E-18
7.700000E+03	3.396903E-16	3.173745E-18
7.710000E+03	3.393414E-16	3.177413E-18
7.720000E+03	3.389948E-16	3.181330E-18
7.730000E+03	3.386501E-16	3.185486E-18
7.740000E+03	3.383021E-16	3.189823E-18
7.750000E+03	3.379502E-16	3.194329E-18
7.760000E+03	3.376033E-16	3.199080E-18
