#wls	flux	fluxerr
1.600000E+03	5.745374E-17	1.656615E-18
1.640000E+03	5.811640E-17	1.669685E-18
1.680000E+03	5.878956E-17	1.682762E-18
1.720000E+03	5.949399E-17	1.696429E-18
1.760000E+03	6.021830E-17	1.710342E-18
1.800000E+03	6.096165E-17	1.724463E-18
1.840000E+03	6.173418E-17	1.739059E-18
1.880000E+03	6.252389E-17	1.753775E-18
1.920000E+03	6.335210E-17	1.769189E-18
1.960000E+03	6.420657E-17	1.784936E-18
2.000000E+03	6.508605E-17	1.800960E-18
2.040000E+03	6.600061E-17	1.817517E-18
2.080000E+03	6.694886E-17	1.834542E-18
2.120000E+03	6.792922E-17	1.851966E-18
2.160000E+03	6.893993E-17	1.869713E-18
2.200000E+03	7.000256E-17	1.888341E-18
2.240000E+03	7.110347E-17	1.907444E-18
2.280000E+03	7.224042E-17	1.926931E-18
2.320000E+03	7.343485E-17	1.947338E-18
2.360000E+03	7.467240E-17	1.968243E-18
2.400000E+03	7.596234E-17	1.989851E-18
2.440000E+03	7.731384E-17	2.012357E-18
2.480000E+03	7.872397E-17	2.035634E-18
2.520000E+03	8.020164E-17	2.059863E-18
2.560000E+03	8.174359E-17	2.084903E-18
2.600000E+03	8.337055E-17	2.111223E-18
2.640000E+03	8.507929E-17	2.138674E-18
2.680000E+03	8.687831E-17	2.167395E-18
2.720000E+03	8.878843E-17	2.197827E-18
2.760000E+03	9.080646E-17	2.229799E-18
2.800000E+03	9.294151E-17	2.263441E-18
2.840000E+03	9.522707E-17	2.299460E-18
2.880000E+03	9.767294E-17	2.337967E-18
2.920000E+03	1.002901E-16	2.379084E-18
2.960000E+03	1.031021E-16	2.423223E-18
3.000000E+03	1.061340E-16	2.470797E-18
3.010000E+03	1.069412E-16	2.483552E-18
3.020000E+03	1.077566E-16	2.496376E-18
3.030000E+03	1.085803E-16	2.509269E-18
3.040000E+03	1.094355E-16	2.522767E-18
3.050000E+03	1.102993E-16	2.536333E-18
3.060000E+03	1.111832E-16	2.550232E-18
3.070000E+03	1.120875E-16	2.564465E-18
3.080000E+03	1.130122E-16	2.579027E-18
3.090000E+03	1.139574E-16	2.593920E-18
3.100000E+03	1.149235E-16	2.609141E-18
3.110000E+03	1.159103E-16	2.624690E-18
3.120000E+03	1.169182E-16	2.640566E-18
3.130000E+03	1.179589E-16	2.657028E-18
3.140000E+03	1.190095E-16	2.673558E-18
3.150000E+03	1.200933E-16	2.690672E-18
3.160000E+03	1.212105E-16	2.708369E-18
3.170000E+03	1.223384E-16	2.726137E-18
3.180000E+03	1.235002E-16	2.744486E-18
3.190000E+03	1.246961E-16	2.763416E-18
3.200000E+03	1.259151E-16	2.782676E-18
3.210000E+03	1.271687E-16	2.802516E-18
3.220000E+03	1.284460E-16	2.822686E-18
3.230000E+03	1.297701E-16	2.843687E-18
3.240000E+03	1.311185E-16	2.865020E-18
3.250000E+03	1.325030E-16	2.886934E-18
3.260000E+03	1.339127E-16	2.909185E-18
3.270000E+03	1.353706E-16	2.932265E-18
3.280000E+03	1.368658E-16	2.955929E-18
3.290000E+03	1.383987E-16	2.980177E-18
3.300000E+03	1.399809E-16	3.005251E-18
3.310000E+03	1.415905E-16	3.030670E-18
3.320000E+03	1.432504E-16	3.056917E-18
3.330000E+03	1.449498E-16	3.083751E-18
3.340000E+03	1.467004E-16	3.111409E-18
3.350000E+03	1.485027E-16	3.139893E-18
3.360000E+03	1.503458E-16	3.168963E-18
3.370000E+03	1.522416E-16	3.198855E-18
3.380000E+03	1.541904E-16	3.229567E-18
3.390000E+03	1.561815E-16	3.260861E-18
3.400000E+03	1.582376E-16	3.293202E-18
3.410000E+03	1.603480E-16	3.326353E-18
3.420000E+03	1.625131E-16	3.360309E-18
3.430000E+03	1.647444E-16	3.395295E-18
3.440000E+03	1.670197E-16	3.430841E-18
3.450000E+03	1.693730E-16	3.467629E-18
3.460000E+03	1.717820E-16	3.505190E-18
3.470000E+03	1.742469E-16	3.543513E-18
3.480000E+03	1.767901E-16	3.583041E-18
3.490000E+03	1.793891E-16	3.623300E-18
3.500000E+03	1.820552E-16	3.664504E-18
3.510000E+03	1.847881E-16	3.706629E-18
3.520000E+03	1.875986E-16	3.749881E-18
3.530000E+03	1.904751E-16	3.794006E-18
3.540000E+03	1.934170E-16	3.838979E-18
3.550000E+03	1.964349E-16	3.884990E-18
3.560000E+03	1.995278E-16	3.932007E-18
3.570000E+03	2.026834E-16	3.979768E-18
3.580000E+03	2.059231E-16	4.028674E-18
3.590000E+03	2.092229E-16	4.078240E-18
3.600000E+03	2.125923E-16	4.128636E-18
3.610000E+03	2.160409E-16	4.180029E-18
3.620000E+03	2.195553E-16	4.232143E-18
3.630000E+03	2.231444E-16	4.285132E-18
3.640000E+03	2.267945E-16	4.338716E-18
3.650000E+03	2.305141E-16	4.393040E-18
3.660000E+03	2.342999E-16	4.448028E-18
3.670000E+03	2.381490E-16	4.503603E-18
3.680000E+03	2.420687E-16	4.559894E-18
3.690000E+03	2.460328E-16	4.616383E-18
3.700000E+03	2.500596E-16	4.673409E-18
3.710000E+03	2.541448E-16	4.730871E-18
3.720000E+03	2.582723E-16	4.788457E-18
3.730000E+03	2.624487E-16	4.846277E-18
3.740000E+03	2.666685E-16	4.904219E-18
3.750000E+03	2.709264E-16	4.962173E-18
3.760000E+03	2.752167E-16	5.020024E-18
3.770000E+03	2.795334E-16	5.077655E-18
3.780000E+03	2.838817E-16	5.135154E-18
3.790000E+03	2.882552E-16	5.192395E-18
3.800000E+03	2.926362E-16	5.249053E-18
3.810000E+03	2.970403E-16	5.305406E-18
3.820000E+03	3.014382E-16	5.360926E-18
3.830000E+03	3.058343E-16	5.415689E-18
3.840000E+03	3.102214E-16	5.469570E-18
3.850000E+03	3.146035E-16	5.522640E-18
3.860000E+03	3.189622E-16	5.574578E-18
3.870000E+03	3.233015E-16	5.625456E-18
3.880000E+03	3.276139E-16	5.675151E-18
3.890000E+03	3.318813E-16	5.723355E-18
3.900000E+03	3.361075E-16	5.770143E-18
3.910000E+03	3.402853E-16	5.815405E-18
3.920000E+03	3.444079E-16	5.859033E-18
3.930000E+03	3.484684E-16	5.900923E-18
3.940000E+03	3.524600E-16	5.940979E-18
3.950000E+03	3.563869E-16	5.979286E-18
3.960000E+03	3.602323E-16	6.015579E-18
3.970000E+03	3.639900E-16	6.049776E-18
3.980000E+03	3.676649E-16	6.081977E-18
3.990000E+03	3.712410E-16	6.111943E-18
4.000000E+03	3.747131E-16	6.139613E-18
4.010000E+03	3.780869E-16	6.165103E-18
4.020000E+03	3.813575E-16	6.188363E-18
4.030000E+03	3.845109E-16	6.209188E-18
4.040000E+03	3.875435E-16	6.227555E-18
4.050000E+03	3.904617E-16	6.243595E-18
4.060000E+03	3.932530E-16	6.257138E-18
4.070000E+03	3.959150E-16	6.268180E-18
4.080000E+03	3.984549E-16	6.276869E-18
4.090000E+03	4.008620E-16	6.283065E-18
4.100000E+03	4.031255E-16	6.286640E-18
4.110000E+03	4.052636E-16	6.287909E-18
4.120000E+03	4.072573E-16	6.286615E-18
4.130000E+03	4.091162E-16	6.282940E-18
4.140000E+03	4.108318E-16	6.276795E-18
4.150000E+03	4.124053E-16	6.268233E-18
4.160000E+03	4.138383E-16	6.257315E-18
4.170000E+03	4.151242E-16	6.243981E-18
4.180000E+03	4.162739E-16	6.228434E-18
4.190000E+03	4.172736E-16	6.210503E-18
4.200000E+03	4.181349E-16	6.190402E-18
4.210000E+03	4.188534E-16	6.168102E-18
4.220000E+03	4.194254E-16	6.143588E-18
4.230000E+03	4.198636E-16	6.117084E-18
4.240000E+03	4.201574E-16	6.088473E-18
4.250000E+03	4.203126E-16	6.057879E-18
4.260000E+03	4.203352E-16	6.025424E-18
4.270000E+03	4.202170E-16	5.991027E-18
4.280000E+03	4.199653E-16	5.954830E-18
4.290000E+03	4.195805E-16	5.916877E-18
4.300000E+03	4.190707E-16	5.877315E-18
4.310000E+03	4.184305E-16	5.836105E-18
4.320000E+03	4.176694E-16	5.793413E-18
4.330000E+03	4.167833E-16	5.749216E-18
4.340000E+03	4.157827E-16	5.703692E-18
4.350000E+03	4.146650E-16	5.656838E-18
4.360000E+03	4.134352E-16	5.608752E-18
4.370000E+03	4.121049E-16	5.559624E-18
4.380000E+03	4.106673E-16	5.509389E-18
4.390000E+03	4.091291E-16	5.458164E-18
4.400000E+03	4.075029E-16	5.406146E-18
4.410000E+03	4.057839E-16	5.353298E-18
4.420000E+03	4.039914E-16	5.299895E-18
4.430000E+03	4.021209E-16	5.245903E-18
4.440000E+03	4.001805E-16	5.191445E-18
4.450000E+03	3.981888E-16	5.136785E-18
4.460000E+03	3.961420E-16	5.081888E-18
4.470000E+03	3.940637E-16	5.027071E-18
4.480000E+03	3.919602E-16	4.972427E-18
4.490000E+03	3.898378E-16	4.918044E-18
4.500000E+03	3.877125E-16	4.864132E-18
4.510000E+03	3.855994E-16	4.810883E-18
4.520000E+03	3.835026E-16	4.758350E-18
4.530000E+03	3.814354E-16	4.706699E-18
4.540000E+03	3.794008E-16	4.655964E-18
4.550000E+03	3.774199E-16	4.606401E-18
4.560000E+03	3.754889E-16	4.557957E-18
4.570000E+03	3.736180E-16	4.510749E-18
4.580000E+03	3.718159E-16	4.464875E-18
4.590000E+03	3.700815E-16	4.420314E-18
4.600000E+03	3.684268E-16	4.377197E-18
4.610000E+03	3.668535E-16	4.335537E-18
4.620000E+03	3.653586E-16	4.295285E-18
4.630000E+03	3.639471E-16	4.256493E-18
4.640000E+03	3.626235E-16	4.219203E-18
4.650000E+03	3.613873E-16	4.183396E-18
4.660000E+03	3.602334E-16	4.149005E-18
4.670000E+03	3.591647E-16	4.116055E-18
4.680000E+03	3.581794E-16	4.084515E-18
4.690000E+03	3.572717E-16	4.054312E-18
4.700000E+03	3.564396E-16	4.025416E-18
4.710000E+03	3.556849E-16	3.997842E-18
4.720000E+03	3.549973E-16	3.971469E-18
4.730000E+03	3.543789E-16	3.946316E-18
4.740000E+03	3.538196E-16	3.922266E-18
4.750000E+03	3.533177E-16	3.899299E-18
4.760000E+03	3.528757E-16	3.877441E-18
4.770000E+03	3.524884E-16	3.856634E-18
4.780000E+03	3.521551E-16	3.836869E-18
4.790000E+03	3.518794E-16	3.818185E-18
4.800000E+03	3.516573E-16	3.800539E-18
4.810000E+03	3.514970E-16	3.784019E-18
4.820000E+03	3.513994E-16	3.768635E-18
4.830000E+03	3.513655E-16	3.754397E-18
4.840000E+03	3.514045E-16	3.741404E-18
4.850000E+03	3.515183E-16	3.729670E-18
4.860000E+03	3.517166E-16	3.719295E-18
4.870000E+03	3.520023E-16	3.710301E-18
4.880000E+03	3.523783E-16	3.702716E-18
4.890000E+03	3.528518E-16	3.696608E-18
4.900000E+03	3.534341E-16	3.692089E-18
4.910000E+03	3.541210E-16	3.689112E-18
4.920000E+03	3.549236E-16	3.687783E-18
4.930000E+03	3.558448E-16	3.688120E-18
4.940000E+03	3.568913E-16	3.690174E-18
4.950000E+03	3.580615E-16	3.693915E-18
4.960000E+03	3.593614E-16	3.699391E-18
4.970000E+03	3.607964E-16	3.706641E-18
4.980000E+03	3.623604E-16	3.715590E-18
4.990000E+03	3.640658E-16	3.726352E-18
5.000000E+03	3.659058E-16	3.738845E-18
5.010000E+03	3.678848E-16	3.753102E-18
5.020000E+03	3.700034E-16	3.769116E-18
5.030000E+03	3.722655E-16	3.786917E-18
5.040000E+03	3.746677E-16	3.806458E-18
5.050000E+03	3.772137E-16	3.827769E-18
5.060000E+03	3.799037E-16	3.850842E-18
5.070000E+03	3.827376E-16	3.875664E-18
5.080000E+03	3.857155E-16	3.902231E-18
5.090000E+03	3.888373E-16	3.930531E-18
5.100000E+03	3.921031E-16	3.960559E-18
5.110000E+03	3.955171E-16	3.992348E-18
5.120000E+03	3.990794E-16	4.025893E-18
5.130000E+03	4.027903E-16	4.061189E-18
5.140000E+03	4.066458E-16	4.098190E-18
5.150000E+03	4.106503E-16	4.136932E-18
5.160000E+03	4.148084E-16	4.177458E-18
5.170000E+03	4.191118E-16	4.219674E-18
5.180000E+03	4.235648E-16	4.263621E-18
5.190000E+03	4.281720E-16	4.309338E-18
5.200000E+03	4.329288E-16	4.356775E-18
5.210000E+03	4.378352E-16	4.405922E-18
5.220000E+03	4.428905E-16	4.456771E-18
5.230000E+03	4.480986E-16	4.509352E-18
5.240000E+03	4.534491E-16	4.563556E-18
5.250000E+03	4.589497E-16	4.619457E-18
5.260000E+03	4.645939E-16	4.676981E-18
5.270000E+03	4.703839E-16	4.736145E-18
5.280000E+03	4.763070E-16	4.796816E-18
5.290000E+03	4.823642E-16	4.858999E-18
5.300000E+03	4.885512E-16	4.922643E-18
5.310000E+03	4.948628E-16	4.987690E-18
5.320000E+03	5.012933E-16	5.054075E-18
5.330000E+03	5.078307E-16	5.121671E-18
5.340000E+03	5.144673E-16	5.190394E-18
5.350000E+03	5.212003E-16	5.260206E-18
5.360000E+03	5.280096E-16	5.330899E-18
5.370000E+03	5.348957E-16	5.402468E-18
5.380000E+03	5.418315E-16	5.474633E-18
5.390000E+03	5.488159E-16	5.547370E-18
5.400000E+03	5.558306E-16	5.620489E-18
5.410000E+03	5.628509E-16	5.693727E-18
5.420000E+03	5.698735E-16	5.767044E-18
5.430000E+03	5.768662E-16	5.840100E-18
5.440000E+03	5.838131E-16	5.912725E-18
5.450000E+03	5.906913E-16	5.984676E-18
5.460000E+03	5.974778E-16	6.055707E-18
5.470000E+03	6.041368E-16	6.125444E-18
5.480000E+03	6.106435E-16	6.193621E-18
5.490000E+03	6.169789E-16	6.260036E-18
5.500000E+03	6.231180E-16	6.324420E-18
5.510000E+03	6.290483E-16	6.386634E-18
5.520000E+03	6.347768E-16	6.446735E-18
5.530000E+03	6.402859E-16	6.504533E-18
5.540000E+03	6.455717E-16	6.559976E-18
5.550000E+03	6.506311E-16	6.613018E-18
5.560000E+03	6.554553E-16	6.663562E-18
5.570000E+03	6.600302E-16	6.711450E-18
5.580000E+03	6.643488E-16	6.756600E-18
5.590000E+03	6.684122E-16	6.799014E-18
5.600000E+03	6.721954E-16	6.838427E-18
5.610000E+03	6.757017E-16	6.874862E-18
5.620000E+03	6.789218E-16	6.908217E-18
5.630000E+03	6.818410E-16	6.938333E-18
5.640000E+03	6.844665E-16	6.965276E-18
5.650000E+03	6.867858E-16	6.988913E-18
5.660000E+03	6.888020E-16	7.009269E-18
5.670000E+03	6.905124E-16	7.026310E-18
5.680000E+03	6.919159E-16	7.040022E-18
5.690000E+03	6.930055E-16	7.050330E-18
5.700000E+03	6.937969E-16	7.057389E-18
5.710000E+03	6.942860E-16	7.061159E-18
5.720000E+03	6.944842E-16	7.061752E-18
5.730000E+03	6.943899E-16	7.059154E-18
5.740000E+03	6.940102E-16	7.053436E-18
5.750000E+03	6.933601E-16	7.044752E-18
5.760000E+03	6.924416E-16	7.033125E-18
5.770000E+03	6.912721E-16	7.018735E-18
5.780000E+03	6.898627E-16	7.001698E-18
5.790000E+03	6.882185E-16	6.982069E-18
5.800000E+03	6.863591E-16	6.960052E-18
5.810000E+03	6.842979E-16	6.935790E-18
5.820000E+03	6.820418E-16	6.909358E-18
5.830000E+03	6.796123E-16	6.880979E-18
5.840000E+03	6.770169E-16	6.850736E-18
5.850000E+03	6.742773E-16	6.818856E-18
5.860000E+03	6.714086E-16	6.785498E-18
5.870000E+03	6.684187E-16	6.750750E-18
5.880000E+03	6.653224E-16	6.714769E-18
5.890000E+03	6.621413E-16	6.677780E-18
5.900000E+03	6.588762E-16	6.639800E-18
5.910000E+03	6.555548E-16	6.601115E-18
5.920000E+03	6.521774E-16	6.561737E-18
5.930000E+03	6.487642E-16	6.521874E-18
5.940000E+03	6.453281E-16	6.481667E-18
5.950000E+03	6.418753E-16	6.441183E-18
5.960000E+03	6.384179E-16	6.400553E-18
5.970000E+03	6.349678E-16	6.359901E-18
5.980000E+03	6.315364E-16	6.319352E-18
5.990000E+03	6.281285E-16	6.278957E-18
6.000000E+03	6.247551E-16	6.238834E-18
6.010000E+03	6.214267E-16	6.199096E-18
6.020000E+03	6.181537E-16	6.159850E-18
6.030000E+03	6.149339E-16	6.121084E-18
6.040000E+03	6.117903E-16	6.083028E-18
6.050000E+03	6.087142E-16	6.045604E-18
6.060000E+03	6.057284E-16	6.009044E-18
6.070000E+03	6.028247E-16	5.973271E-18
6.080000E+03	6.000261E-16	5.938516E-18
6.090000E+03	5.973308E-16	5.904768E-18
6.100000E+03	5.947438E-16	5.872078E-18
6.110000E+03	5.922820E-16	5.840620E-18
6.120000E+03	5.899446E-16	5.810386E-18
6.130000E+03	5.877428E-16	5.781493E-18
6.140000E+03	5.856879E-16	5.754052E-18
6.150000E+03	5.837849E-16	5.728116E-18
6.160000E+03	5.820388E-16	5.703736E-18
6.170000E+03	5.804720E-16	5.681135E-18
6.180000E+03	5.790880E-16	5.660346E-18
6.190000E+03	5.778897E-16	5.641399E-18
6.200000E+03	5.768900E-16	5.624421E-18
6.210000E+03	5.760944E-16	5.609466E-18
6.220000E+03	5.755058E-16	5.596560E-18
6.230000E+03	5.751248E-16	5.585708E-18
6.240000E+03	5.749559E-16	5.576950E-18
6.250000E+03	5.750009E-16	5.570301E-18
6.260000E+03	5.752485E-16	5.565651E-18
6.270000E+03	5.757033E-16	5.563043E-18
6.280000E+03	5.763515E-16	5.562340E-18
6.290000E+03	5.771841E-16	5.563458E-18
6.300000E+03	5.782098E-16	5.566479E-18
6.310000E+03	5.794009E-16	5.571135E-18
6.320000E+03	5.807595E-16	5.577450E-18
6.330000E+03	5.822757E-16	5.585328E-18
6.340000E+03	5.839396E-16	5.594676E-18
6.350000E+03	5.857415E-16	5.605404E-18
6.360000E+03	5.876654E-16	5.617362E-18
6.370000E+03	5.897143E-16	5.630582E-18
6.380000E+03	5.918730E-16	5.644922E-18
6.390000E+03	5.941323E-16	5.660300E-18
6.400000E+03	5.964837E-16	5.676638E-18
6.410000E+03	5.989120E-16	5.693788E-18
6.420000E+03	6.014210E-16	5.711774E-18
6.430000E+03	6.039873E-16	5.730368E-18
6.440000E+03	6.065985E-16	5.749442E-18
6.450000E+03	6.092395E-16	5.768845E-18
6.460000E+03	6.118990E-16	5.788462E-18
6.470000E+03	6.145503E-16	5.808033E-18
6.480000E+03	6.171648E-16	5.827282E-18
6.490000E+03	6.197264E-16	5.846050E-18
6.500000E+03	6.222124E-16	5.864115E-18
6.510000E+03	6.245998E-16	5.881257E-18
6.520000E+03	6.268663E-16	5.897261E-18
6.530000E+03	6.289902E-16	5.911917E-18
6.540000E+03	6.309573E-16	5.925090E-18
6.550000E+03	6.327476E-16	5.936587E-18
6.560000E+03	6.343419E-16	5.946224E-18
6.570000E+03	6.357360E-16	5.953960E-18
6.580000E+03	6.369127E-16	5.959632E-18
6.590000E+03	6.378489E-16	5.963021E-18
6.600000E+03	6.385511E-16	5.964188E-18
6.610000E+03	6.389988E-16	5.962939E-18
6.620000E+03	6.391794E-16	5.959158E-18
6.630000E+03	6.390968E-16	5.952879E-18
6.640000E+03	6.387268E-16	5.943879E-18
6.650000E+03	6.380836E-16	5.932290E-18
6.660000E+03	6.371608E-16	5.918055E-18
6.670000E+03	6.359461E-16	5.901062E-18
6.680000E+03	6.344365E-16	5.881285E-18
6.690000E+03	6.326524E-16	5.858916E-18
6.700000E+03	6.305720E-16	5.833756E-18
6.710000E+03	6.282187E-16	5.806028E-18
6.720000E+03	6.255886E-16	5.775698E-18
6.730000E+03	6.226864E-16	5.742814E-18
6.740000E+03	6.195257E-16	5.707508E-18
6.750000E+03	6.161141E-16	5.669855E-18
6.760000E+03	6.124608E-16	5.629944E-18
6.770000E+03	6.085758E-16	5.587874E-18
6.780000E+03	6.044779E-16	5.543823E-18
6.790000E+03	6.001721E-16	5.497845E-18
6.800000E+03	5.956790E-16	5.450134E-18
6.810000E+03	5.910127E-16	5.400824E-18
6.820000E+03	5.861805E-16	5.349991E-18
6.830000E+03	5.812122E-16	5.297911E-18
6.840000E+03	5.761160E-16	5.244668E-18
6.850000E+03	5.709079E-16	5.190410E-18
6.860000E+03	5.656106E-16	5.135353E-18
6.870000E+03	5.602332E-16	5.079585E-18
6.880000E+03	5.547982E-16	5.023314E-18
6.890000E+03	5.493143E-16	4.966626E-18
6.900000E+03	5.437968E-16	4.909663E-18
6.910000E+03	5.382737E-16	4.852686E-18
6.920000E+03	5.327459E-16	4.795703E-18
6.930000E+03	5.272336E-16	4.738903E-18
6.940000E+03	5.217430E-16	4.682345E-18
6.950000E+03	5.162930E-16	4.626202E-18
6.960000E+03	5.108950E-16	4.570581E-18
6.970000E+03	5.055596E-16	4.515577E-18
6.980000E+03	5.002966E-16	4.461281E-18
6.990000E+03	4.951091E-16	4.407723E-18
7.000000E+03	4.900114E-16	4.355032E-18
7.010000E+03	4.850048E-16	4.303221E-18
7.020000E+03	4.801085E-16	4.252463E-18
7.030000E+03	4.753161E-16	4.202699E-18
7.040000E+03	4.706331E-16	4.153981E-18
7.050000E+03	4.660699E-16	4.106401E-18
7.060000E+03	4.616305E-16	4.059994E-18
7.070000E+03	4.573121E-16	4.014736E-18
7.080000E+03	4.531176E-16	3.970651E-18
7.090000E+03	4.490491E-16	3.927760E-18
7.100000E+03	4.451139E-16	3.886125E-18
7.110000E+03	4.413076E-16	3.845706E-18
7.120000E+03	4.376308E-16	3.806510E-18
7.130000E+03	4.340784E-16	3.768492E-18
7.140000E+03	4.306615E-16	3.731747E-18
7.150000E+03	4.273687E-16	3.696177E-18
7.160000E+03	4.241993E-16	3.661775E-18
7.170000E+03	4.211579E-16	3.628582E-18
7.180000E+03	4.182434E-16	3.596587E-18
7.190000E+03	4.154437E-16	3.565687E-18
7.200000E+03	4.127626E-16	3.535915E-18
7.210000E+03	4.101931E-16	3.507212E-18
7.220000E+03	4.077441E-16	3.479654E-18
7.230000E+03	4.053976E-16	3.453087E-18
7.240000E+03	4.031570E-16	3.427544E-18
7.250000E+03	4.010198E-16	3.403004E-18
7.260000E+03	3.989788E-16	3.379407E-18
7.270000E+03	3.970367E-16	3.356779E-18
7.280000E+03	3.951807E-16	3.335013E-18
7.290000E+03	3.934083E-16	3.314090E-18
7.300000E+03	3.917170E-16	3.293994E-18
7.310000E+03	3.901041E-16	3.274704E-18
7.320000E+03	3.885617E-16	3.256157E-18
7.330000E+03	3.870822E-16	3.238294E-18
7.340000E+03	3.856628E-16	3.221095E-18
7.350000E+03	3.842956E-16	3.204499E-18
7.360000E+03	3.829778E-16	3.188488E-18
7.370000E+03	3.817017E-16	3.173002E-18
7.380000E+03	3.804646E-16	3.158025E-18
7.390000E+03	3.792537E-16	3.143455E-18
7.400000E+03	3.780665E-16	3.129278E-18
7.410000E+03	3.768955E-16	3.115437E-18
7.420000E+03	3.757432E-16	3.101961E-18
7.430000E+03	3.745974E-16	3.088755E-18
7.440000E+03	3.734612E-16	3.075849E-18
7.450000E+03	3.723329E-16	3.063236E-18
7.460000E+03	3.712107E-16	3.050908E-18
7.470000E+03	3.700984E-16	3.038901E-18
7.480000E+03	3.689954E-16	3.027217E-18
7.490000E+03	3.679060E-16	3.015897E-18
7.500000E+03	3.668351E-16	3.004982E-18
7.510000E+03	3.657829E-16	2.994466E-18
7.520000E+03	3.647546E-16	2.984380E-18
7.530000E+03	3.637505E-16	2.974717E-18
7.540000E+03	3.627706E-16	2.965465E-18
7.550000E+03	3.618186E-16	2.956647E-18
7.560000E+03	3.608975E-16	2.948275E-18
7.570000E+03	3.599994E-16	2.940276E-18
7.580000E+03	3.591257E-16	2.932650E-18
7.590000E+03	3.582771E-16	2.925394E-18
7.600000E+03	3.574451E-16	2.918429E-18
7.610000E+03	3.566354E-16	2.911792E-18
7.620000E+03	3.558354E-16	2.905372E-18
7.630000E+03	3.550473E-16	2.899176E-18
7.640000E+03	3.542735E-16	2.893216E-18
7.650000E+03	3.535122E-16	2.887469E-18
7.660000E+03	3.527574E-16	2.881877E-18
7.670000E+03	3.520129E-16	2.876463E-18
7.680000E+03	3.512780E-16	2.871213E-18
7.690000E+03	3.505522E-16	2.866115E-18
7.700000E+03	3.498354E-16	2.861161E-18
7.710000E+03	3.491275E-16	2.856341E-18
7.720000E+03	3.484331E-16	2.851688E-18
7.730000E+03	3.477429E-16	2.847118E-18
7.740000E+03	3.470664E-16	2.842701E-18
7.750000E+03	3.463989E-16	2.838393E-18
7.760000E+03	3.457404E-16	2.834187E-18
