#wls	flux	fluxerr
1.600000E+03	6.235086E-18	3.374515E-19
1.640000E+03	6.281937E-18	3.393626E-19
1.680000E+03	6.331763E-18	3.414095E-19
1.720000E+03	6.385923E-18	3.436635E-19
1.760000E+03	6.444720E-18	3.461391E-19
1.800000E+03	6.508480E-18	3.488514E-19
1.840000E+03	6.576441E-18	3.517572E-19
1.880000E+03	6.651235E-18	3.549949E-19
1.920000E+03	6.732177E-18	3.585245E-19
1.960000E+03	6.818582E-18	3.623067E-19
2.000000E+03	6.913266E-18	3.664876E-19
2.040000E+03	7.015652E-18	3.710326E-19
2.080000E+03	7.126361E-18	3.759705E-19
2.120000E+03	7.246081E-18	3.813327E-19
2.160000E+03	7.375563E-18	3.871539E-19
2.200000E+03	7.515644E-18	3.934725E-19
2.240000E+03	7.668486E-18	4.003953E-19
2.280000E+03	7.833895E-18	4.079051E-19
2.320000E+03	8.014294E-18	4.161204E-19
2.360000E+03	8.209676E-18	4.250323E-19
2.400000E+03	8.422766E-18	4.347725E-19
2.440000E+03	8.653821E-18	4.453435E-19
2.480000E+03	8.904546E-18	4.568219E-19
2.520000E+03	9.178289E-18	4.693666E-19
2.560000E+03	9.477276E-18	4.830768E-19
2.600000E+03	9.804006E-18	4.980635E-19
2.640000E+03	1.015968E-17	5.143696E-19
2.680000E+03	1.054889E-17	5.322078E-19
2.720000E+03	1.097509E-17	5.517298E-19
2.760000E+03	1.144217E-17	5.731058E-19
2.800000E+03	1.195268E-17	5.964348E-19
2.840000E+03	1.251500E-17	6.221037E-19
2.880000E+03	1.313092E-17	6.501650E-19
2.920000E+03	1.381029E-17	6.810671E-19
2.960000E+03	1.455597E-17	7.149049E-19
3.000000E+03	1.537967E-17	7.522037E-19
3.010000E+03	1.559831E-17	7.620878E-19
3.020000E+03	1.582208E-17	7.721961E-19
3.030000E+03	1.605111E-17	7.825342E-19
3.040000E+03	1.628554E-17	7.931077E-19
3.050000E+03	1.652787E-17	8.040371E-19
3.060000E+03	1.677595E-17	8.152165E-19
3.070000E+03	1.702752E-17	8.265355E-19
3.080000E+03	1.728752E-17	8.382325E-19
3.090000E+03	1.755373E-17	8.501988E-19
3.100000E+03	1.782632E-17	8.624410E-19
3.110000E+03	1.810545E-17	8.749660E-19
3.120000E+03	1.839385E-17	8.879046E-19
3.130000E+03	1.868661E-17	9.010175E-19
3.140000E+03	1.898906E-17	9.145612E-19
3.150000E+03	1.929884E-17	9.284199E-19
3.160000E+03	1.961611E-17	9.426005E-19
3.170000E+03	1.994108E-17	9.571111E-19
3.180000E+03	2.027395E-17	9.719598E-19
3.190000E+03	2.061490E-17	9.871542E-19
3.200000E+03	2.096702E-17	1.002840E-18
3.210000E+03	2.132481E-17	1.018753E-18
3.220000E+03	2.169427E-17	1.035178E-18
3.230000E+03	2.207276E-17	1.051986E-18
3.240000E+03	2.245745E-17	1.069042E-18
3.250000E+03	2.285770E-17	1.086789E-18
3.260000E+03	2.326461E-17	1.104802E-18
3.270000E+03	2.368145E-17	1.123234E-18
3.280000E+03	2.411170E-17	1.142248E-18
3.290000E+03	2.454919E-17	1.161550E-18
3.300000E+03	2.500068E-17	1.181457E-18
3.310000E+03	2.546318E-17	1.201826E-18
3.320000E+03	2.593697E-17	1.222668E-18
3.330000E+03	2.642227E-17	1.243991E-18
3.340000E+03	2.691938E-17	1.265807E-18
3.350000E+03	2.742855E-17	1.288124E-18
3.360000E+03	2.795369E-17	1.311124E-18
3.370000E+03	2.848782E-17	1.334478E-18
3.380000E+03	2.903860E-17	1.358540E-18
3.390000E+03	2.960262E-17	1.383150E-18
3.400000E+03	3.018016E-17	1.408317E-18
3.410000E+03	3.077151E-17	1.434051E-18
3.420000E+03	3.137692E-17	1.460362E-18
3.430000E+03	3.199666E-17	1.487259E-18
3.440000E+03	3.263519E-17	1.514947E-18
3.450000E+03	3.328447E-17	1.543049E-18
3.460000E+03	3.395320E-17	1.571965E-18
3.470000E+03	3.463746E-17	1.601510E-18
3.480000E+03	3.533748E-17	1.631692E-18
3.490000E+03	3.605350E-17	1.662519E-18
3.500000E+03	3.678577E-17	1.693998E-18
3.510000E+03	3.753447E-17	1.726135E-18
3.520000E+03	3.830462E-17	1.759156E-18
3.530000E+03	3.908687E-17	1.792628E-18
3.540000E+03	3.989105E-17	1.827000E-18
3.550000E+03	4.070744E-17	1.861822E-18
3.560000E+03	4.154618E-17	1.897554E-18
3.570000E+03	4.240233E-17	1.933966E-18
3.580000E+03	4.327593E-17	1.971057E-18
3.590000E+03	4.416695E-17	2.008822E-18
3.600000E+03	4.507529E-17	2.047252E-18
3.610000E+03	4.600646E-17	2.086593E-18
3.620000E+03	4.694906E-17	2.126324E-18
3.630000E+03	4.790834E-17	2.166681E-18
3.640000E+03	4.888988E-17	2.207912E-18
3.650000E+03	4.988748E-17	2.249732E-18
3.660000E+03	5.090062E-17	2.292114E-18
3.670000E+03	5.192239E-17	2.334745E-18
3.680000E+03	5.296446E-17	2.378146E-18
3.690000E+03	5.401984E-17	2.421999E-18
3.700000E+03	5.509419E-17	2.466556E-18
3.710000E+03	5.617343E-17	2.511182E-18
3.720000E+03	5.726292E-17	2.556115E-18
3.730000E+03	5.836838E-17	2.601609E-18
3.740000E+03	5.947484E-17	2.646993E-18
3.750000E+03	6.059492E-17	2.692828E-18
3.760000E+03	6.171311E-17	2.738422E-18
3.770000E+03	6.284239E-17	2.784351E-18
3.780000E+03	6.397425E-17	2.830236E-18
3.790000E+03	6.509975E-17	2.875680E-18
3.800000E+03	6.623261E-17	2.921291E-18
3.810000E+03	6.736409E-17	2.966682E-18
3.820000E+03	6.849305E-17	3.011802E-18
3.830000E+03	6.961843E-17	3.056605E-18
3.840000E+03	7.074743E-17	3.101408E-18
3.850000E+03	7.186320E-17	3.145472E-18
3.860000E+03	7.297319E-17	3.189126E-18
3.870000E+03	7.407699E-17	3.232352E-18
3.880000E+03	7.518294E-17	3.275515E-18
3.890000E+03	7.627407E-17	3.317877E-18
3.900000E+03	7.736764E-17	3.360190E-18
3.910000E+03	7.844660E-17	3.401714E-18
3.920000E+03	7.952877E-17	3.443223E-18
3.930000E+03	8.059676E-17	3.483967E-18
3.940000E+03	8.166896E-17	3.524740E-18
3.950000E+03	8.272740E-17	3.564768E-18
3.960000E+03	8.379062E-17	3.604851E-18
3.970000E+03	8.484921E-17	3.644585E-18
3.980000E+03	8.590303E-17	3.683964E-18
3.990000E+03	8.694176E-17	3.722549E-18
4.000000E+03	8.798337E-17	3.761110E-18
4.010000E+03	8.901700E-17	3.799183E-18
4.020000E+03	9.004099E-17	3.836700E-18
4.030000E+03	9.104334E-17	3.873152E-18
4.040000E+03	9.204126E-17	3.909276E-18
4.050000E+03	9.302226E-17	3.944542E-18
4.060000E+03	9.398340E-17	3.978831E-18
4.070000E+03	9.492181E-17	4.012025E-18
4.080000E+03	9.583430E-17	4.043994E-18
4.090000E+03	9.670766E-17	4.074189E-18
4.100000E+03	9.755969E-17	4.103367E-18
4.110000E+03	9.837749E-17	4.130990E-18
4.120000E+03	9.915896E-17	4.156978E-18
4.130000E+03	9.989177E-17	4.180823E-18
4.140000E+03	1.005959E-16	4.203371E-18
4.150000E+03	1.012600E-16	4.224154E-18
4.160000E+03	1.018841E-16	4.243185E-18
4.170000E+03	1.024579E-16	4.260042E-18
4.180000E+03	1.030040E-16	4.275673E-18
4.190000E+03	1.035131E-16	4.289701E-18
4.200000E+03	1.039766E-16	4.301777E-18
4.210000E+03	1.044183E-16	4.312897E-18
4.220000E+03	1.048195E-16	4.322290E-18
4.230000E+03	1.052044E-16	4.330969E-18
4.240000E+03	1.055547E-16	4.338179E-18
4.250000E+03	1.058840E-16	4.344490E-18
4.260000E+03	1.062063E-16	4.350475E-18
4.270000E+03	1.065024E-16	4.355357E-18
4.280000E+03	1.067858E-16	4.359692E-18
4.290000E+03	1.070587E-16	4.363574E-18
4.300000E+03	1.073232E-16	4.367087E-18
4.310000E+03	1.075807E-16	4.370291E-18
4.320000E+03	1.078326E-16	4.373249E-18
4.330000E+03	1.080797E-16	4.375994E-18
4.340000E+03	1.083119E-16	4.378119E-18
4.350000E+03	1.085512E-16	4.380519E-18
4.360000E+03	1.087871E-16	4.382763E-18
4.370000E+03	1.090089E-16	4.384426E-18
4.380000E+03	1.092381E-16	4.386377E-18
4.390000E+03	1.094534E-16	4.387760E-18
4.400000E+03	1.096659E-16	4.389021E-18
4.410000E+03	1.098761E-16	4.390186E-18
4.420000E+03	1.100849E-16	4.391291E-18
4.430000E+03	1.102938E-16	4.392393E-18
4.440000E+03	1.105045E-16	4.393564E-18
4.450000E+03	1.107197E-16	4.394910E-18
4.460000E+03	1.109316E-16	4.396123E-18
4.470000E+03	1.111656E-16	4.398213E-18
4.480000E+03	1.114048E-16	4.400505E-18
4.490000E+03	1.116653E-16	4.403631E-18
4.500000E+03	1.119636E-16	4.408249E-18
4.510000E+03	1.122851E-16	4.413765E-18
4.520000E+03	1.126365E-16	4.420451E-18
4.530000E+03	1.130473E-16	4.429450E-18
4.540000E+03	1.135143E-16	4.440631E-18
4.550000E+03	1.140349E-16	4.453883E-18
4.560000E+03	1.146386E-16	4.470347E-18
4.570000E+03	1.153113E-16	4.489461E-18
4.580000E+03	1.160713E-16	4.511923E-18
4.590000E+03	1.169251E-16	4.537973E-18
4.600000E+03	1.178783E-16	4.567813E-18
4.610000E+03	1.189243E-16	4.601172E-18
4.620000E+03	1.200886E-16	4.639020E-18
4.630000E+03	1.213504E-16	4.680532E-18
4.640000E+03	1.227207E-16	4.726123E-18
4.650000E+03	1.241975E-16	4.775697E-18
4.660000E+03	1.257770E-16	4.829093E-18
4.670000E+03	1.274530E-16	4.886057E-18
4.680000E+03	1.292175E-16	4.946269E-18
4.690000E+03	1.310482E-16	5.008870E-18
4.700000E+03	1.329452E-16	5.073850E-18
4.710000E+03	1.349074E-16	5.141160E-18
4.720000E+03	1.368823E-16	5.208799E-18
4.730000E+03	1.388917E-16	5.277597E-18
4.740000E+03	1.409067E-16	5.346452E-18
4.750000E+03	1.428980E-16	5.414261E-18
4.760000E+03	1.448760E-16	5.481428E-18
4.770000E+03	1.468000E-16	5.546415E-18
4.780000E+03	1.486707E-16	5.609268E-18
4.790000E+03	1.504642E-16	5.669097E-18
4.800000E+03	1.522011E-16	5.726692E-18
4.810000E+03	1.538499E-16	5.780884E-18
4.820000E+03	1.554143E-16	5.831828E-18
4.830000E+03	1.568786E-16	5.878958E-18
4.840000E+03	1.582305E-16	5.921823E-18
4.850000E+03	1.594612E-16	5.960128E-18
4.860000E+03	1.605519E-16	5.993182E-18
4.870000E+03	1.615304E-16	6.022050E-18
4.880000E+03	1.623694E-16	6.045731E-18
4.890000E+03	1.630870E-16	6.064917E-18
4.900000E+03	1.636745E-16	6.079306E-18
4.910000E+03	1.641692E-16	6.090301E-18
4.920000E+03	1.645515E-16	6.097183E-18
4.930000E+03	1.648613E-16	6.101444E-18
4.940000E+03	1.650799E-16	6.102410E-18
4.950000E+03	1.652180E-16	6.100476E-18
4.960000E+03	1.653147E-16	6.097100E-18
4.970000E+03	1.653494E-16	6.091528E-18
4.980000E+03	1.653586E-16	6.085108E-18
4.990000E+03	1.653189E-16	6.076980E-18
5.000000E+03	1.652339E-16	6.067286E-18
5.010000E+03	1.651350E-16	6.057177E-18
5.020000E+03	1.649933E-16	6.045599E-18
5.030000E+03	1.648368E-16	6.033577E-18
5.040000E+03	1.646338E-16	6.019953E-18
5.050000E+03	1.643951E-16	6.005131E-18
5.060000E+03	1.641022E-16	5.988428E-18
5.070000E+03	1.637787E-16	5.970717E-18
5.080000E+03	1.633914E-16	5.950789E-18
5.090000E+03	1.629501E-16	5.929008E-18
5.100000E+03	1.624515E-16	5.905251E-18
5.110000E+03	1.618930E-16	5.879435E-18
5.120000E+03	1.612598E-16	5.851025E-18
5.130000E+03	1.605809E-16	5.821077E-18
5.140000E+03	1.598314E-16	5.788693E-18
5.150000E+03	1.590305E-16	5.754571E-18
5.160000E+03	1.581717E-16	5.718485E-18
5.170000E+03	1.572921E-16	5.681772E-18
5.180000E+03	1.563761E-16	5.643870E-18
5.190000E+03	1.554503E-16	5.605744E-18
5.200000E+03	1.545299E-16	5.567933E-18
5.210000E+03	1.536306E-16	5.531007E-18
5.220000E+03	1.527690E-16	5.495557E-18
5.230000E+03	1.519491E-16	5.461722E-18
5.240000E+03	1.512009E-16	5.430572E-18
5.250000E+03	1.505409E-16	5.402695E-18
5.260000E+03	1.499848E-16	5.378643E-18
5.270000E+03	1.495472E-16	5.358933E-18
5.280000E+03	1.492289E-16	5.343576E-18
5.290000E+03	1.490548E-16	5.333455E-18
5.300000E+03	1.490352E-16	5.328931E-18
5.310000E+03	1.491791E-16	5.330308E-18
5.320000E+03	1.494936E-16	5.337832E-18
5.330000E+03	1.499715E-16	5.351229E-18
5.340000E+03	1.506421E-16	5.371529E-18
5.350000E+03	1.514815E-16	5.397877E-18
5.360000E+03	1.525027E-16	5.430714E-18
5.370000E+03	1.537039E-16	5.469970E-18
5.380000E+03	1.550684E-16	5.515037E-18
5.390000E+03	1.566171E-16	5.566648E-18
5.400000E+03	1.583159E-16	5.623587E-18
5.410000E+03	1.601690E-16	5.685986E-18
5.420000E+03	1.621655E-16	5.753453E-18
5.430000E+03	1.642784E-16	5.825027E-18
5.440000E+03	1.665208E-16	5.901165E-18
5.450000E+03	1.688488E-16	5.980303E-18
5.460000E+03	1.712726E-16	6.062806E-18
5.470000E+03	1.737446E-16	6.146981E-18
5.480000E+03	1.762435E-16	6.232079E-18
5.490000E+03	1.787775E-16	6.318390E-18
5.500000E+03	1.813096E-16	6.404604E-18
5.510000E+03	1.838012E-16	6.489367E-18
5.520000E+03	1.862442E-16	6.572391E-18
5.530000E+03	1.886148E-16	6.652846E-18
5.540000E+03	1.908896E-16	6.729914E-18
5.550000E+03	1.930455E-16	6.802784E-18
5.560000E+03	1.950433E-16	6.870090E-18
5.570000E+03	1.968943E-16	6.932232E-18
5.580000E+03	1.985445E-16	6.987327E-18
5.590000E+03	1.999916E-16	7.035295E-18
5.600000E+03	2.012178E-16	7.075528E-18
5.610000E+03	2.022076E-16	7.107492E-18
5.620000E+03	2.029306E-16	7.130130E-18
5.630000E+03	2.034102E-16	7.144273E-18
5.640000E+03	2.036043E-16	7.148457E-18
5.650000E+03	2.035253E-16	7.143123E-18
5.660000E+03	2.031716E-16	7.128233E-18
5.670000E+03	2.025457E-16	7.103879E-18
5.680000E+03	2.016363E-16	7.069680E-18
5.690000E+03	2.004873E-16	7.027176E-18
5.700000E+03	1.990783E-16	6.975664E-18
5.710000E+03	1.974598E-16	6.916921E-18
5.720000E+03	1.956191E-16	6.850503E-18
5.730000E+03	1.935959E-16	6.777813E-18
5.740000E+03	1.914164E-16	6.699763E-18
5.750000E+03	1.890925E-16	6.616774E-18
5.760000E+03	1.866852E-16	6.530984E-18
5.770000E+03	1.841932E-16	6.442346E-18
5.780000E+03	1.816778E-16	6.353000E-18
5.790000E+03	1.791379E-16	6.262912E-18
5.800000E+03	1.766180E-16	6.173634E-18
5.810000E+03	1.741454E-16	6.086112E-18
5.820000E+03	1.717455E-16	6.001235E-18
5.830000E+03	1.694271E-16	5.919306E-18
5.840000E+03	1.672394E-16	5.842039E-18
5.850000E+03	1.651719E-16	5.769065E-18
5.860000E+03	1.632670E-16	5.701861E-18
5.870000E+03	1.615088E-16	5.639866E-18
5.880000E+03	1.599195E-16	5.583854E-18
5.890000E+03	1.585042E-16	5.533997E-18
5.900000E+03	1.572649E-16	5.490366E-18
5.910000E+03	1.562001E-16	5.452907E-18
5.920000E+03	1.552930E-16	5.421026E-18
5.930000E+03	1.545621E-16	5.395375E-18
5.940000E+03	1.539718E-16	5.374705E-18
5.950000E+03	1.535225E-16	5.359036E-18
5.960000E+03	1.532126E-16	5.348304E-18
5.970000E+03	1.529997E-16	5.341035E-18
5.980000E+03	1.528786E-16	5.337048E-18
5.990000E+03	1.528173E-16	5.335228E-18
6.000000E+03	1.528218E-16	5.335784E-18
6.010000E+03	1.528595E-16	5.337578E-18
6.020000E+03	1.528979E-16	5.339479E-18
6.030000E+03	1.529443E-16	5.341739E-18
6.040000E+03	1.529557E-16	5.342862E-18
6.050000E+03	1.529426E-16	5.343214E-18
6.060000E+03	1.528661E-16	5.341438E-18
6.070000E+03	1.527285E-16	5.337607E-18
6.080000E+03	1.525217E-16	5.331446E-18
6.090000E+03	1.522404E-16	5.322764E-18
6.100000E+03	1.518821E-16	5.311474E-18
6.110000E+03	1.514342E-16	5.297137E-18
6.120000E+03	1.509250E-16	5.280734E-18
6.130000E+03	1.503464E-16	5.261986E-18
6.140000E+03	1.496927E-16	5.240690E-18
6.150000E+03	1.489974E-16	5.218014E-18
6.160000E+03	1.482450E-16	5.193417E-18
6.170000E+03	1.474586E-16	5.167704E-18
6.180000E+03	1.466487E-16	5.141245E-18
6.190000E+03	1.458263E-16	5.114420E-18
6.200000E+03	1.450145E-16	5.088037E-18
6.210000E+03	1.441863E-16	5.061155E-18
6.220000E+03	1.433876E-16	5.035381E-18
6.230000E+03	1.426145E-16	5.010575E-18
6.240000E+03	1.418739E-16	4.986987E-18
6.250000E+03	1.411714E-16	4.964812E-18
6.260000E+03	1.404995E-16	4.943790E-18
6.270000E+03	1.398853E-16	4.924869E-18
6.280000E+03	1.393065E-16	4.907275E-18
6.290000E+03	1.387873E-16	4.891859E-18
6.300000E+03	1.383038E-16	4.877783E-18
6.310000E+03	1.378662E-16	4.865403E-18
6.320000E+03	1.374721E-16	4.854638E-18
6.330000E+03	1.371302E-16	4.845791E-18
6.340000E+03	1.368136E-16	4.837918E-18
6.350000E+03	1.365300E-16	4.831286E-18
6.360000E+03	1.362752E-16	4.825752E-18
6.370000E+03	1.360452E-16	4.821167E-18
6.380000E+03	1.358244E-16	4.816985E-18
6.390000E+03	1.356321E-16	4.813885E-18
6.400000E+03	1.354533E-16	4.811333E-18
6.410000E+03	1.352852E-16	4.809235E-18
6.420000E+03	1.351141E-16	4.807100E-18
6.430000E+03	1.349613E-16	4.805681E-18
6.440000E+03	1.348029E-16	4.804130E-18
6.450000E+03	1.346610E-16	4.803232E-18
6.460000E+03	1.345128E-16	4.802171E-18
6.470000E+03	1.343812E-16	4.801766E-18
6.480000E+03	1.342437E-16	4.801208E-18
6.490000E+03	1.341118E-16	4.800911E-18
6.500000E+03	1.339970E-16	4.801283E-18
6.510000E+03	1.338759E-16	4.801482E-18
6.520000E+03	1.337582E-16	4.801861E-18
6.530000E+03	1.336413E-16	4.802319E-18
6.540000E+03	1.335214E-16	4.802720E-18
6.550000E+03	1.333929E-16	4.802862E-18
6.560000E+03	1.332488E-16	4.802492E-18
6.570000E+03	1.330803E-16	4.801283E-18
6.580000E+03	1.328769E-16	4.798852E-18
6.590000E+03	1.326263E-16	4.794754E-18
6.600000E+03	1.323147E-16	4.788481E-18
6.610000E+03	1.319273E-16	4.779485E-18
6.620000E+03	1.314372E-16	4.766782E-18
6.630000E+03	1.308505E-16	4.750583E-18
6.640000E+03	1.301401E-16	4.729883E-18
6.650000E+03	1.292793E-16	4.703700E-18
6.660000E+03	1.282761E-16	4.672301E-18
6.670000E+03	1.271071E-16	4.634818E-18
6.680000E+03	1.257516E-16	4.590471E-18
6.690000E+03	1.242242E-16	4.539767E-18
6.700000E+03	1.225000E-16	4.481771E-18
6.710000E+03	1.205896E-16	4.416851E-18
6.720000E+03	1.185070E-16	4.345489E-18
6.730000E+03	1.162395E-16	4.267192E-18
6.740000E+03	1.138085E-16	4.182729E-18
6.750000E+03	1.112381E-16	4.092955E-18
6.760000E+03	1.085265E-16	3.997791E-18
6.770000E+03	1.057035E-16	3.898308E-18
6.780000E+03	1.027905E-16	3.795285E-18
6.790000E+03	9.981911E-17	3.689872E-18
6.800000E+03	9.679519E-17	3.582278E-18
6.810000E+03	9.375082E-17	3.473681E-18
6.820000E+03	9.070858E-17	3.364916E-18
6.830000E+03	8.768995E-17	3.256776E-18
6.840000E+03	8.471480E-17	3.150002E-18
6.850000E+03	8.180123E-17	3.045271E-18
6.860000E+03	7.896523E-17	2.943186E-18
6.870000E+03	7.622067E-17	2.844273E-18
6.880000E+03	7.357285E-17	2.748739E-18
6.890000E+03	7.104414E-17	2.657434E-18
6.900000E+03	6.863541E-17	2.570404E-18
6.910000E+03	6.635210E-17	2.487869E-18
6.920000E+03	6.419794E-17	2.409983E-18
6.930000E+03	6.216967E-17	2.336641E-18
6.940000E+03	6.027900E-17	2.268300E-18
6.950000E+03	5.851493E-17	2.204562E-18
6.960000E+03	5.688639E-17	2.145781E-18
6.970000E+03	5.538606E-17	2.091698E-18
6.980000E+03	5.400653E-17	2.042050E-18
6.990000E+03	5.275414E-17	1.997092E-18
7.000000E+03	5.161617E-17	1.956360E-18
7.010000E+03	5.059369E-17	1.919909E-18
7.020000E+03	4.968733E-17	1.887779E-18
7.030000E+03	4.888468E-17	1.859512E-18
7.040000E+03	4.818660E-17	1.835156E-18
7.050000E+03	4.759381E-17	1.814751E-18
7.060000E+03	4.709475E-17	1.797871E-18
7.070000E+03	4.669063E-17	1.784575E-18
7.080000E+03	4.637871E-17	1.774770E-18
7.090000E+03	4.615652E-17	1.768374E-18
7.100000E+03	4.602588E-17	1.765470E-18
7.110000E+03	4.597678E-17	1.765684E-18
7.120000E+03	4.601157E-17	1.769119E-18
7.130000E+03	4.612881E-17	1.775729E-18
7.140000E+03	4.632319E-17	1.785322E-18
7.150000E+03	4.660176E-17	1.798180E-18
7.160000E+03	4.695964E-17	1.814124E-18
7.170000E+03	4.739603E-17	1.833137E-18
7.180000E+03	4.791032E-17	1.855203E-18
7.190000E+03	4.849763E-17	1.880145E-18
7.200000E+03	4.916584E-17	1.908277E-18
7.210000E+03	4.991013E-17	1.939423E-18
7.220000E+03	5.072528E-17	1.973390E-18
7.230000E+03	5.161933E-17	2.010501E-18
7.240000E+03	5.258220E-17	2.050372E-18
7.250000E+03	5.362181E-17	2.093322E-18
7.260000E+03	5.472718E-17	2.138931E-18
7.270000E+03	5.590105E-17	2.187316E-18
7.280000E+03	5.714616E-17	2.238592E-18
7.290000E+03	5.844976E-17	2.292268E-18
7.300000E+03	5.981361E-17	2.348421E-18
7.310000E+03	6.123400E-17	2.406913E-18
7.320000E+03	6.270674E-17	2.467585E-18
7.330000E+03	6.422710E-17	2.530258E-18
7.340000E+03	6.578982E-17	2.594729E-18
7.350000E+03	6.738917E-17	2.660778E-18
7.360000E+03	6.901886E-17	2.728161E-18
7.370000E+03	7.067221E-17	2.796616E-18
7.380000E+03	7.234209E-17	2.865862E-18
7.390000E+03	7.401443E-17	2.935345E-18
7.400000E+03	7.569452E-17	3.005272E-18
7.410000E+03	7.736792E-17	3.075072E-18
7.420000E+03	7.901949E-17	3.144139E-18
7.430000E+03	8.065506E-17	3.212702E-18
7.440000E+03	8.225229E-17	3.279868E-18
7.450000E+03	8.381037E-17	3.345598E-18
7.460000E+03	8.532936E-17	3.409890E-18
7.470000E+03	8.678686E-17	3.471842E-18
7.480000E+03	8.818369E-17	3.531477E-18
7.490000E+03	8.951370E-17	3.588541E-18
7.500000E+03	9.077143E-17	3.642806E-18
7.510000E+03	9.195215E-17	3.694072E-18
7.520000E+03	9.305187E-17	3.742168E-18
7.530000E+03	9.406742E-17	3.786955E-18
7.540000E+03	9.499643E-17	3.828328E-18
7.550000E+03	9.582861E-17	3.865859E-18
7.560000E+03	9.658028E-17	3.900196E-18
7.570000E+03	9.723372E-17	3.930611E-18
7.580000E+03	9.780678E-17	3.957815E-18
7.590000E+03	9.828263E-17	3.981115E-18
7.600000E+03	9.868039E-17	4.001274E-18
7.610000E+03	9.898394E-17	4.017629E-18
7.620000E+03	9.920432E-17	4.030616E-18
7.630000E+03	9.934401E-17	4.040326E-18
7.640000E+03	9.940578E-17	4.046861E-18
7.650000E+03	9.939254E-17	4.050331E-18
7.660000E+03	9.930779E-17	4.050870E-18
7.670000E+03	9.915499E-17	4.048609E-18
7.680000E+03	9.893797E-17	4.043698E-18
7.690000E+03	9.866085E-17	4.036297E-18
7.700000E+03	9.831893E-17	4.026208E-18
7.710000E+03	9.793485E-17	4.014349E-18
7.720000E+03	9.749533E-17	4.000173E-18
7.730000E+03	9.702318E-17	3.984609E-18
7.740000E+03	9.650542E-17	3.967119E-18
7.750000E+03	9.595584E-17	3.948268E-18
7.760000E+03	9.537911E-17	3.928242E-18
