#wls	flux	fluxerr
1.600000E+03	5.028189E-18	1.513821E-19
1.640000E+03	5.081899E-18	1.528151E-19
1.680000E+03	5.138353E-18	1.543220E-19
1.720000E+03	5.199623E-18	1.559645E-19
1.760000E+03	5.265100E-18	1.577234E-19
1.800000E+03	5.336033E-18	1.596355E-19
1.840000E+03	5.411850E-18	1.616826E-19
1.880000E+03	5.492920E-18	1.638749E-19
1.920000E+03	5.580617E-18	1.662522E-19
1.960000E+03	5.674430E-18	1.687983E-19
2.000000E+03	5.775840E-18	1.715560E-19
2.040000E+03	5.884392E-18	1.745102E-19
2.080000E+03	6.000652E-18	1.776764E-19
2.120000E+03	6.125238E-18	1.810712E-19
2.160000E+03	6.260981E-18	1.847766E-19
2.200000E+03	6.405442E-18	1.887185E-19
2.240000E+03	6.561617E-18	1.929830E-19
2.280000E+03	6.729312E-18	1.975622E-19
2.320000E+03	6.910682E-18	2.025167E-19
2.360000E+03	7.105671E-18	2.078420E-19
2.400000E+03	7.316700E-18	2.136057E-19
2.440000E+03	7.543887E-18	2.198077E-19
2.480000E+03	7.789974E-18	2.265242E-19
2.520000E+03	8.055296E-18	2.337606E-19
2.560000E+03	8.342986E-18	2.416031E-19
2.600000E+03	8.653650E-18	2.500642E-19
2.640000E+03	8.990904E-18	2.592425E-19
2.680000E+03	9.355683E-18	2.691587E-19
2.720000E+03	9.750569E-18	2.798802E-19
2.760000E+03	1.018009E-17	2.915292E-19
2.800000E+03	1.064760E-17	3.041929E-19
2.840000E+03	1.115495E-17	3.179149E-19
2.880000E+03	1.170793E-17	3.328489E-19
2.920000E+03	1.230902E-17	3.490543E-19
2.960000E+03	1.296288E-17	3.666501E-19
3.000000E+03	1.367690E-17	3.858306E-19
3.010000E+03	1.386626E-17	3.909128E-19
3.020000E+03	1.405746E-17	3.960384E-19
3.030000E+03	1.425511E-17	4.013373E-19
3.040000E+03	1.445472E-17	4.066827E-19
3.050000E+03	1.466104E-17	4.122084E-19
3.060000E+03	1.487187E-17	4.178516E-19
3.070000E+03	1.508487E-17	4.235465E-19
3.080000E+03	1.530500E-17	4.294321E-19
3.090000E+03	1.552996E-17	4.354435E-19
3.100000E+03	1.575987E-17	4.415838E-19
3.110000E+03	1.599482E-17	4.478550E-19
3.120000E+03	1.623236E-17	4.541881E-19
3.130000E+03	1.647774E-17	4.607304E-19
3.140000E+03	1.672856E-17	4.674133E-19
3.150000E+03	1.698491E-17	4.742397E-19
3.160000E+03	1.724693E-17	4.812129E-19
3.170000E+03	1.751474E-17	4.883357E-19
3.180000E+03	1.778849E-17	4.956122E-19
3.190000E+03	1.806830E-17	5.030451E-19
3.200000E+03	1.835432E-17	5.106379E-19
3.210000E+03	1.864666E-17	5.183941E-19
3.220000E+03	1.894851E-17	5.264008E-19
3.230000E+03	1.925402E-17	5.344957E-19
3.240000E+03	1.956630E-17	5.427643E-19
3.250000E+03	1.988550E-17	5.512108E-19
3.260000E+03	2.021178E-17	5.598387E-19
3.270000E+03	2.054852E-17	5.687415E-19
3.280000E+03	2.088945E-17	5.777445E-19
3.290000E+03	2.123791E-17	5.869401E-19
3.300000E+03	2.159405E-17	5.963320E-19
3.310000E+03	2.196151E-17	6.060195E-19
3.320000E+03	2.233357E-17	6.158172E-19
3.330000E+03	2.271380E-17	6.258228E-19
3.340000E+03	2.310598E-17	6.361399E-19
3.350000E+03	2.350309E-17	6.465742E-19
3.360000E+03	2.391259E-17	6.573310E-19
3.370000E+03	2.432721E-17	6.682092E-19
3.380000E+03	2.475467E-17	6.794207E-19
3.390000E+03	2.518745E-17	6.907580E-19
3.400000E+03	2.563352E-17	7.024391E-19
3.410000E+03	2.608506E-17	7.142494E-19
3.420000E+03	2.655033E-17	7.264140E-19
3.430000E+03	2.702122E-17	7.387105E-19
3.440000E+03	2.750625E-17	7.513710E-19
3.450000E+03	2.800140E-17	7.642851E-19
3.460000E+03	2.850235E-17	7.773339E-19
3.470000E+03	2.901801E-17	7.907598E-19
3.480000E+03	2.954413E-17	8.044460E-19
3.490000E+03	3.007612E-17	8.182671E-19
3.500000E+03	3.062329E-17	8.324758E-19
3.510000E+03	3.118112E-17	8.469477E-19
3.520000E+03	3.174475E-17	8.615504E-19
3.530000E+03	3.232390E-17	8.765474E-19
3.540000E+03	3.291373E-17	8.918061E-19
3.550000E+03	3.351422E-17	9.073249E-19
3.560000E+03	3.412531E-17	9.231019E-19
3.570000E+03	3.474154E-17	9.389885E-19
3.580000E+03	3.537338E-17	9.552671E-19
3.590000E+03	3.601542E-17	9.717904E-19
3.600000E+03	3.666745E-17	9.885521E-19
3.610000E+03	3.732921E-17	1.005545E-18
3.620000E+03	3.800045E-17	1.022760E-18
3.630000E+03	3.868083E-17	1.040189E-18
3.640000E+03	3.936399E-17	1.057660E-18
3.650000E+03	4.006141E-17	1.075481E-18
3.660000E+03	4.076677E-17	1.093481E-18
3.670000E+03	4.147958E-17	1.111646E-18
3.680000E+03	4.219931E-17	1.129962E-18
3.690000E+03	4.292546E-17	1.148415E-18
3.700000E+03	4.365742E-17	1.166988E-18
3.710000E+03	4.439464E-17	1.185665E-18
3.720000E+03	4.513651E-17	1.204432E-18
3.730000E+03	4.588244E-17	1.223269E-18
3.740000E+03	4.663185E-17	1.242164E-18
3.750000E+03	4.738413E-17	1.261098E-18
3.760000E+03	4.813876E-17	1.280058E-18
3.770000E+03	4.889522E-17	1.299029E-18
3.780000E+03	4.965301E-17	1.317999E-18
3.790000E+03	5.041172E-17	1.336957E-18
3.800000E+03	5.117098E-17	1.355892E-18
3.810000E+03	5.193047E-17	1.374796E-18
3.820000E+03	5.268998E-17	1.393663E-18
3.830000E+03	5.344932E-17	1.412489E-18
3.840000E+03	5.420840E-17	1.431271E-18
3.850000E+03	5.496720E-17	1.450008E-18
3.860000E+03	5.572579E-17	1.468703E-18
3.870000E+03	5.648423E-17	1.487357E-18
3.880000E+03	5.724273E-17	1.505976E-18
3.890000E+03	5.800148E-17	1.524564E-18
3.900000E+03	5.876070E-17	1.543128E-18
3.910000E+03	5.952064E-17	1.561674E-18
3.920000E+03	6.028156E-17	1.580209E-18
3.930000E+03	6.104365E-17	1.598738E-18
3.940000E+03	6.180714E-17	1.617267E-18
3.950000E+03	6.257213E-17	1.635798E-18
3.960000E+03	6.333868E-17	1.654334E-18
3.970000E+03	6.410674E-17	1.672872E-18
3.980000E+03	6.487618E-17	1.691409E-18
3.990000E+03	6.564675E-17	1.709940E-18
4.000000E+03	6.641806E-17	1.728452E-18
4.010000E+03	6.718959E-17	1.746935E-18
4.020000E+03	6.796071E-17	1.765370E-18
4.030000E+03	6.873062E-17	1.783737E-18
4.040000E+03	6.949846E-17	1.802015E-18
4.050000E+03	7.026322E-17	1.820178E-18
4.060000E+03	7.102378E-17	1.838196E-18
4.070000E+03	7.177901E-17	1.856041E-18
4.080000E+03	7.252765E-17	1.873682E-18
4.090000E+03	7.326845E-17	1.891086E-18
4.100000E+03	7.400016E-17	1.908222E-18
4.110000E+03	7.472152E-17	1.925058E-18
4.120000E+03	7.543134E-17	1.941565E-18
4.130000E+03	7.611744E-17	1.957430E-18
4.140000E+03	7.680075E-17	1.973194E-18
4.150000E+03	7.746939E-17	1.988551E-18
4.160000E+03	7.812252E-17	2.003481E-18
4.170000E+03	7.875944E-17	2.017969E-18
4.180000E+03	7.937961E-17	2.032000E-18
4.190000E+03	7.997104E-17	2.045271E-18
4.200000E+03	8.055640E-17	2.058362E-18
4.210000E+03	8.112404E-17	2.070977E-18
4.220000E+03	8.167389E-17	2.083115E-18
4.230000E+03	8.219416E-17	2.094478E-18
4.240000E+03	8.270841E-17	2.105668E-18
4.250000E+03	8.320504E-17	2.116390E-18
4.260000E+03	8.367225E-17	2.126347E-18
4.270000E+03	8.413407E-17	2.136149E-18
4.280000E+03	8.456668E-17	2.145195E-18
4.290000E+03	8.499435E-17	2.154101E-18
4.300000E+03	8.540519E-17	2.162568E-18
4.310000E+03	8.578711E-17	2.170289E-18
4.320000E+03	8.616462E-17	2.177888E-18
4.330000E+03	8.651338E-17	2.184750E-18
4.340000E+03	8.685809E-17	2.191501E-18
4.350000E+03	8.717431E-17	2.197525E-18
4.360000E+03	8.747462E-17	2.203141E-18
4.370000E+03	8.777187E-17	2.208674E-18
4.380000E+03	8.804176E-17	2.213514E-18
4.390000E+03	8.830995E-17	2.218307E-18
4.400000E+03	8.855245E-17	2.222451E-18
4.410000E+03	8.878302E-17	2.226295E-18
4.420000E+03	8.900321E-17	2.229877E-18
4.430000E+03	8.922755E-17	2.233562E-18
4.440000E+03	8.943319E-17	2.236779E-18
4.450000E+03	8.963536E-17	2.239911E-18
4.460000E+03	8.983718E-17	2.243034E-18
4.470000E+03	9.004206E-17	2.246236E-18
4.480000E+03	9.025387E-17	2.249613E-18
4.490000E+03	9.047675E-17	2.253267E-18
4.500000E+03	9.072787E-17	2.257625E-18
4.510000E+03	9.098654E-17	2.262173E-18
4.520000E+03	9.127028E-17	2.267344E-18
4.530000E+03	9.157126E-17	2.272943E-18
4.540000E+03	9.191990E-17	2.279725E-18
4.550000E+03	9.230829E-17	2.287491E-18
4.560000E+03	9.274099E-17	2.296351E-18
4.570000E+03	9.322223E-17	2.306408E-18
4.580000E+03	9.375578E-17	2.317753E-18
4.590000E+03	9.433175E-17	2.330140E-18
4.600000E+03	9.497875E-17	2.344272E-18
4.610000E+03	9.568543E-17	2.359866E-18
4.620000E+03	9.643916E-17	2.376607E-18
4.630000E+03	9.726630E-17	2.395144E-18
4.640000E+03	9.815213E-17	2.415110E-18
4.650000E+03	9.908039E-17	2.436103E-18
4.660000E+03	1.000745E-16	2.458697E-18
4.670000E+03	1.011018E-16	2.482088E-18
4.680000E+03	1.021696E-16	2.506454E-18
4.690000E+03	1.032846E-16	2.531956E-18
4.700000E+03	1.044096E-16	2.557685E-18
4.710000E+03	1.055635E-16	2.584102E-18
4.720000E+03	1.067068E-16	2.610239E-18
4.730000E+03	1.078424E-16	2.636172E-18
4.740000E+03	1.089587E-16	2.661616E-18
4.750000E+03	1.100438E-16	2.686284E-18
4.760000E+03	1.110859E-16	2.709890E-18
4.770000E+03	1.120892E-16	2.732540E-18
4.780000E+03	1.130125E-16	2.753234E-18
4.790000E+03	1.138616E-16	2.772118E-18
4.800000E+03	1.146289E-16	2.789012E-18
4.810000E+03	1.152921E-16	2.803375E-18
4.820000E+03	1.158783E-16	2.815877E-18
4.830000E+03	1.163694E-16	2.826078E-18
4.840000E+03	1.167647E-16	2.833968E-18
4.850000E+03	1.170656E-16	2.839585E-18
4.860000E+03	1.172590E-16	2.842618E-18
4.870000E+03	1.173812E-16	2.843950E-18
4.880000E+03	1.174216E-16	2.843325E-18
4.890000E+03	1.173705E-16	2.840517E-18
4.900000E+03	1.172667E-16	2.836464E-18
4.910000E+03	1.170858E-16	2.830579E-18
4.920000E+03	1.168672E-16	2.823819E-18
4.930000E+03	1.165874E-16	2.815614E-18
4.940000E+03	1.162859E-16	2.806921E-18
4.950000E+03	1.159387E-16	2.797163E-18
4.960000E+03	1.155694E-16	2.786907E-18
4.970000E+03	1.152000E-16	2.776687E-18
4.980000E+03	1.148056E-16	2.765900E-18
4.990000E+03	1.144072E-16	2.755051E-18
5.000000E+03	1.140089E-16	2.744243E-18
5.010000E+03	1.136145E-16	2.733563E-18
5.020000E+03	1.132266E-16	2.723073E-18
5.030000E+03	1.128469E-16	2.712815E-18
5.040000E+03	1.124763E-16	2.702811E-18
5.050000E+03	1.121154E-16	2.693069E-18
5.060000E+03	1.117636E-16	2.683580E-18
5.070000E+03	1.114203E-16	2.674327E-18
5.080000E+03	1.110696E-16	2.664925E-18
5.090000E+03	1.107401E-16	2.656064E-18
5.100000E+03	1.104156E-16	2.647353E-18
5.110000E+03	1.100802E-16	2.638410E-18
5.120000E+03	1.097628E-16	2.629926E-18
5.130000E+03	1.094479E-16	2.621532E-18
5.140000E+03	1.091210E-16	2.612877E-18
5.150000E+03	1.088118E-16	2.604674E-18
5.160000E+03	1.084922E-16	2.596250E-18
5.170000E+03	1.081786E-16	2.587996E-18
5.180000E+03	1.078876E-16	2.580310E-18
5.190000E+03	1.075932E-16	2.572568E-18
5.200000E+03	1.073133E-16	2.565197E-18
5.210000E+03	1.070515E-16	2.558286E-18
5.220000E+03	1.068265E-16	2.552277E-18
5.230000E+03	1.066139E-16	2.546588E-18
5.240000E+03	1.064325E-16	2.541668E-18
5.250000E+03	1.062869E-16	2.537626E-18
5.260000E+03	1.061815E-16	2.534566E-18
5.270000E+03	1.061205E-16	2.532586E-18
5.280000E+03	1.061078E-16	2.531780E-18
5.290000E+03	1.061468E-16	2.532228E-18
5.300000E+03	1.062265E-16	2.533665E-18
5.310000E+03	1.063774E-16	2.536821E-18
5.320000E+03	1.065873E-16	2.541401E-18
5.330000E+03	1.068572E-16	2.547432E-18
5.340000E+03	1.071734E-16	2.554583E-18
5.350000E+03	1.075640E-16	2.563524E-18
5.360000E+03	1.079993E-16	2.573550E-18
5.370000E+03	1.085063E-16	2.585300E-18
5.380000E+03	1.090536E-16	2.598027E-18
5.390000E+03	1.096669E-16	2.612342E-18
5.400000E+03	1.103131E-16	2.627457E-18
5.410000E+03	1.110021E-16	2.643607E-18
5.420000E+03	1.117432E-16	2.661018E-18
5.430000E+03	1.125012E-16	2.678846E-18
5.440000E+03	1.132841E-16	2.697284E-18
5.450000E+03	1.140848E-16	2.716166E-18
5.460000E+03	1.149115E-16	2.735681E-18
5.470000E+03	1.157255E-16	2.754913E-18
5.480000E+03	1.165338E-16	2.774029E-18
5.490000E+03	1.173282E-16	2.792831E-18
5.500000E+03	1.180995E-16	2.811105E-18
5.510000E+03	1.188393E-16	2.828647E-18
5.520000E+03	1.195387E-16	2.845249E-18
5.530000E+03	1.201729E-16	2.860316E-18
5.540000E+03	1.207650E-16	2.874406E-18
5.550000E+03	1.212910E-16	2.886942E-18
5.560000E+03	1.217427E-16	2.897730E-18
5.570000E+03	1.220966E-16	2.906213E-18
5.580000E+03	1.223778E-16	2.912989E-18
5.590000E+03	1.225644E-16	2.917531E-18
5.600000E+03	1.226344E-16	2.919323E-18
5.610000E+03	1.226161E-16	2.919032E-18
5.620000E+03	1.224738E-16	2.915811E-18
5.630000E+03	1.222379E-16	2.910380E-18
5.640000E+03	1.218750E-16	2.901948E-18
5.650000E+03	1.214179E-16	2.891293E-18
5.660000E+03	1.208367E-16	2.877701E-18
5.670000E+03	1.201508E-16	2.861636E-18
5.680000E+03	1.193650E-16	2.843209E-18
5.690000E+03	1.185013E-16	2.822943E-18
5.700000E+03	1.175360E-16	2.800272E-18
5.710000E+03	1.164934E-16	2.775776E-18
5.720000E+03	1.153835E-16	2.749690E-18
5.730000E+03	1.142172E-16	2.722272E-18
5.740000E+03	1.130057E-16	2.693792E-18
5.750000E+03	1.117612E-16	2.664536E-18
5.760000E+03	1.104960E-16	2.634795E-18
5.770000E+03	1.092222E-16	2.604862E-18
5.780000E+03	1.079521E-16	2.575026E-18
5.790000E+03	1.066975E-16	2.545568E-18
5.800000E+03	1.054696E-16	2.516755E-18
5.810000E+03	1.042788E-16	2.488838E-18
5.820000E+03	1.031213E-16	2.461721E-18
5.830000E+03	1.020329E-16	2.436264E-18
5.840000E+03	1.010075E-16	2.412318E-18
5.850000E+03	1.000515E-16	2.390036E-18
5.860000E+03	9.915682E-17	2.369231E-18
5.870000E+03	9.835380E-17	2.350624E-18
5.880000E+03	9.761907E-17	2.333659E-18
5.890000E+03	9.697988E-17	2.318988E-18
5.900000E+03	9.641091E-17	2.306008E-18
5.910000E+03	9.593672E-17	2.295307E-18
5.920000E+03	9.553001E-17	2.286233E-18
5.930000E+03	9.521298E-17	2.279320E-18
5.940000E+03	9.495656E-17	2.273872E-18
5.950000E+03	9.476848E-17	2.270077E-18
5.960000E+03	9.465556E-17	2.268100E-18
5.970000E+03	9.458660E-17	2.267193E-18
5.980000E+03	9.456726E-17	2.267495E-18
5.990000E+03	9.459028E-17	2.268833E-18
6.000000E+03	9.466056E-17	2.271324E-18
6.010000E+03	9.474552E-17	2.274189E-18
6.020000E+03	9.484989E-17	2.277542E-18
6.030000E+03	9.496607E-17	2.281201E-18
6.040000E+03	9.508674E-17	2.284991E-18
6.050000E+03	9.520494E-17	2.288744E-18
6.060000E+03	9.531422E-17	2.292305E-18
6.070000E+03	9.540869E-17	2.295534E-18
6.080000E+03	9.548318E-17	2.298305E-18
6.090000E+03	9.553323E-17	2.300510E-18
6.100000E+03	9.555513E-17	2.302060E-18
6.110000E+03	9.554597E-17	2.302884E-18
6.120000E+03	9.550361E-17	2.302929E-18
6.130000E+03	9.542667E-17	2.302161E-18
6.140000E+03	9.530189E-17	2.300258E-18
6.150000E+03	9.515433E-17	2.297825E-18
6.160000E+03	9.497196E-17	2.294569E-18
6.170000E+03	9.475579E-17	2.290514E-18
6.180000E+03	9.449482E-17	2.285393E-18
6.190000E+03	9.421575E-17	2.279849E-18
6.200000E+03	9.390812E-17	2.273629E-18
6.210000E+03	9.356190E-17	2.266489E-18
6.220000E+03	9.320409E-17	2.259081E-18
6.230000E+03	9.281254E-17	2.250867E-18
6.240000E+03	9.241415E-17	2.242499E-18
6.250000E+03	9.198688E-17	2.233441E-18
6.260000E+03	9.155724E-17	2.224335E-18
6.270000E+03	9.110313E-17	2.214645E-18
6.280000E+03	9.065047E-17	2.204998E-18
6.290000E+03	9.017696E-17	2.194851E-18
6.300000E+03	8.970786E-17	2.184817E-18
6.310000E+03	8.922066E-17	2.174349E-18
6.320000E+03	8.872825E-17	2.163758E-18
6.330000E+03	8.824301E-17	2.153346E-18
6.340000E+03	8.774228E-17	2.142559E-18
6.350000E+03	8.723819E-17	2.131692E-18
6.360000E+03	8.673110E-17	2.120754E-18
6.370000E+03	8.623262E-17	2.110026E-18
6.380000E+03	8.572013E-17	2.098956E-18
6.390000E+03	8.520516E-17	2.087825E-18
6.400000E+03	8.468772E-17	2.076631E-18
6.410000E+03	8.416779E-17	2.065375E-18
6.420000E+03	8.364527E-17	2.054051E-18
6.430000E+03	8.311990E-17	2.042655E-18
6.440000E+03	8.260228E-17	2.031445E-18
6.450000E+03	8.207001E-17	2.019870E-18
6.460000E+03	8.153340E-17	2.008182E-18
6.470000E+03	8.099150E-17	1.996358E-18
6.480000E+03	8.044314E-17	1.984367E-18
6.490000E+03	7.988684E-17	1.972172E-18
6.500000E+03	7.932079E-17	1.959728E-18
6.510000E+03	7.874279E-17	1.946979E-18
6.520000E+03	7.814002E-17	1.933606E-18
6.530000E+03	7.753025E-17	1.920048E-18
6.540000E+03	7.689982E-17	1.905965E-18
6.550000E+03	7.624511E-17	1.891266E-18
6.560000E+03	7.556220E-17	1.875850E-18
6.570000E+03	7.484697E-17	1.859615E-18
6.580000E+03	7.408531E-17	1.842205E-18
6.590000E+03	7.329259E-17	1.824001E-18
6.600000E+03	7.245464E-17	1.804647E-18
6.610000E+03	7.156740E-17	1.784038E-18
6.620000E+03	7.061779E-17	1.761845E-18
6.630000E+03	6.962139E-17	1.738451E-18
6.640000E+03	6.856613E-17	1.713553E-18
6.650000E+03	6.744125E-17	1.686876E-18
6.660000E+03	6.626381E-17	1.658842E-18
6.670000E+03	6.502480E-17	1.629223E-18
6.680000E+03	6.371691E-17	1.597829E-18
6.690000E+03	6.235944E-17	1.565140E-18
6.700000E+03	6.093906E-17	1.530818E-18
6.710000E+03	5.947657E-17	1.495381E-18
6.720000E+03	5.796917E-17	1.458755E-18
6.730000E+03	5.641579E-17	1.420910E-18
6.740000E+03	5.483878E-17	1.382405E-18
6.750000E+03	5.323119E-17	1.343063E-18
6.760000E+03	5.160876E-17	1.303279E-18
6.770000E+03	4.998664E-17	1.263434E-18
6.780000E+03	4.835996E-17	1.223405E-18
6.790000E+03	4.675022E-17	1.183735E-18
6.800000E+03	4.515301E-17	1.144313E-18
6.810000E+03	4.358830E-17	1.105646E-18
6.820000E+03	4.205153E-17	1.067621E-18
6.830000E+03	4.055525E-17	1.030556E-18
6.840000E+03	3.911048E-17	9.947365E-19
6.850000E+03	3.771173E-17	9.600240E-19
6.860000E+03	3.636864E-17	9.266679E-19
6.870000E+03	3.508475E-17	8.947614E-19
6.880000E+03	3.386731E-17	8.644939E-19
6.890000E+03	3.270920E-17	8.356876E-19
6.900000E+03	3.161649E-17	8.085014E-19
6.910000E+03	3.058999E-17	7.829608E-19
6.920000E+03	2.962999E-17	7.590774E-19
6.930000E+03	2.874017E-17	7.369499E-19
6.940000E+03	2.791224E-17	7.163704E-19
6.950000E+03	2.714931E-17	6.974231E-19
6.960000E+03	2.645035E-17	6.800856E-19
6.970000E+03	2.581409E-17	6.643300E-19
6.980000E+03	2.523918E-17	6.501255E-19
6.990000E+03	2.472422E-17	6.374402E-19
7.000000E+03	2.426772E-17	6.262399E-19
7.010000E+03	2.386825E-17	6.164918E-19
7.020000E+03	2.352440E-17	6.081633E-19
7.030000E+03	2.323483E-17	6.012236E-19
7.040000E+03	2.299827E-17	5.956436E-19
7.050000E+03	2.281356E-17	5.913967E-19
7.060000E+03	2.267965E-17	5.884595E-19
7.070000E+03	2.259558E-17	5.868105E-19
7.080000E+03	2.256053E-17	5.864319E-19
7.090000E+03	2.257378E-17	5.873086E-19
7.100000E+03	2.263474E-17	5.894280E-19
7.110000E+03	2.273983E-17	5.927008E-19
7.120000E+03	2.289473E-17	5.972780E-19
7.130000E+03	2.309606E-17	6.030750E-19
7.140000E+03	2.334357E-17	6.100880E-19
7.150000E+03	2.363704E-17	6.183150E-19
7.160000E+03	2.397304E-17	6.276691E-19
7.170000E+03	2.435776E-17	6.383158E-19
7.180000E+03	2.478784E-17	6.501700E-19
7.190000E+03	2.526302E-17	6.632281E-19
7.200000E+03	2.577950E-17	6.773936E-19
7.210000E+03	2.634373E-17	6.928387E-19
7.220000E+03	2.695173E-17	7.094622E-19
7.230000E+03	2.759912E-17	7.271514E-19
7.240000E+03	2.829229E-17	7.460779E-19
7.250000E+03	2.902264E-17	7.660176E-19
7.260000E+03	2.979650E-17	7.871403E-19
7.270000E+03	3.060847E-17	8.093061E-19
7.280000E+03	3.145240E-17	8.323552E-19
7.290000E+03	3.233448E-17	8.564532E-19
7.300000E+03	3.324359E-17	8.813081E-19
7.310000E+03	3.418575E-17	9.070813E-19
7.320000E+03	3.514875E-17	9.334509E-19
7.330000E+03	3.613848E-17	9.605746E-19
7.340000E+03	3.714160E-17	9.880992E-19
7.350000E+03	3.815882E-17	1.016045E-18
7.360000E+03	3.919116E-17	1.044439E-18
7.370000E+03	4.022373E-17	1.072886E-18
7.380000E+03	4.126256E-17	1.101546E-18
7.390000E+03	4.229185E-17	1.129997E-18
7.400000E+03	4.331213E-17	1.158254E-18
7.410000E+03	4.431847E-17	1.186182E-18
7.420000E+03	4.531205E-17	1.213813E-18
7.430000E+03	4.627587E-17	1.240689E-18
7.440000E+03	4.721117E-17	1.266842E-18
7.450000E+03	4.811986E-17	1.292321E-18
7.460000E+03	4.898469E-17	1.316661E-18
7.470000E+03	4.980794E-17	1.339919E-18
7.480000E+03	5.058584E-17	1.361991E-18
7.490000E+03	5.131496E-17	1.382781E-18
7.500000E+03	5.199232E-17	1.402206E-18
7.510000E+03	5.261532E-17	1.420191E-18
7.520000E+03	5.318908E-17	1.436872E-18
7.530000E+03	5.369758E-17	1.451811E-18
7.540000E+03	5.414680E-17	1.465166E-18
7.550000E+03	5.453609E-17	1.476916E-18
7.560000E+03	5.486522E-17	1.487049E-18
7.570000E+03	5.513448E-17	1.495570E-18
7.580000E+03	5.534459E-17	1.502494E-18
7.590000E+03	5.549669E-17	1.507848E-18
7.600000E+03	5.559228E-17	1.511669E-18
7.610000E+03	5.562567E-17	1.513799E-18
7.620000E+03	5.561415E-17	1.514703E-18
7.630000E+03	5.555263E-17	1.514241E-18
7.640000E+03	5.544371E-17	1.512480E-18
7.650000E+03	5.529025E-17	1.509495E-18
7.660000E+03	5.509516E-17	1.505362E-18
7.670000E+03	5.485396E-17	1.499957E-18
7.680000E+03	5.458471E-17	1.493770E-18
7.690000E+03	5.428291E-17	1.486677E-18
7.700000E+03	5.395152E-17	1.478757E-18
7.710000E+03	5.358607E-17	1.469885E-18
7.720000E+03	5.320400E-17	1.460537E-18
7.730000E+03	5.280050E-17	1.450581E-18
7.740000E+03	5.237074E-17	1.439883E-18
7.750000E+03	5.193126E-17	1.428896E-18
7.760000E+03	5.147674E-17	1.417472E-18
