#wls	flux	fluxerr
1.565435E+03	2.150214E-18	0.000000E+00
1.604571E+03	2.256585E-18	0.000000E+00
1.643707E+03	2.355368E-18	0.000000E+00
1.682843E+03	2.444946E-18	0.000000E+00
1.721979E+03	2.523305E-18	0.000000E+00
1.761115E+03	2.587094E-18	0.000000E+00
1.800250E+03	2.629817E-18	0.000000E+00
1.839386E+03	2.644933E-18	0.000000E+00
1.878522E+03	2.625008E-18	0.000000E+00
1.917658E+03	2.564414E-18	0.000000E+00
1.956794E+03	2.462901E-18	0.000000E+00
1.995930E+03	2.330916E-18	0.000000E+00
2.035066E+03	2.192542E-18	0.000000E+00
2.074202E+03	2.083200E-18	0.000000E+00
2.113338E+03	2.040789E-18	0.000000E+00
2.152473E+03	2.093565E-18	0.000000E+00
2.191609E+03	2.254265E-18	0.000000E+00
2.230745E+03	2.519272E-18	0.000000E+00
2.269881E+03	2.871842E-18	0.000000E+00
2.309017E+03	3.288548E-18	0.000000E+00
2.348153E+03	3.746005E-18	0.000000E+00
2.387289E+03	4.225418E-18	0.000000E+00
2.426425E+03	4.714708E-18	0.000000E+00
2.465560E+03	5.206806E-18	0.000000E+00
2.504696E+03	5.699088E-18	0.000000E+00
2.543832E+03	6.190897E-18	0.000000E+00
2.582968E+03	6.683243E-18	0.000000E+00
2.622104E+03	7.177397E-18	0.000000E+00
2.661240E+03	7.674875E-18	0.000000E+00
2.700376E+03	8.177200E-18	0.000000E+00
2.739512E+03	8.685518E-18	0.000000E+00
2.778647E+03	9.200780E-18	0.000000E+00
2.817783E+03	9.724237E-18	0.000000E+00
2.856919E+03	1.025644E-17	0.000000E+00
2.896055E+03	1.079903E-17	0.000000E+00
2.935191E+03	1.135273E-17	0.000000E+00
2.944975E+03	1.149333E-17	0.000000E+00
2.954759E+03	1.163456E-17	0.000000E+00
2.964543E+03	1.177640E-17	0.000000E+00
2.974327E+03	1.191949E-17	0.000000E+00
2.984111E+03	1.206404E-17	0.000000E+00
2.993895E+03	1.221051E-17	0.000000E+00
3.003679E+03	1.235905E-17	0.000000E+00
3.013463E+03	1.250924E-17	0.000000E+00
3.023247E+03	1.266096E-17	0.000000E+00
3.033031E+03	1.281529E-17	0.000000E+00
3.042815E+03	1.296997E-17	0.000000E+00
3.052599E+03	1.312835E-17	0.000000E+00
3.062383E+03	1.328983E-17	0.000000E+00
3.072167E+03	1.345483E-17	0.000000E+00
3.081951E+03	1.362229E-17	0.000000E+00
3.091735E+03	1.379214E-17	0.000000E+00
3.101518E+03	1.396440E-17	0.000000E+00
3.111302E+03	1.413879E-17	0.000000E+00
3.121086E+03	1.431457E-17	0.000000E+00
3.130870E+03	1.449229E-17	0.000000E+00
3.140654E+03	1.467124E-17	0.000000E+00
3.150438E+03	1.485147E-17	0.000000E+00
3.160222E+03	1.503255E-17	0.000000E+00
3.170006E+03	1.521459E-17	0.000000E+00
3.179790E+03	1.539742E-17	0.000000E+00
3.189574E+03	1.558091E-17	0.000000E+00
3.199358E+03	1.576467E-17	0.000000E+00
3.209142E+03	1.594885E-17	0.000000E+00
3.218926E+03	1.613333E-17	0.000000E+00
3.228710E+03	1.631776E-17	0.000000E+00
3.238494E+03	1.650233E-17	0.000000E+00
3.248278E+03	1.668667E-17	0.000000E+00
3.258062E+03	1.687100E-17	0.000000E+00
3.267846E+03	1.705498E-17	0.000000E+00
3.277630E+03	1.723857E-17	0.000000E+00
3.287414E+03	1.742172E-17	0.000000E+00
3.297198E+03	1.760438E-17	0.000000E+00
3.306982E+03	1.778653E-17	0.000000E+00
3.316766E+03	1.796788E-17	0.000000E+00
3.326550E+03	1.814868E-17	0.000000E+00
3.336334E+03	1.832837E-17	0.000000E+00
3.346118E+03	1.850748E-17	0.000000E+00
3.355902E+03	1.868549E-17	0.000000E+00
3.365686E+03	1.886240E-17	0.000000E+00
3.375470E+03	1.903821E-17	0.000000E+00
3.385254E+03	1.921267E-17	0.000000E+00
3.395038E+03	1.938607E-17	0.000000E+00
3.404822E+03	1.955815E-17	0.000000E+00
3.414606E+03	1.972869E-17	0.000000E+00
3.424389E+03	1.989771E-17	0.000000E+00
3.434173E+03	2.006500E-17	0.000000E+00
3.443957E+03	2.023083E-17	0.000000E+00
3.453741E+03	2.039447E-17	0.000000E+00
3.463525E+03	2.055624E-17	0.000000E+00
3.473309E+03	2.071592E-17	0.000000E+00
3.483093E+03	2.087354E-17	0.000000E+00
3.492877E+03	2.102867E-17	0.000000E+00
3.502661E+03	2.118110E-17	0.000000E+00
3.512445E+03	2.133114E-17	0.000000E+00
3.522229E+03	2.147808E-17	0.000000E+00
3.532013E+03	2.162227E-17	0.000000E+00
3.541797E+03	2.176349E-17	0.000000E+00
3.551581E+03	2.190132E-17	0.000000E+00
3.561365E+03	2.203560E-17	0.000000E+00
3.571149E+03	2.216636E-17	0.000000E+00
3.580933E+03	2.229324E-17	0.000000E+00
3.590717E+03	2.241650E-17	0.000000E+00
3.600501E+03	2.253554E-17	0.000000E+00
3.610285E+03	2.265038E-17	0.000000E+00
3.620069E+03	2.276091E-17	0.000000E+00
3.629853E+03	2.286717E-17	0.000000E+00
3.639637E+03	2.296880E-17	0.000000E+00
3.649421E+03	2.306584E-17	0.000000E+00
3.659205E+03	2.315816E-17	0.000000E+00
3.668989E+03	2.324583E-17	0.000000E+00
3.678773E+03	2.332870E-17	0.000000E+00
3.688557E+03	2.340684E-17	0.000000E+00
3.698341E+03	2.348011E-17	0.000000E+00
3.708125E+03	2.354836E-17	0.000000E+00
3.717909E+03	2.361209E-17	0.000000E+00
3.727693E+03	2.367074E-17	0.000000E+00
3.737477E+03	2.372457E-17	0.000000E+00
3.747260E+03	2.377391E-17	0.000000E+00
3.757044E+03	2.381835E-17	0.000000E+00
3.766828E+03	2.385799E-17	0.000000E+00
3.776612E+03	2.389309E-17	0.000000E+00
3.786396E+03	2.392376E-17	0.000000E+00
3.796180E+03	2.395001E-17	0.000000E+00
3.805964E+03	2.397173E-17	0.000000E+00
3.815748E+03	2.398916E-17	0.000000E+00
3.825532E+03	2.400238E-17	0.000000E+00
3.835316E+03	2.401144E-17	0.000000E+00
3.845100E+03	2.401638E-17	0.000000E+00
3.854884E+03	2.401728E-17	0.000000E+00
3.864668E+03	2.401438E-17	0.000000E+00
3.874452E+03	2.400775E-17	0.000000E+00
3.884236E+03	2.399719E-17	0.000000E+00
3.894020E+03	2.398318E-17	0.000000E+00
3.903804E+03	2.396557E-17	0.000000E+00
3.913588E+03	2.394458E-17	0.000000E+00
3.923372E+03	2.392028E-17	0.000000E+00
3.933156E+03	2.389244E-17	0.000000E+00
3.942940E+03	2.386157E-17	0.000000E+00
3.952724E+03	2.382746E-17	0.000000E+00
3.962508E+03	2.379036E-17	0.000000E+00
3.972292E+03	2.375029E-17	0.000000E+00
3.982076E+03	2.370727E-17	0.000000E+00
3.991860E+03	2.366134E-17	0.000000E+00
4.001644E+03	2.361272E-17	0.000000E+00
4.011428E+03	2.356123E-17	0.000000E+00
4.021212E+03	2.350689E-17	0.000000E+00
4.030996E+03	2.345012E-17	0.000000E+00
4.040780E+03	2.339054E-17	0.000000E+00
4.050564E+03	2.332837E-17	0.000000E+00
4.060348E+03	2.326362E-17	0.000000E+00
4.070131E+03	2.319631E-17	0.000000E+00
4.079915E+03	2.312647E-17	0.000000E+00
4.089699E+03	2.305408E-17	0.000000E+00
4.099483E+03	2.297919E-17	0.000000E+00
4.109267E+03	2.290181E-17	0.000000E+00
4.119051E+03	2.282194E-17	0.000000E+00
4.128835E+03	2.273960E-17	0.000000E+00
4.138619E+03	2.265462E-17	0.000000E+00
4.148403E+03	2.256699E-17	0.000000E+00
4.158187E+03	2.247696E-17	0.000000E+00
4.167971E+03	2.238450E-17	0.000000E+00
4.177755E+03	2.228927E-17	0.000000E+00
4.187539E+03	2.219146E-17	0.000000E+00
4.197323E+03	2.209113E-17	0.000000E+00
4.207107E+03	2.198825E-17	0.000000E+00
4.216891E+03	2.188286E-17	0.000000E+00
4.226675E+03	2.177478E-17	0.000000E+00
4.236459E+03	2.166445E-17	0.000000E+00
4.246243E+03	2.155146E-17	0.000000E+00
4.256027E+03	2.143624E-17	0.000000E+00
4.265811E+03	2.131882E-17	0.000000E+00
4.275595E+03	2.119939E-17	0.000000E+00
4.285379E+03	2.107799E-17	0.000000E+00
4.295163E+03	2.095482E-17	0.000000E+00
4.304947E+03	2.082993E-17	0.000000E+00
4.314731E+03	2.070368E-17	0.000000E+00
4.324515E+03	2.057611E-17	0.000000E+00
4.334299E+03	2.044726E-17	0.000000E+00
4.344083E+03	2.031751E-17	0.000000E+00
4.353867E+03	2.018688E-17	0.000000E+00
4.363651E+03	2.005560E-17	0.000000E+00
4.373435E+03	1.992404E-17	0.000000E+00
4.383219E+03	1.979208E-17	0.000000E+00
4.393003E+03	1.966007E-17	0.000000E+00
4.402786E+03	1.952824E-17	0.000000E+00
4.412570E+03	1.939664E-17	0.000000E+00
4.422354E+03	1.926546E-17	0.000000E+00
4.432138E+03	1.913493E-17	0.000000E+00
4.441922E+03	1.900524E-17	0.000000E+00
4.451706E+03	1.887664E-17	0.000000E+00
4.461490E+03	1.874914E-17	0.000000E+00
4.471274E+03	1.862280E-17	0.000000E+00
4.481058E+03	1.849820E-17	0.000000E+00
4.490842E+03	1.837519E-17	0.000000E+00
4.500626E+03	1.825384E-17	0.000000E+00
4.510410E+03	1.813455E-17	0.000000E+00
4.520194E+03	1.801755E-17	0.000000E+00
4.529978E+03	1.790257E-17	0.000000E+00
4.539762E+03	1.779034E-17	0.000000E+00
4.549546E+03	1.768044E-17	0.000000E+00
4.559330E+03	1.757346E-17	0.000000E+00
4.569114E+03	1.746946E-17	0.000000E+00
4.578898E+03	1.736854E-17	0.000000E+00
4.588682E+03	1.727079E-17	0.000000E+00
4.598466E+03	1.717628E-17	0.000000E+00
4.608250E+03	1.708550E-17	0.000000E+00
4.618034E+03	1.699834E-17	0.000000E+00
4.627818E+03	1.691494E-17	0.000000E+00
4.637602E+03	1.683556E-17	0.000000E+00
4.647386E+03	1.675999E-17	0.000000E+00
4.657170E+03	1.668885E-17	0.000000E+00
4.666954E+03	1.662174E-17	0.000000E+00
4.676738E+03	1.655911E-17	0.000000E+00
4.686522E+03	1.650107E-17	0.000000E+00
4.696306E+03	1.644734E-17	0.000000E+00
4.706090E+03	1.639813E-17	0.000000E+00
4.715874E+03	1.635356E-17	0.000000E+00
4.725657E+03	1.631322E-17	0.000000E+00
4.735441E+03	1.627715E-17	0.000000E+00
4.745225E+03	1.624520E-17	0.000000E+00
4.755009E+03	1.621705E-17	0.000000E+00
4.764793E+03	1.619254E-17	0.000000E+00
4.774577E+03	1.617168E-17	0.000000E+00
4.784361E+03	1.615415E-17	0.000000E+00
4.794145E+03	1.613997E-17	0.000000E+00
4.803929E+03	1.612866E-17	0.000000E+00
4.813713E+03	1.612026E-17	0.000000E+00
4.823497E+03	1.611465E-17	0.000000E+00
4.833281E+03	1.611153E-17	0.000000E+00
4.843065E+03	1.611096E-17	0.000000E+00
4.852849E+03	1.611268E-17	0.000000E+00
4.862633E+03	1.611676E-17	0.000000E+00
4.872417E+03	1.612294E-17	0.000000E+00
4.882201E+03	1.613115E-17	0.000000E+00
4.891985E+03	1.614113E-17	0.000000E+00
4.901769E+03	1.615316E-17	0.000000E+00
4.911553E+03	1.616685E-17	0.000000E+00
4.921337E+03	1.618212E-17	0.000000E+00
4.931121E+03	1.619910E-17	0.000000E+00
4.940905E+03	1.621758E-17	0.000000E+00
4.950689E+03	1.623752E-17	0.000000E+00
4.960473E+03	1.625886E-17	0.000000E+00
4.970257E+03	1.628159E-17	0.000000E+00
4.980041E+03	1.630551E-17	0.000000E+00
4.989825E+03	1.633059E-17	0.000000E+00
4.999609E+03	1.635697E-17	0.000000E+00
5.009393E+03	1.638429E-17	0.000000E+00
5.019177E+03	1.641289E-17	0.000000E+00
5.028961E+03	1.644224E-17	0.000000E+00
5.038745E+03	1.647266E-17	0.000000E+00
5.048528E+03	1.650397E-17	0.000000E+00
5.058312E+03	1.653618E-17	0.000000E+00
5.068096E+03	1.656927E-17	0.000000E+00
5.077880E+03	1.660308E-17	0.000000E+00
5.087664E+03	1.663760E-17	0.000000E+00
5.097448E+03	1.667266E-17	0.000000E+00
5.107232E+03	1.670861E-17	0.000000E+00
5.117016E+03	1.674493E-17	0.000000E+00
5.126800E+03	1.678180E-17	0.000000E+00
5.136584E+03	1.681923E-17	0.000000E+00
5.146368E+03	1.685721E-17	0.000000E+00
5.156152E+03	1.689543E-17	0.000000E+00
5.165936E+03	1.693405E-17	0.000000E+00
5.175720E+03	1.697291E-17	0.000000E+00
5.185504E+03	1.701203E-17	0.000000E+00
5.195288E+03	1.705123E-17	0.000000E+00
5.205072E+03	1.709069E-17	0.000000E+00
5.214856E+03	1.713010E-17	0.000000E+00
5.224640E+03	1.716944E-17	0.000000E+00
5.234424E+03	1.720856E-17	0.000000E+00
5.244208E+03	1.724765E-17	0.000000E+00
5.253992E+03	1.728619E-17	0.000000E+00
5.263776E+03	1.732436E-17	0.000000E+00
5.273560E+03	1.736200E-17	0.000000E+00
5.283344E+03	1.739894E-17	0.000000E+00
5.293128E+03	1.743466E-17	0.000000E+00
5.302912E+03	1.746900E-17	0.000000E+00
5.312696E+03	1.750178E-17	0.000000E+00
5.322480E+03	1.753213E-17	0.000000E+00
5.332264E+03	1.755986E-17	0.000000E+00
5.342048E+03	1.758427E-17	0.000000E+00
5.351832E+03	1.760500E-17	0.000000E+00
5.361616E+03	1.762257E-17	0.000000E+00
5.371399E+03	1.763680E-17	0.000000E+00
5.381183E+03	1.764821E-17	0.000000E+00
5.390967E+03	1.765697E-17	0.000000E+00
5.400751E+03	1.766380E-17	0.000000E+00
5.410535E+03	1.766850E-17	0.000000E+00
5.420319E+03	1.767143E-17	0.000000E+00
5.430103E+03	1.767259E-17	0.000000E+00
5.439887E+03	1.767252E-17	0.000000E+00
5.449671E+03	1.767103E-17	0.000000E+00
5.459455E+03	1.766829E-17	0.000000E+00
5.469239E+03	1.766431E-17	0.000000E+00
5.479023E+03	1.765945E-17	0.000000E+00
5.488807E+03	1.765351E-17	0.000000E+00
5.498591E+03	1.764669E-17	0.000000E+00
5.508375E+03	1.763915E-17	0.000000E+00
5.518159E+03	1.763090E-17	0.000000E+00
5.527943E+03	1.762211E-17	0.000000E+00
5.537727E+03	1.761259E-17	0.000000E+00
5.547511E+03	1.760254E-17	0.000000E+00
5.557295E+03	1.759212E-17	0.000000E+00
5.567079E+03	1.758133E-17	0.000000E+00
5.576863E+03	1.757018E-17	0.000000E+00
5.586647E+03	1.755865E-17	0.000000E+00
5.596431E+03	1.754711E-17	0.000000E+00
5.606215E+03	1.753519E-17	0.000000E+00
5.615999E+03	1.752325E-17	0.000000E+00
5.625783E+03	1.751129E-17	0.000000E+00
5.635567E+03	1.749912E-17	0.000000E+00
5.645351E+03	1.748692E-17	0.000000E+00
5.655135E+03	1.747487E-17	0.000000E+00
5.664919E+03	1.746279E-17	0.000000E+00
5.674703E+03	1.745066E-17	0.000000E+00
5.684487E+03	1.743886E-17	0.000000E+00
5.694271E+03	1.742701E-17	0.000000E+00
5.704054E+03	1.741528E-17	0.000000E+00
5.713838E+03	1.740368E-17	0.000000E+00
5.723622E+03	1.739220E-17	0.000000E+00
5.733406E+03	1.738102E-17	0.000000E+00
5.743190E+03	1.736975E-17	0.000000E+00
5.752974E+03	1.735878E-17	0.000000E+00
5.762758E+03	1.734789E-17	0.000000E+00
5.772542E+03	1.733710E-17	0.000000E+00
5.782326E+03	1.732638E-17	0.000000E+00
5.792110E+03	1.731574E-17	0.000000E+00
5.801894E+03	1.730535E-17	0.000000E+00
5.811678E+03	1.729483E-17	0.000000E+00
5.821462E+03	1.728417E-17	0.000000E+00
5.831246E+03	1.727355E-17	0.000000E+00
5.841030E+03	1.726296E-17	0.000000E+00
5.850814E+03	1.725200E-17	0.000000E+00
5.860598E+03	1.724107E-17	0.000000E+00
5.870382E+03	1.722955E-17	0.000000E+00
5.880166E+03	1.721804E-17	0.000000E+00
5.889950E+03	1.720593E-17	0.000000E+00
5.899734E+03	1.719320E-17	0.000000E+00
5.909518E+03	1.718005E-17	0.000000E+00
5.919302E+03	1.716627E-17	0.000000E+00
5.929086E+03	1.715186E-17	0.000000E+00
5.938870E+03	1.713639E-17	0.000000E+00
5.948654E+03	1.712026E-17	0.000000E+00
5.958438E+03	1.710286E-17	0.000000E+00
5.968222E+03	1.708459E-17	0.000000E+00
5.978006E+03	1.706524E-17	0.000000E+00
5.987790E+03	1.704459E-17	0.000000E+00
5.997574E+03	1.702264E-17	0.000000E+00
6.007358E+03	1.699960E-17	0.000000E+00
6.017142E+03	1.697526E-17	0.000000E+00
6.026925E+03	1.694963E-17	0.000000E+00
6.036709E+03	1.692313E-17	0.000000E+00
6.046493E+03	1.689536E-17	0.000000E+00
6.056277E+03	1.686653E-17	0.000000E+00
6.066061E+03	1.683690E-17	0.000000E+00
6.075845E+03	1.680669E-17	0.000000E+00
6.085629E+03	1.677572E-17	0.000000E+00
6.095413E+03	1.674404E-17	0.000000E+00
6.105197E+03	1.671191E-17	0.000000E+00
6.114981E+03	1.667915E-17	0.000000E+00
6.124765E+03	1.664605E-17	0.000000E+00
6.134549E+03	1.661269E-17	0.000000E+00
6.144333E+03	1.657935E-17	0.000000E+00
6.154117E+03	1.654613E-17	0.000000E+00
6.163901E+03	1.651314E-17	0.000000E+00
6.173685E+03	1.648072E-17	0.000000E+00
6.183469E+03	1.644923E-17	0.000000E+00
6.193253E+03	1.641860E-17	0.000000E+00
6.203037E+03	1.638922E-17	0.000000E+00
6.212821E+03	1.636153E-17	0.000000E+00
6.222605E+03	1.633550E-17	0.000000E+00
6.232389E+03	1.631184E-17	0.000000E+00
6.242173E+03	1.629083E-17	0.000000E+00
6.251957E+03	1.627278E-17	0.000000E+00
6.261741E+03	1.625802E-17	0.000000E+00
6.271525E+03	1.624740E-17	0.000000E+00
6.281309E+03	1.624105E-17	0.000000E+00
6.291093E+03	1.623983E-17	0.000000E+00
6.300877E+03	1.624398E-17	0.000000E+00
6.310661E+03	1.625357E-17	0.000000E+00
6.320445E+03	1.626866E-17	0.000000E+00
6.330229E+03	1.628893E-17	0.000000E+00
6.340013E+03	1.631426E-17	0.000000E+00
6.349796E+03	1.634379E-17	0.000000E+00
6.359580E+03	1.637769E-17	0.000000E+00
6.369364E+03	1.641563E-17	0.000000E+00
6.379148E+03	1.645711E-17	0.000000E+00
6.388932E+03	1.650211E-17	0.000000E+00
6.398716E+03	1.655044E-17	0.000000E+00
6.408500E+03	1.660190E-17	0.000000E+00
6.418284E+03	1.665631E-17	0.000000E+00
6.428068E+03	1.671381E-17	0.000000E+00
6.437852E+03	1.677399E-17	0.000000E+00
6.447636E+03	1.683676E-17	0.000000E+00
6.457420E+03	1.690228E-17	0.000000E+00
6.467204E+03	1.697047E-17	0.000000E+00
6.476988E+03	1.704100E-17	0.000000E+00
6.486772E+03	1.711409E-17	0.000000E+00
6.496556E+03	1.718940E-17	0.000000E+00
6.506340E+03	1.726748E-17	0.000000E+00
6.516124E+03	1.734772E-17	0.000000E+00
6.525908E+03	1.743010E-17	0.000000E+00
6.535692E+03	1.751490E-17	0.000000E+00
6.545476E+03	1.760212E-17	0.000000E+00
6.555260E+03	1.769145E-17	0.000000E+00
6.565044E+03	1.778290E-17	0.000000E+00
6.574828E+03	1.787678E-17	0.000000E+00
6.584612E+03	1.797279E-17	0.000000E+00
6.594396E+03	1.807128E-17	0.000000E+00
6.604180E+03	1.817161E-17	0.000000E+00
6.613964E+03	1.827446E-17	0.000000E+00
6.623748E+03	1.837921E-17	0.000000E+00
6.633532E+03	1.848653E-17	0.000000E+00
6.643316E+03	1.859581E-17	0.000000E+00
6.653100E+03	1.870740E-17	0.000000E+00
6.662884E+03	1.882134E-17	0.000000E+00
6.672668E+03	1.893733E-17	0.000000E+00
6.682451E+03	1.905575E-17	0.000000E+00
6.692235E+03	1.917629E-17	0.000000E+00
6.702019E+03	1.929935E-17	0.000000E+00
6.711803E+03	1.942425E-17	0.000000E+00
6.721587E+03	1.955176E-17	0.000000E+00
6.731371E+03	1.968156E-17	0.000000E+00
6.741155E+03	1.981371E-17	0.000000E+00
6.750939E+03	1.994785E-17	0.000000E+00
6.760723E+03	2.008481E-17	0.000000E+00
6.770507E+03	2.022347E-17	0.000000E+00
6.780291E+03	2.036505E-17	0.000000E+00
6.790075E+03	2.050881E-17	0.000000E+00
6.799859E+03	2.065480E-17	0.000000E+00
6.809643E+03	2.080347E-17	0.000000E+00
6.819427E+03	2.095447E-17	0.000000E+00
6.829211E+03	2.110784E-17	0.000000E+00
6.838995E+03	2.126363E-17	0.000000E+00
6.848779E+03	2.142190E-17	0.000000E+00
6.858563E+03	2.158268E-17	0.000000E+00
6.868347E+03	2.174561E-17	0.000000E+00
6.878131E+03	2.191158E-17	0.000000E+00
6.887915E+03	2.207936E-17	0.000000E+00
6.897699E+03	2.225029E-17	0.000000E+00
6.907483E+03	2.242311E-17	0.000000E+00
6.917267E+03	2.259874E-17	0.000000E+00
6.927051E+03	2.277679E-17	0.000000E+00
6.936835E+03	2.295729E-17	0.000000E+00
6.946619E+03	2.314077E-17	0.000000E+00
6.956403E+03	2.332634E-17	0.000000E+00
6.966187E+03	2.351450E-17	0.000000E+00
6.975971E+03	2.370483E-17	0.000000E+00
6.985755E+03	2.389784E-17	0.000000E+00
6.995539E+03	2.409358E-17	0.000000E+00
7.005322E+03	2.429159E-17	0.000000E+00
7.015106E+03	2.449244E-17	0.000000E+00
7.024890E+03	2.469514E-17	0.000000E+00
7.034674E+03	2.490075E-17	0.000000E+00
7.044458E+03	2.510877E-17	0.000000E+00
7.054242E+03	2.531875E-17	0.000000E+00
7.064026E+03	2.553123E-17	0.000000E+00
7.073810E+03	2.574627E-17	0.000000E+00
7.083594E+03	2.596332E-17	0.000000E+00
7.093378E+03	2.618244E-17	0.000000E+00
7.103162E+03	2.640362E-17	0.000000E+00
7.112946E+03	2.662694E-17	0.000000E+00
7.122730E+03	2.685235E-17	0.000000E+00
7.132514E+03	2.707881E-17	0.000000E+00
7.142298E+03	2.730740E-17	0.000000E+00
7.152082E+03	2.753761E-17	0.000000E+00
7.161866E+03	2.776881E-17	0.000000E+00
7.171650E+03	2.800161E-17	0.000000E+00
7.181434E+03	2.823484E-17	0.000000E+00
7.191218E+03	2.846843E-17	0.000000E+00
7.201002E+03	2.870241E-17	0.000000E+00
7.210786E+03	2.893607E-17	0.000000E+00
7.220570E+03	2.917002E-17	0.000000E+00
7.230354E+03	2.940232E-17	0.000000E+00
7.240138E+03	2.963418E-17	0.000000E+00
7.249922E+03	2.986426E-17	0.000000E+00
7.259706E+03	3.009310E-17	0.000000E+00
7.269490E+03	3.031996E-17	0.000000E+00
7.279274E+03	3.054477E-17	0.000000E+00
7.289058E+03	3.076810E-17	0.000000E+00
7.298842E+03	3.098915E-17	0.000000E+00
7.308626E+03	3.120989E-17	0.000000E+00
7.318410E+03	3.142886E-17	0.000000E+00
7.328193E+03	3.164737E-17	0.000000E+00
7.337977E+03	3.186470E-17	0.000000E+00
7.347761E+03	3.208285E-17	0.000000E+00
7.357545E+03	3.230112E-17	0.000000E+00
7.367329E+03	3.251945E-17	0.000000E+00
7.377113E+03	3.273858E-17	0.000000E+00
7.386897E+03	3.295846E-17	0.000000E+00
7.396681E+03	3.318054E-17	0.000000E+00
7.406465E+03	3.340337E-17	0.000000E+00
7.416249E+03	3.362773E-17	0.000000E+00
7.426033E+03	3.385434E-17	0.000000E+00
7.435817E+03	3.408249E-17	0.000000E+00
7.445601E+03	3.431294E-17	0.000000E+00
7.455385E+03	3.454497E-17	0.000000E+00
7.465169E+03	3.478014E-17	0.000000E+00
7.474953E+03	3.501696E-17	0.000000E+00
7.484737E+03	3.525699E-17	0.000000E+00
7.494521E+03	3.549869E-17	0.000000E+00
7.504305E+03	3.574373E-17	0.000000E+00
7.514089E+03	3.599047E-17	0.000000E+00
7.523873E+03	3.624064E-17	0.000000E+00
7.533657E+03	3.649343E-17	0.000000E+00
7.543441E+03	3.674889E-17	0.000000E+00
7.553225E+03	3.700702E-17	0.000000E+00
7.563009E+03	3.726793E-17	0.000000E+00
7.572793E+03	3.753162E-17	0.000000E+00
7.582577E+03	3.779722E-17	0.000000E+00
7.592361E+03	3.806658E-17	0.000000E+00
