#wls	flux	fluxerr
1.565435E+03	3.094144E-18	9.894615E-20
1.604571E+03	3.248982E-18	1.038099E-19
1.643707E+03	3.393103E-18	1.083208E-19
1.682843E+03	3.524167E-18	1.124048E-19
1.721979E+03	3.639254E-18	1.159694E-19
1.761115E+03	3.733504E-18	1.188612E-19
1.800250E+03	3.797505E-18	1.207824E-19
1.839386E+03	3.821756E-18	1.214337E-19
1.878522E+03	3.795433E-18	1.204750E-19
1.917658E+03	3.710296E-18	1.176501E-19
1.956794E+03	3.565862E-18	1.129495E-19
1.995930E+03	3.377140E-18	1.068546E-19
2.035066E+03	3.178946E-18	1.004706E-19
2.074202E+03	3.022643E-18	9.542065E-20
2.113338E+03	2.963353E-18	9.343843E-20
2.152473E+03	3.042351E-18	9.581316E-20
2.191609E+03	3.278494E-18	1.031218E-19
2.230745E+03	3.666908E-18	1.151921E-19
2.269881E+03	4.183599E-18	1.312520E-19
2.309017E+03	4.794773E-18	1.502251E-19
2.348153E+03	5.466586E-18	1.710390E-19
2.387289E+03	6.171795E-18	1.928325E-19
2.426425E+03	6.892881E-18	2.150524E-19
2.465560E+03	7.619600E-18	2.373751E-19
2.504696E+03	8.348179E-18	2.596802E-19
2.543832E+03	9.077716E-18	2.819369E-19
2.582968E+03	9.809758E-18	3.041906E-19
2.622104E+03	1.054624E-17	3.264983E-19
2.661240E+03	1.128947E-17	3.489282E-19
2.700376E+03	1.204178E-17	3.715486E-19
2.739512E+03	1.280495E-17	3.944102E-19
2.778647E+03	1.358051E-17	4.175551E-19
2.817783E+03	1.437042E-17	4.410392E-19
2.856919E+03	1.517561E-17	4.648857E-19
2.896055E+03	1.599869E-17	4.891682E-19
2.935191E+03	1.684083E-17	5.139167E-19
2.944975E+03	1.705503E-17	5.201968E-19
2.954759E+03	1.727033E-17	5.265027E-19
2.964543E+03	1.748672E-17	5.328337E-19
2.974327E+03	1.770515E-17	5.392192E-19
2.984111E+03	1.792591E-17	5.456678E-19
2.993895E+03	1.814976E-17	5.522019E-19
3.003679E+03	1.837684E-17	5.588262E-19
3.013463E+03	1.860659E-17	5.655230E-19
3.023247E+03	1.883880E-17	5.722859E-19
3.033031E+03	1.907509E-17	5.791643E-19
3.042815E+03	1.931211E-17	5.860558E-19
3.052599E+03	1.955487E-17	5.931122E-19
3.062383E+03	1.980243E-17	6.003053E-19
3.072167E+03	2.005549E-17	6.076552E-19
3.081951E+03	2.031242E-17	6.151127E-19
3.091735E+03	2.057316E-17	6.226758E-19
3.101518E+03	2.083772E-17	6.303444E-19
3.111302E+03	2.110572E-17	6.381069E-19
3.121086E+03	2.137602E-17	6.459284E-19
3.130870E+03	2.164950E-17	6.538352E-19
3.140654E+03	2.192504E-17	6.617936E-19
3.150438E+03	2.220276E-17	6.698068E-19
3.160222E+03	2.248202E-17	6.778559E-19
3.170006E+03	2.276297E-17	6.859445E-19
3.179790E+03	2.304538E-17	6.940657E-19
3.189574E+03	2.332905E-17	7.022137E-19
3.199358E+03	2.361340E-17	7.103707E-19
3.209142E+03	2.389866E-17	7.185434E-19
3.218926E+03	2.418466E-17	7.267268E-19
3.228710E+03	2.447087E-17	7.349046E-19
3.238494E+03	2.475756E-17	7.430854E-19
3.248278E+03	2.504422E-17	7.512531E-19
3.258062E+03	2.533116E-17	7.594171E-19
3.267846E+03	2.561787E-17	7.675626E-19
3.277630E+03	2.590428E-17	7.756867E-19
3.287414E+03	2.619033E-17	7.837880E-19
3.297198E+03	2.647597E-17	7.918648E-19
3.306982E+03	2.676115E-17	7.999154E-19
3.316766E+03	2.704543E-17	8.079269E-19
3.326550E+03	2.732919E-17	8.159107E-19
3.336334E+03	2.761160E-17	8.238417E-19
3.346118E+03	2.789347E-17	8.317443E-19
3.355902E+03	2.817398E-17	8.395939E-19
3.365686E+03	2.845315E-17	8.473912E-19
3.375470E+03	2.873101E-17	8.551368E-19
3.385254E+03	2.900716E-17	8.628191E-19
3.395038E+03	2.928200E-17	8.704501E-19
3.404822E+03	2.955523E-17	8.780206E-19
3.414606E+03	2.982643E-17	8.855185E-19
3.424389E+03	3.009568E-17	8.929460E-19
3.434173E+03	3.036264E-17	9.002928E-19
3.443957E+03	3.062773E-17	9.075721E-19
3.453741E+03	3.088987E-17	9.147515E-19
3.463525E+03	3.114950E-17	9.218441E-19
3.473309E+03	3.140630E-17	9.288408E-19
3.483093E+03	3.166032E-17	9.357430E-19
3.492877E+03	3.191091E-17	9.425316E-19
3.502661E+03	3.215774E-17	9.491970E-19
3.512445E+03	3.240129E-17	9.557535E-19
3.522229E+03	3.264049E-17	9.621699E-19
3.532013E+03	3.287582E-17	9.684607E-19
3.541797E+03	3.310701E-17	9.746174E-19
3.551581E+03	3.333338E-17	9.806209E-19
3.561365E+03	3.355466E-17	9.864632E-19
3.571149E+03	3.377097E-17	9.921480E-19
3.580933E+03	3.398166E-17	9.976567E-19
3.590717E+03	3.418721E-17	1.003003E-18
3.600501E+03	3.438662E-17	1.008159E-18
3.610285E+03	3.457999E-17	1.013128E-18
3.620069E+03	3.476709E-17	1.017902E-18
3.629853E+03	3.494804E-17	1.022486E-18
3.639637E+03	3.512217E-17	1.026861E-18
3.649421E+03	3.528965E-17	1.031032E-18
3.659205E+03	3.545021E-17	1.034992E-18
3.668989E+03	3.560399E-17	1.038744E-18
3.678773E+03	3.575070E-17	1.042281E-18
3.688557E+03	3.589048E-17	1.045607E-18
3.698341E+03	3.602309E-17	1.048717E-18
3.708125E+03	3.614829E-17	1.051602E-18
3.717909E+03	3.626688E-17	1.054288E-18
3.727693E+03	3.637791E-17	1.056746E-18
3.737477E+03	3.648185E-17	1.058991E-18
3.747260E+03	3.657915E-17	1.061037E-18
3.757044E+03	3.666919E-17	1.062866E-18
3.766828E+03	3.675209E-17	1.064481E-18
3.776612E+03	3.682830E-17	1.065896E-18
3.786396E+03	3.689790E-17	1.067115E-18
3.796180E+03	3.696097E-17	1.068139E-18
3.805964E+03	3.701726E-17	1.068962E-18
3.815748E+03	3.706720E-17	1.069597E-18
3.825532E+03	3.711087E-17	1.070046E-18
3.835316E+03	3.714832E-17	1.070312E-18
3.845100E+03	3.717966E-17	1.070398E-18
3.854884E+03	3.720493E-17	1.070306E-18
3.864668E+03	3.722454E-17	1.070047E-18
3.874452E+03	3.723857E-17	1.069624E-18
3.884236E+03	3.724672E-17	1.069030E-18
3.894020E+03	3.724974E-17	1.068285E-18
3.903804E+03	3.724733E-17	1.067383E-18
3.913588E+03	3.723987E-17	1.066334E-18
3.923372E+03	3.722741E-17	1.065139E-18
3.933156E+03	3.720967E-17	1.063792E-18
3.942940E+03	3.718733E-17	1.062313E-18
3.952724E+03	3.716014E-17	1.060693E-18
3.962508E+03	3.712843E-17	1.058943E-18
3.972292E+03	3.709223E-17	1.057065E-18
3.982076E+03	3.705159E-17	1.055060E-18
3.991860E+03	3.700652E-17	1.052928E-18
4.001644E+03	3.695738E-17	1.050681E-18
4.011428E+03	3.690386E-17	1.048309E-18
4.021212E+03	3.684600E-17	1.045814E-18
4.030996E+03	3.678444E-17	1.043216E-18
4.040780E+03	3.671857E-17	1.040495E-18
4.050564E+03	3.664875E-17	1.037664E-18
4.060348E+03	3.657495E-17	1.034722E-18
4.070131E+03	3.649720E-17	1.031669E-18
4.079915E+03	3.641551E-17	1.028507E-18
4.089699E+03	3.632992E-17	1.025237E-18
4.099483E+03	3.624040E-17	1.021858E-18
4.109267E+03	3.614701E-17	1.018373E-18
4.119051E+03	3.604971E-17	1.014780E-18
4.128835E+03	3.594850E-17	1.011080E-18
4.138619E+03	3.584313E-17	1.007266E-18
4.148403E+03	3.573359E-17	1.003338E-18
4.158187E+03	3.562020E-17	9.993063E-19
4.167971E+03	3.550294E-17	9.951694E-19
4.177755E+03	3.538125E-17	9.909126E-19
4.187539E+03	3.525541E-17	9.865440E-19
4.197323E+03	3.512544E-17	9.820645E-19
4.207107E+03	3.499137E-17	9.774750E-19
4.216891E+03	3.485319E-17	9.727759E-19
4.226675E+03	3.471063E-17	9.679600E-19
4.236459E+03	3.456429E-17	9.630444E-19
4.246243E+03	3.441358E-17	9.580128E-19
4.256027E+03	3.425914E-17	9.528837E-19
4.265811E+03	3.410099E-17	9.476577E-19
4.275595E+03	3.393942E-17	9.423431E-19
4.285379E+03	3.377449E-17	9.369419E-19
4.295163E+03	3.360647E-17	9.314621E-19
4.304947E+03	3.343542E-17	9.259058E-19
4.314731E+03	3.326192E-17	9.202888E-19
4.324515E+03	3.308602E-17	9.146130E-19
4.334299E+03	3.290772E-17	9.088785E-19
4.344083E+03	3.272767E-17	9.031037E-19
4.353867E+03	3.254587E-17	8.972886E-19
4.363651E+03	3.236261E-17	8.914416E-19
4.373435E+03	3.217858E-17	8.855814E-19
4.383219E+03	3.199346E-17	8.796996E-19
4.393003E+03	3.180788E-17	8.738138E-19
4.402786E+03	3.162217E-17	8.679328E-19
4.412570E+03	3.143636E-17	8.620578E-19
4.422354E+03	3.125080E-17	8.561981E-19
4.432138E+03	3.106581E-17	8.503627E-19
4.441922E+03	3.088171E-17	8.445606E-19
4.451706E+03	3.069889E-17	8.388019E-19
4.461490E+03	3.051734E-17	8.330867E-19
4.471274E+03	3.033717E-17	8.274177E-19
4.481058E+03	3.015926E-17	8.218191E-19
4.490842E+03	2.998346E-17	8.162864E-19
4.500626E+03	2.980977E-17	8.108198E-19
4.510410E+03	2.963891E-17	8.054383E-19
4.520194E+03	2.947121E-17	8.001513E-19
4.529978E+03	2.930622E-17	7.949460E-19
4.539762E+03	2.914517E-17	7.898556E-19
4.549546E+03	2.898734E-17	7.848603E-19
4.559330E+03	2.883371E-17	7.799866E-19
4.569114E+03	2.868436E-17	7.752365E-19
4.578898E+03	2.853949E-17	7.706147E-19
4.588682E+03	2.839923E-17	7.661249E-19
4.598466E+03	2.826378E-17	7.617717E-19
4.608250E+03	2.813380E-17	7.575730E-19
4.618034E+03	2.800928E-17	7.535280E-19
4.627818E+03	2.789040E-17	7.496410E-19
4.637602E+03	2.777767E-17	7.459256E-19
4.647386E+03	2.767073E-17	7.423716E-19
4.657170E+03	2.757067E-17	7.390078E-19
4.666954E+03	2.747692E-17	7.358183E-19
4.676738E+03	2.739028E-17	7.328239E-19
4.686522E+03	2.731100E-17	7.300312E-19
4.696306E+03	2.723874E-17	7.274303E-19
4.706090E+03	2.717393E-17	7.250323E-19
4.715874E+03	2.711683E-17	7.228431E-19
4.725657E+03	2.706664E-17	7.208415E-19
4.735441E+03	2.702336E-17	7.190265E-19
4.745225E+03	2.698667E-17	7.173894E-19
4.755009E+03	2.695601E-17	7.159145E-19
4.764793E+03	2.693110E-17	7.145940E-19
4.774577E+03	2.691188E-17	7.134263E-19
4.784361E+03	2.689788E-17	7.123980E-19
4.794145E+03	2.688906E-17	7.115081E-19
4.803929E+03	2.688465E-17	7.107356E-19
4.813713E+03	2.688475E-17	7.100827E-19
4.823497E+03	2.688912E-17	7.095433E-19
4.833281E+03	2.689733E-17	7.091051E-19
4.843065E+03	2.690948E-17	7.087708E-19
4.852849E+03	2.692511E-17	7.085280E-19
4.862633E+03	2.694441E-17	7.083813E-19
4.872417E+03	2.696693E-17	7.083189E-19
4.882201E+03	2.699255E-17	7.083372E-19
4.891985E+03	2.702093E-17	7.084271E-19
4.901769E+03	2.705251E-17	7.086000E-19
4.911553E+03	2.708666E-17	7.088391E-19
4.921337E+03	2.712329E-17	7.091420E-19
4.931121E+03	2.716261E-17	7.095139E-19
4.940905E+03	2.720429E-17	7.099462E-19
4.950689E+03	2.724827E-17	7.104371E-19
4.960473E+03	2.729453E-17	7.109856E-19
4.970257E+03	2.734299E-17	7.115899E-19
4.980041E+03	2.739341E-17	7.122434E-19
4.989825E+03	2.744568E-17	7.129435E-19
4.999609E+03	2.750014E-17	7.136982E-19
5.009393E+03	2.755613E-17	7.144909E-19
5.019177E+03	2.761427E-17	7.153375E-19
5.028961E+03	2.767368E-17	7.162148E-19
5.038745E+03	2.773492E-17	7.171372E-19
5.048528E+03	2.779772E-17	7.180979E-19
5.058312E+03	2.786206E-17	7.190964E-19
5.068096E+03	2.792797E-17	7.201330E-19
5.077880E+03	2.799518E-17	7.212007E-19
5.087664E+03	2.806369E-17	7.222998E-19
5.097448E+03	2.813321E-17	7.234226E-19
5.107232E+03	2.820436E-17	7.245850E-19
5.117016E+03	2.827629E-17	7.257650E-19
5.126800E+03	2.834928E-17	7.269699E-19
5.136584E+03	2.842337E-17	7.282007E-19
5.146368E+03	2.849860E-17	7.294582E-19
5.156152E+03	2.857438E-17	7.307274E-19
5.165936E+03	2.865105E-17	7.320173E-19
5.175720E+03	2.872832E-17	7.333199E-19
5.185504E+03	2.880623E-17	7.346368E-19
5.195288E+03	2.888452E-17	7.359610E-19
5.205072E+03	2.896347E-17	7.372998E-19
5.214856E+03	2.904257E-17	7.386402E-19
5.224640E+03	2.912183E-17	7.399823E-19
5.234424E+03	2.920095E-17	7.413190E-19
5.244208E+03	2.928029E-17	7.426591E-19
5.253992E+03	2.935894E-17	7.439800E-19
5.263776E+03	2.943723E-17	7.452898E-19
5.273560E+03	2.951493E-17	7.465827E-19
5.283344E+03	2.959173E-17	7.478513E-19
5.293128E+03	2.966673E-17	7.490729E-19
5.302912E+03	2.973966E-17	7.502408E-19
5.312696E+03	2.981024E-17	7.513483E-19
5.322480E+03	2.987699E-17	7.523583E-19
5.332264E+03	2.993954E-17	7.532618E-19
5.342048E+03	2.999678E-17	7.540310E-19
5.351832E+03	3.004798E-17	7.546487E-19
5.361616E+03	3.009410E-17	7.551387E-19
5.371399E+03	3.013480E-17	7.554934E-19
5.381183E+03	3.017097E-17	7.557354E-19
5.390967E+03	3.020289E-17	7.558720E-19
5.400751E+03	3.023178E-17	7.559341E-19
5.410535E+03	3.025732E-17	7.559142E-19
5.420319E+03	3.028011E-17	7.558272E-19
5.430103E+03	3.030012E-17	7.556729E-19
5.439887E+03	3.031831E-17	7.554752E-19
5.449671E+03	3.033430E-17	7.552253E-19
5.459455E+03	3.034845E-17	7.549320E-19
5.469239E+03	3.036072E-17	7.545948E-19
5.479023E+03	3.037174E-17	7.542293E-19
5.488807E+03	3.038118E-17	7.538275E-19
5.498591E+03	3.038933E-17	7.533968E-19
5.508375E+03	3.039652E-17	7.529457E-19
5.518159E+03	3.040272E-17	7.524737E-19
5.527943E+03	3.040826E-17	7.519888E-19
5.537727E+03	3.041280E-17	7.514829E-19
5.547511E+03	3.041665E-17	7.509638E-19
5.557295E+03	3.042013E-17	7.504392E-19
5.567079E+03	3.042320E-17	7.499091E-19
5.576863E+03	3.042588E-17	7.493733E-19
5.586647E+03	3.042815E-17	7.488317E-19
5.596431E+03	3.043064E-17	7.483001E-19
5.606215E+03	3.043271E-17	7.477624E-19
5.615999E+03	3.043497E-17	7.472344E-19
5.625783E+03	3.043743E-17	7.467159E-19
5.635567E+03	3.043975E-17	7.461989E-19
5.645351E+03	3.044224E-17	7.456911E-19
5.655135E+03	3.044523E-17	7.452003E-19
5.664919E+03	3.044836E-17	7.447186E-19
5.674703E+03	3.045163E-17	7.442454E-19
5.684487E+03	3.045570E-17	7.437970E-19
5.694271E+03	3.045987E-17	7.433569E-19
5.704054E+03	3.046448E-17	7.429329E-19
5.713838E+03	3.046950E-17	7.425249E-19
5.723622E+03	3.047493E-17	7.421326E-19
5.733406E+03	3.048109E-17	7.417641E-19
5.743190E+03	3.048729E-17	7.414025E-19
5.752974E+03	3.049419E-17	7.410642E-19
5.762758E+03	3.050143E-17	7.407407E-19
5.772542E+03	3.050900E-17	7.404316E-19
5.782326E+03	3.051688E-17	7.401366E-19
5.792110E+03	3.052506E-17	7.398554E-19
5.801894E+03	3.053386E-17	7.395961E-19
5.811678E+03	3.054256E-17	7.393416E-19
5.821462E+03	3.055115E-17	7.390915E-19
5.831246E+03	3.055996E-17	7.388538E-19
5.841030E+03	3.056895E-17	7.386282E-19
5.850814E+03	3.057741E-17	7.383972E-19
5.860598E+03	3.058602E-17	7.381775E-19
5.870382E+03	3.059368E-17	7.379430E-19
5.880166E+03	3.060145E-17	7.377189E-19
5.889950E+03	3.060821E-17	7.374790E-19
5.899734E+03	3.061394E-17	7.372225E-19
5.909518E+03	3.061896E-17	7.369577E-19
5.919302E+03	3.062289E-17	7.366753E-19
5.929086E+03	3.062569E-17	7.363747E-19
5.938870E+03	3.062660E-17	7.360379E-19
5.948654E+03	3.062631E-17	7.356815E-19
5.958438E+03	3.062369E-17	7.352788E-19
5.968222E+03	3.061944E-17	7.348466E-19
5.978006E+03	3.061315E-17	7.343755E-19
5.987790E+03	3.060441E-17	7.338559E-19
5.997574E+03	3.059320E-17	7.332872E-19
6.007358E+03	3.057984E-17	7.326778E-19
6.017142E+03	3.056395E-17	7.320182E-19
6.026925E+03	3.054548E-17	7.313080E-19
6.036709E+03	3.052519E-17	7.305652E-19
6.046493E+03	3.050228E-17	7.297713E-19
6.056277E+03	3.047715E-17	7.289354E-19
6.066061E+03	3.045016E-17	7.280668E-19
6.075845E+03	3.042172E-17	7.271754E-19
6.085629E+03	3.039145E-17	7.262524E-19
6.095413E+03	3.035938E-17	7.252983E-19
6.105197E+03	3.032594E-17	7.243238E-19
6.114981E+03	3.029077E-17	7.233206E-19
6.124765E+03	3.025434E-17	7.222997E-19
6.134549E+03	3.021671E-17	7.212630E-19
6.144333E+03	3.017837E-17	7.202222E-19
6.154117E+03	3.013944E-17	7.191803E-19
6.163901E+03	3.010005E-17	7.181403E-19
6.173685E+03	3.006074E-17	7.171157E-19
6.183469E+03	3.002210E-17	7.161205E-19
6.193253E+03	2.998395E-17	7.151502E-19
6.203037E+03	2.994692E-17	7.142203E-19
6.212821E+03	2.991170E-17	7.133475E-19
6.222605E+03	2.987821E-17	7.125294E-19
6.232389E+03	2.984764E-17	7.117949E-19
6.242173E+03	2.982041E-17	7.111542E-19
6.251957E+03	2.979701E-17	7.106192E-19
6.261741E+03	2.977800E-17	7.102031E-19
6.271525E+03	2.976489E-17	7.099421E-19
6.281309E+03	2.975798E-17	7.098437E-19
6.291093E+03	2.975899E-17	7.099490E-19
6.300877E+03	2.976872E-17	7.102776E-19
6.310661E+03	2.978740E-17	7.108346E-19
6.320445E+03	2.981480E-17	7.116155E-19
6.330229E+03	2.985009E-17	7.126003E-19
6.340013E+03	2.989298E-17	7.137817E-19
6.349796E+03	2.994188E-17	7.151222E-19
6.359580E+03	2.999713E-17	7.166298E-19
6.369364E+03	3.005825E-17	7.182927E-19
6.379148E+03	3.012432E-17	7.200896E-19
6.388932E+03	3.019545E-17	7.220226E-19
6.398716E+03	3.027132E-17	7.240843E-19
6.408500E+03	3.035165E-17	7.262679E-19
6.418284E+03	3.043619E-17	7.285679E-19
6.428068E+03	3.052525E-17	7.309911E-19
6.437852E+03	3.061814E-17	7.335216E-19
6.447636E+03	3.071472E-17	7.361560E-19
6.457420E+03	3.081538E-17	7.389033E-19
6.467204E+03	3.092001E-17	7.417614E-19
6.476988E+03	3.102803E-17	7.447163E-19
6.486772E+03	3.113989E-17	7.477787E-19
6.496556E+03	3.125501E-17	7.509352E-19
6.506340E+03	3.137442E-17	7.542103E-19
6.516124E+03	3.149705E-17	7.575784E-19
6.525908E+03	3.162288E-17	7.610392E-19
6.535692E+03	3.175245E-17	7.646056E-19
6.545476E+03	3.188578E-17	7.682785E-19
6.555260E+03	3.202233E-17	7.720450E-19
6.565044E+03	3.216214E-17	7.759058E-19
6.574828E+03	3.230578E-17	7.798752E-19
6.584612E+03	3.245275E-17	7.839410E-19
6.594396E+03	3.260366E-17	7.881182E-19
6.604180E+03	3.275740E-17	7.923801E-19
6.613964E+03	3.291519E-17	7.967564E-19
6.623748E+03	3.307592E-17	8.012201E-19
6.633532E+03	3.324083E-17	8.058018E-19
6.643316E+03	3.340879E-17	8.104740E-19
6.653100E+03	3.358048E-17	8.152531E-19
6.662884E+03	3.375595E-17	8.201413E-19
6.672668E+03	3.393468E-17	8.251253E-19
6.682451E+03	3.411734E-17	8.302222E-19
6.692235E+03	3.430341E-17	8.354190E-19
6.702019E+03	3.449357E-17	8.407330E-19
6.711803E+03	3.468664E-17	8.461351E-19
6.721587E+03	3.488398E-17	8.516589E-19
6.731371E+03	3.508503E-17	8.572909E-19
6.741155E+03	3.528985E-17	8.630331E-19
6.750939E+03	3.549788E-17	8.688714E-19
6.760723E+03	3.571053E-17	8.748411E-19
6.770507E+03	3.592586E-17	8.808944E-19
6.780291E+03	3.614599E-17	8.870839E-19
6.790075E+03	3.636963E-17	8.933781E-19
6.799859E+03	3.659686E-17	8.997791E-19
6.809643E+03	3.682848E-17	9.063066E-19
6.819427E+03	3.706385E-17	9.129455E-19
6.829211E+03	3.730306E-17	9.196980E-19
6.838995E+03	3.754618E-17	9.265662E-19
6.848779E+03	3.779331E-17	9.335527E-19
6.858563E+03	3.804454E-17	9.406601E-19
6.868347E+03	3.829917E-17	9.478713E-19
6.878131E+03	3.855880E-17	9.552259E-19
6.887915E+03	3.882125E-17	9.626706E-19
6.897699E+03	3.908887E-17	9.702637E-19
6.907483E+03	3.935944E-17	9.779506E-19
6.917267E+03	3.963462E-17	9.857722E-19
6.927051E+03	3.991364E-17	9.937102E-19
6.936835E+03	4.019660E-17	1.001767E-18
6.946619E+03	4.048438E-17	1.009965E-18
6.956403E+03	4.077548E-17	1.018268E-18
6.966187E+03	4.107071E-17	1.026694E-18
6.975971E+03	4.136935E-17	1.035228E-18
6.985755E+03	4.167233E-17	1.043891E-18
6.995539E+03	4.197966E-17	1.052686E-18
7.005322E+03	4.229059E-17	1.061593E-18
7.015106E+03	4.260606E-17	1.070636E-18
7.024890E+03	4.292434E-17	1.079772E-18
7.034674E+03	4.324732E-17	1.089049E-18
7.044458E+03	4.357411E-17	1.098445E-18
7.054242E+03	4.390390E-17	1.107938E-18
7.064026E+03	4.423765E-17	1.117555E-18
7.073810E+03	4.457539E-17	1.127296E-18
7.083594E+03	4.491628E-17	1.137140E-18
7.093378E+03	4.526032E-17	1.147086E-18
7.103162E+03	4.560756E-17	1.157138E-18
7.112946E+03	4.595801E-17	1.167294E-18
7.122730E+03	4.631176E-17	1.177558E-18
7.132514E+03	4.666687E-17	1.187880E-18
7.142298E+03	4.702529E-17	1.198311E-18
7.152082E+03	4.738606E-17	1.208825E-18
7.161866E+03	4.774817E-17	1.219397E-18
7.171650E+03	4.811263E-17	1.230054E-18
7.181434E+03	4.847739E-17	1.240742E-18
7.191218E+03	4.884245E-17	1.251461E-18
7.201002E+03	4.920768E-17	1.262209E-18
7.210786E+03	4.957204E-17	1.272958E-18
7.220570E+03	4.993649E-17	1.283733E-18
7.230354E+03	5.029778E-17	1.294451E-18
7.240138E+03	5.065791E-17	1.305161E-18
7.249922E+03	5.101462E-17	1.315807E-18
7.259706E+03	5.136888E-17	1.326412E-18
7.269490E+03	5.171940E-17	1.336943E-18
7.279274E+03	5.206606E-17	1.347397E-18
7.289058E+03	5.240986E-17	1.357798E-18
7.298842E+03	5.274946E-17	1.368112E-18
7.308626E+03	5.308816E-17	1.378425E-18
7.318410E+03	5.342360E-17	1.388673E-18
7.328193E+03	5.375793E-17	1.398913E-18
7.337977E+03	5.408991E-17	1.409113E-18
7.347761E+03	5.442299E-17	1.419362E-18
7.357545E+03	5.475593E-17	1.429628E-18
7.367329E+03	5.508873E-17	1.439910E-18
7.377113E+03	5.542250E-17	1.450238E-18
7.386897E+03	5.575727E-17	1.460612E-18
7.396681E+03	5.609548E-17	1.471097E-18
7.406465E+03	5.643467E-17	1.481627E-18
7.416249E+03	5.677610E-17	1.492235E-18
7.426033E+03	5.712102E-17	1.502956E-18
7.435817E+03	5.746819E-17	1.513757E-18
7.445601E+03	5.781899E-17	1.524672E-18
7.455385E+03	5.817210E-17	1.535670E-18
7.465169E+03	5.853020E-17	1.546819E-18
7.474953E+03	5.889070E-17	1.558052E-18
7.484737E+03	5.925630E-17	1.569440E-18
7.494521E+03	5.962444E-17	1.580916E-18
7.504305E+03	5.999776E-17	1.592551E-18
7.514089E+03	6.037364E-17	1.604274E-18
7.523873E+03	6.075492E-17	1.616161E-18
7.533657E+03	6.114027E-17	1.628178E-18
7.543441E+03	6.152971E-17	1.640324E-18
7.553225E+03	6.192331E-17	1.652603E-18
7.563009E+03	6.232118E-17	1.665017E-18
7.572793E+03	6.272331E-17	1.677566E-18
7.582577E+03	6.312835E-17	1.690215E-18
7.592361E+03	6.353925E-17	1.703042E-18
