#wls	flux	fluxerr
1.565435E+03	1.981587E-18	3.953325E-20
1.604571E+03	2.045173E-18	4.075598E-20
1.643707E+03	2.097164E-18	4.174402E-20
1.682843E+03	2.137315E-18	4.249317E-20
1.721979E+03	2.163878E-18	4.296950E-20
1.761115E+03	2.174375E-18	4.312478E-20
1.800250E+03	2.165164E-18	4.288798E-20
1.839386E+03	2.131368E-18	4.216413E-20
1.878522E+03	2.069596E-18	4.088814E-20
1.917658E+03	1.977201E-18	3.901006E-20
1.956794E+03	1.856449E-18	3.657711E-20
1.995930E+03	1.717557E-18	3.379284E-20
2.035066E+03	1.579579E-18	3.103331E-20
2.074202E+03	1.467977E-18	2.879819E-20
2.113338E+03	1.407337E-18	2.756697E-20
2.152473E+03	1.414431E-18	2.766323E-20
2.191609E+03	1.493756E-18	2.916866E-20
2.230745E+03	1.639186E-18	3.195695E-20
2.269881E+03	1.837379E-18	3.576195E-20
2.309017E+03	2.070933E-18	4.023999E-20
2.348153E+03	2.324103E-18	4.508175E-20
2.387289E+03	2.584973E-18	5.005401E-20
2.426425E+03	2.845593E-18	5.500176E-20
2.465560E+03	3.102049E-18	5.984900E-20
2.504696E+03	3.352514E-18	6.456041E-20
2.543832E+03	3.597694E-18	6.914969E-20
2.582968E+03	3.838172E-18	7.362806E-20
2.622104E+03	4.075412E-18	7.802352E-20
2.661240E+03	4.311584E-18	8.237739E-20
2.700376E+03	4.547702E-18	8.670861E-20
2.739512E+03	4.785220E-18	9.104427E-20
2.778647E+03	5.026699E-18	9.543229E-20
2.817783E+03	5.273353E-18	9.989462E-20
2.856919E+03	5.526211E-18	1.044495E-19
2.896055E+03	5.786779E-18	1.091239E-19
2.935191E+03	6.056428E-18	1.139420E-19
2.944975E+03	6.126083E-18	1.151843E-19
2.954759E+03	6.195962E-18	1.164290E-19
2.964543E+03	6.266059E-18	1.176758E-19
2.974327E+03	6.337781E-18	1.189513E-19
2.984111E+03	6.410030E-18	1.202348E-19
2.993895E+03	6.483735E-18	1.215436E-19
3.003679E+03	6.558823E-18	1.228763E-19
3.013463E+03	6.635214E-18	1.242314E-19
3.023247E+03	6.712842E-18	1.256076E-19
3.033031E+03	6.792003E-18	1.270103E-19
3.042815E+03	6.871776E-18	1.284223E-19
3.052599E+03	6.953797E-18	1.298741E-19
3.062383E+03	7.038559E-18	1.313748E-19
3.072167E+03	7.124511E-18	1.328954E-19
3.081951E+03	7.212859E-18	1.344583E-19
3.091735E+03	7.303445E-18	1.360604E-19
3.101518E+03	7.394744E-18	1.376734E-19
3.111302E+03	7.488000E-18	1.393202E-19
3.121086E+03	7.583086E-18	1.409984E-19
3.130870E+03	7.679184E-18	1.426928E-19
3.140654E+03	7.776881E-18	1.444142E-19
3.150438E+03	7.875370E-18	1.461475E-19
3.160222E+03	7.975950E-18	1.479169E-19
3.170006E+03	8.077133E-18	1.496946E-19
3.179790E+03	8.179529E-18	1.514919E-19
3.189574E+03	8.282359E-18	1.532943E-19
3.199358E+03	8.386941E-18	1.551262E-19
3.209142E+03	8.492510E-18	1.569733E-19
3.218926E+03	8.598994E-18	1.588343E-19
3.228710E+03	8.707035E-18	1.607209E-19
3.238494E+03	8.815174E-18	1.626063E-19
3.248278E+03	8.924751E-18	1.645149E-19
3.258062E+03	9.035017E-18	1.664331E-19
3.267846E+03	9.146627E-18	1.683728E-19
3.277630E+03	9.259530E-18	1.703330E-19
3.287414E+03	9.372984E-18	1.723000E-19
3.297198E+03	9.487649E-18	1.742859E-19
3.306982E+03	9.603483E-18	1.762898E-19
3.316766E+03	9.719752E-18	1.782983E-19
3.326550E+03	9.837817E-18	1.803362E-19
3.336334E+03	9.956949E-18	1.823901E-19
3.346118E+03	1.007711E-17	1.844592E-19
3.355902E+03	1.019897E-17	1.865558E-19
3.365686E+03	1.032110E-17	1.886537E-19
3.375470E+03	1.044557E-17	1.907904E-19
3.385254E+03	1.057094E-17	1.929400E-19
3.395038E+03	1.069720E-17	1.951019E-19
3.404822E+03	1.082571E-17	1.973007E-19
3.414606E+03	1.095504E-17	1.995108E-19
3.424389E+03	1.108587E-17	2.017440E-19
3.434173E+03	1.121817E-17	2.039999E-19
3.443957E+03	1.135259E-17	2.062903E-19
3.453741E+03	1.148843E-17	2.086022E-19
3.463525E+03	1.162565E-17	2.109351E-19
3.473309E+03	1.176492E-17	2.133007E-19
3.483093E+03	1.190620E-17	2.156984E-19
3.492877E+03	1.204880E-17	2.181153E-19
3.502661E+03	1.219402E-17	2.205754E-19
3.512445E+03	1.234050E-17	2.230536E-19
3.522229E+03	1.248889E-17	2.255616E-19
3.532013E+03	1.263982E-17	2.281108E-19
3.541797E+03	1.279261E-17	2.306885E-19
3.551581E+03	1.294787E-17	2.333061E-19
3.561365E+03	1.310493E-17	2.359511E-19
3.571149E+03	1.326442E-17	2.386346E-19
3.580933E+03	1.342630E-17	2.413561E-19
3.590717E+03	1.359056E-17	2.441150E-19
3.600501E+03	1.375780E-17	2.469222E-19
3.610285E+03	1.392671E-17	2.497539E-19
3.620069E+03	1.409856E-17	2.526326E-19
3.629853E+03	1.427330E-17	2.555577E-19
3.639637E+03	1.445028E-17	2.585171E-19
3.649421E+03	1.463011E-17	2.615217E-19
3.659205E+03	1.481276E-17	2.645709E-19
3.668989E+03	1.499821E-17	2.676639E-19
3.678773E+03	1.518644E-17	2.708005E-19
3.688557E+03	1.537744E-17	2.739800E-19
3.698341E+03	1.557178E-17	2.772131E-19
3.708125E+03	1.576947E-17	2.804991E-19
3.717909E+03	1.596986E-17	2.838266E-19
3.727693E+03	1.617417E-17	2.872171E-19
3.737477E+03	1.638116E-17	2.906483E-19
3.747260E+03	1.659143E-17	2.941309E-19
3.757044E+03	1.680499E-17	2.976646E-19
3.766828E+03	1.702242E-17	3.012597E-19
3.776612E+03	1.724312E-17	3.049055E-19
3.785181E+03	5.378435E-18	9.503420E-20
3.786340E+03	5.386859E-18	9.517338E-20
3.787498E+03	5.367392E-18	9.481980E-20
3.788656E+03	5.338243E-18	9.429529E-20
3.789815E+03	5.310828E-18	9.380150E-20
3.790972E+03	5.361538E-18	9.468753E-20
3.792131E+03	5.433105E-18	9.594167E-20
3.793289E+03	5.496508E-18	9.705141E-20
3.794448E+03	5.475012E-18	9.666202E-20
3.795606E+03	5.439026E-18	9.601692E-20
3.796764E+03	5.457180E-18	9.632756E-20
3.799080E+03	5.436470E-18	9.594245E-20
3.800239E+03	5.435710E-18	9.591925E-20
3.801397E+03	5.449271E-18	9.614874E-20
3.802556E+03	5.463666E-18	9.639289E-20
3.803714E+03	5.484821E-18	9.675623E-20
3.804872E+03	5.532701E-18	9.759089E-20
3.806031E+03	5.528086E-18	9.749953E-20
3.807188E+03	5.569439E-18	9.821884E-20
3.808347E+03	5.649393E-18	9.961866E-20
3.809505E+03	5.724023E-18	1.009243E-19
3.810664E+03	5.763519E-18	1.016103E-19
3.811822E+03	5.858686E-18	1.032775E-19
3.812980E+03	5.899355E-18	1.039837E-19
3.814138E+03	5.972097E-18	1.052551E-19
3.815296E+03	6.016063E-18	1.060191E-19
3.816455E+03	6.072104E-18	1.069958E-19
3.817613E+03	6.186029E-18	1.089920E-19
3.818772E+03	6.267747E-18	1.104205E-19
3.819930E+03	6.318153E-18	1.112971E-19
3.821088E+03	6.403012E-18	1.127803E-19
3.822246E+03	6.469540E-18	1.139404E-19
3.823404E+03	6.566189E-18	1.156307E-19
3.824563E+03	6.660661E-18	1.172822E-19
3.825721E+03	6.706976E-18	1.180856E-19
3.826880E+03	6.778777E-18	1.193375E-19
3.828038E+03	6.811769E-18	1.199059E-19
3.829196E+03	6.903812E-18	1.215136E-19
3.830354E+03	6.994699E-18	1.231006E-19
3.831512E+03	7.092986E-18	1.248175E-19
3.832671E+03	7.187514E-18	1.264679E-19
3.833829E+03	7.235557E-18	1.273001E-19
3.834987E+03	7.273298E-18	1.279509E-19
3.836146E+03	7.298676E-18	1.283841E-19
3.837303E+03	7.317546E-18	1.287027E-19
3.838462E+03	7.297392E-18	1.283349E-19
3.839620E+03	7.387572E-18	1.299074E-19
3.840779E+03	7.452166E-18	1.310297E-19
3.841937E+03	7.471011E-18	1.313475E-19
3.843095E+03	7.591727E-18	1.334560E-19
3.844254E+03	7.721092E-18	1.357160E-19
3.845411E+03	7.823652E-18	1.375045E-19
3.846570E+03	7.986203E-18	1.403469E-19
3.847728E+03	8.099452E-18	1.423223E-19
3.848887E+03	8.174838E-18	1.436321E-19
3.850045E+03	8.286616E-18	1.455809E-19
3.851203E+03	8.376307E-18	1.471413E-19
3.852362E+03	8.521671E-18	1.496793E-19
3.853519E+03	8.592120E-18	1.509010E-19
3.854678E+03	8.669908E-18	1.522513E-19
3.855836E+03	8.746993E-18	1.535890E-19
3.856995E+03	8.807467E-18	1.546348E-19
3.858153E+03	8.906541E-18	1.563580E-19
3.859311E+03	9.075623E-18	1.593097E-19
3.860469E+03	9.264092E-18	1.626011E-19
3.861627E+03	9.357948E-18	1.642313E-19
3.862786E+03	9.473042E-18	1.662338E-19
3.863944E+03	9.597573E-18	1.684015E-19
3.865103E+03	9.734366E-18	1.707839E-19
3.866261E+03	9.839350E-18	1.726078E-19
3.867419E+03	9.985674E-18	1.751564E-19
3.868577E+03	1.014053E-17	1.778540E-19
3.869735E+03	1.032176E-17	1.810137E-19
3.870894E+03	1.039980E-17	1.823632E-19
3.872052E+03	1.055866E-17	1.851296E-19
3.873211E+03	1.068568E-17	1.873370E-19
3.874369E+03	1.084753E-17	1.901547E-19
3.875527E+03	1.104991E-17	1.936821E-19
3.876685E+03	1.126275E-17	1.973919E-19
3.877843E+03	1.144843E-17	2.006252E-19
3.879002E+03	1.169914E-17	2.049972E-19
3.880160E+03	1.196882E-17	2.097007E-19
3.881318E+03	1.221795E-17	2.140430E-19
3.882477E+03	1.247663E-17	2.185519E-19
3.883634E+03	1.271097E-17	2.226334E-19
3.884793E+03	1.291341E-17	2.261554E-19
3.885951E+03	1.318194E-17	2.308340E-19
3.887110E+03	1.342329E-17	2.350357E-19
3.888268E+03	1.366761E-17	2.392884E-19
3.889426E+03	1.391774E-17	2.436418E-19
3.890585E+03	1.420952E-17	2.487236E-19
3.891742E+03	1.447504E-17	2.533446E-19
3.892901E+03	1.474072E-17	2.579674E-19
3.894059E+03	1.501506E-17	2.627407E-19
3.895218E+03	1.529806E-17	2.676645E-19
3.896376E+03	1.557082E-17	2.724082E-19
3.897534E+03	1.585604E-17	2.773687E-19
3.898693E+03	1.617073E-17	2.828437E-19
3.899850E+03	1.647804E-17	2.881885E-19
3.901009E+03	1.672687E-17	2.925095E-19
3.902167E+03	1.700992E-17	2.974278E-19
3.903326E+03	1.731491E-17	3.027287E-19
3.904484E+03	1.758693E-17	3.074522E-19
3.905642E+03	1.788185E-17	3.125747E-19
3.906800E+03	1.819588E-17	3.180304E-19
3.907958E+03	1.845988E-17	3.226104E-19
3.909117E+03	1.874773E-17	3.276063E-19
3.910275E+03	1.901299E-17	3.322063E-19
3.911434E+03	1.930402E-17	3.372556E-19
3.912592E+03	1.964835E-17	3.432350E-19
3.913750E+03	1.989513E-17	3.475091E-19
3.914908E+03	2.015060E-17	3.519340E-19
3.916066E+03	2.042807E-17	3.567422E-19
3.917225E+03	2.069525E-17	3.613697E-19
3.918383E+03	2.098445E-17	3.663805E-19
3.919542E+03	2.135080E-17	3.727372E-19
3.920700E+03	2.164606E-17	3.778517E-19
3.921857E+03	2.194816E-17	3.830843E-19
3.923016E+03	2.222570E-17	3.878873E-19
3.924174E+03	2.254623E-17	3.934394E-19
3.925333E+03	2.285268E-17	3.987445E-19
3.926491E+03	2.319739E-17	4.047161E-19
3.927649E+03	2.353088E-17	4.104905E-19
3.928808E+03	2.378740E-17	4.149212E-19
3.929965E+03	2.406599E-17	4.197358E-19
3.931124E+03	2.433045E-17	4.243030E-19
3.932282E+03	2.459030E-17	4.287889E-19
3.933441E+03	2.483982E-17	4.330936E-19
3.934599E+03	2.508567E-17	4.373333E-19
3.935757E+03	2.527632E-17	4.406099E-19
3.936916E+03	2.551768E-17	4.447696E-19
3.938073E+03	2.577063E-17	4.491307E-19
3.939232E+03	2.603521E-17	4.536932E-19
3.940390E+03	2.630473E-17	4.583407E-19
3.941549E+03	2.650464E-17	4.617746E-19
3.942707E+03	2.675343E-17	4.660591E-19
3.943865E+03	2.697559E-17	4.698790E-19
3.945023E+03	2.721414E-17	4.739834E-19
3.946181E+03	2.746433E-17	4.782896E-19
3.947340E+03	2.767159E-17	4.818474E-19
3.948498E+03	2.789622E-17	4.857067E-19
3.949657E+03	2.815259E-17	4.901178E-19
3.950815E+03	2.836601E-17	4.937802E-19
3.951973E+03	2.857380E-17	4.973439E-19
3.953131E+03	2.872515E-17	4.999246E-19
3.954289E+03	2.892072E-17	5.032740E-19
3.955448E+03	2.904447E-17	5.053731E-19
3.956606E+03	2.920859E-17	5.081741E-19
3.957765E+03	2.939872E-17	5.114271E-19
3.958923E+03	2.952081E-17	5.134957E-19
3.960081E+03	2.966411E-17	5.159326E-19
3.961239E+03	2.981037E-17	5.184206E-19
3.962397E+03	2.995768E-17	5.209263E-19
3.963556E+03	3.010413E-17	5.234164E-19
3.964714E+03	3.027663E-17	5.263588E-19
3.965873E+03	3.047809E-17	5.298040E-19
3.967031E+03	3.062291E-17	5.322639E-19
3.968188E+03	3.080534E-17	5.353771E-19
3.969347E+03	3.095902E-17	5.379898E-19
3.970505E+03	3.108486E-17	5.401183E-19
3.971664E+03	3.124354E-17	5.428167E-19
3.972822E+03	3.138015E-17	5.451312E-19
3.973981E+03	3.146480E-17	5.465426E-19
3.975139E+03	3.155048E-17	5.479714E-19
3.976296E+03	3.165645E-17	5.497524E-19
3.977455E+03	3.179143E-17	5.520368E-19
3.978613E+03	3.197380E-17	5.551433E-19
3.979772E+03	3.207615E-17	5.568599E-19
3.980930E+03	3.220367E-17	5.590131E-19
3.982088E+03	3.227912E-17	5.602620E-19
3.983247E+03	3.234879E-17	5.614103E-19
3.984404E+03	3.246685E-17	5.633982E-19
3.985563E+03	3.254051E-17	5.646151E-19
3.986721E+03	3.259491E-17	5.654975E-19
3.987880E+03	3.261159E-17	5.657254E-19
3.989038E+03	3.270954E-17	5.673630E-19
3.990196E+03	3.280080E-17	5.688840E-19
3.991354E+03	3.285631E-17	5.697847E-19
3.992512E+03	3.295252E-17	5.713911E-19
3.993671E+03	3.302456E-17	5.725779E-19
3.994829E+03	3.307825E-17	5.734464E-19
3.995988E+03	3.313975E-17	5.744498E-19
3.997146E+03	3.320901E-17	5.755878E-19
3.998304E+03	3.327446E-17	5.766592E-19
3.999462E+03	3.341949E-17	5.791095E-19
4.000620E+03	3.349863E-17	5.804176E-19
4.001779E+03	3.352927E-17	5.808850E-19
4.002937E+03	3.364540E-17	5.828334E-19
4.004096E+03	3.377908E-17	5.850852E-19
4.005254E+03	3.390219E-17	5.871533E-19
4.006412E+03	3.411283E-17	5.907369E-19
4.007570E+03	3.426718E-17	5.933449E-19
4.008728E+03	3.435456E-17	5.947928E-19
4.009887E+03	3.438846E-17	5.953146E-19
4.011045E+03	3.444381E-17	5.962075E-19
4.012204E+03	3.449919E-17	5.971008E-19
4.013362E+03	3.458285E-17	5.984831E-19
4.014519E+03	3.462175E-17	5.990908E-19
4.015678E+03	3.473763E-17	6.010301E-19
4.016836E+03	3.479708E-17	6.019926E-19
4.017995E+03	3.483903E-17	6.026522E-19
4.019153E+03	3.492389E-17	6.040540E-19
4.020312E+03	3.499616E-17	6.052374E-19
4.021470E+03	3.510064E-17	6.069778E-19
4.022627E+03	3.515638E-17	6.078749E-19
4.023786E+03	3.521219E-17	6.087730E-19
4.024944E+03	3.527486E-17	6.097895E-19
4.026103E+03	3.531997E-17	6.105021E-19
4.027261E+03	3.538269E-17	6.115189E-19
4.028419E+03	3.544841E-17	6.125874E-19
4.029578E+03	3.550536E-17	6.135039E-19
4.030735E+03	3.559465E-17	6.149791E-19
4.031894E+03	3.565264E-17	6.159133E-19
4.033052E+03	3.569994E-17	6.166625E-19
4.034211E+03	3.576685E-17	6.177501E-19
4.035369E+03	3.579851E-17	6.182288E-19
4.036527E+03	3.581552E-17	6.184542E-19
4.037685E+03	3.580116E-17	6.181381E-19
4.038843E+03	3.574954E-17	6.171787E-19
4.040002E+03	3.571947E-17	6.165915E-19
4.041160E+03	3.564523E-17	6.152420E-19
4.042319E+03	3.563177E-17	6.149417E-19
4.043477E+03	3.553293E-17	6.131682E-19
4.044635E+03	3.545364E-17	6.117322E-19
4.045793E+03	3.536155E-17	6.100759E-19
4.046951E+03	3.531459E-17	6.091983E-19
4.048110E+03	3.524502E-17	6.079309E-19
4.049268E+03	3.520293E-17	6.071376E-19
4.050427E+03	3.513524E-17	6.059030E-19
4.051585E+03	3.506453E-17	6.046167E-19
4.052743E+03	3.491997E-17	6.020574E-19
4.053901E+03	3.474188E-17	5.989205E-19
4.055059E+03	3.459518E-17	5.963253E-19
4.056218E+03	3.442964E-17	5.934062E-19
4.057376E+03	3.425714E-17	5.903676E-19
4.058535E+03	3.409340E-17	5.874805E-19
4.059693E+03	3.391279E-17	5.843034E-19
4.060850E+03	3.371625E-17	5.808527E-19
4.062009E+03	3.355713E-17	5.780470E-19
4.063167E+03	3.340775E-17	5.754100E-19
4.064326E+03	3.335407E-17	5.744214E-19
4.065484E+03	3.326476E-17	5.728196E-19
4.066643E+03	3.315173E-17	5.708097E-19
4.067801E+03	3.301095E-17	5.683226E-19
4.068958E+03	3.284731E-17	5.654424E-19
4.070117E+03	3.268262E-17	5.625446E-19
4.071275E+03	3.253759E-17	5.599859E-19
4.072434E+03	3.241523E-17	5.578179E-19
4.073592E+03	3.224034E-17	5.547464E-19
4.074751E+03	3.199900E-17	5.505324E-19
4.075908E+03	3.183674E-17	5.476796E-19
4.077066E+03	3.168032E-17	5.449280E-19
4.078225E+03	3.156543E-17	5.428912E-19
4.079383E+03	3.135034E-17	5.391317E-19
4.080542E+03	3.116288E-17	5.358481E-19
4.081700E+03	3.096439E-17	5.323755E-19
4.082858E+03	3.081043E-17	5.296692E-19
4.084016E+03	3.063751E-17	5.266376E-19
4.085174E+03	3.043668E-17	5.231270E-19
4.086333E+03	3.026950E-17	5.201953E-19
4.087491E+03	3.008730E-17	5.170063E-19
4.088650E+03	2.993381E-17	5.143112E-19
4.089808E+03	2.977923E-17	5.115979E-19
4.090966E+03	2.962753E-17	5.089348E-19
4.092124E+03	2.944291E-17	5.057067E-19
4.093282E+03	2.924722E-17	5.022894E-19
4.094441E+03	2.911910E-17	5.000330E-19
4.095599E+03	2.898294E-17	4.976388E-19
4.096758E+03	2.882477E-17	4.948676E-19
4.097916E+03	2.872529E-17	4.931043E-19
4.099073E+03	2.863470E-17	4.914941E-19
4.100232E+03	2.847926E-17	4.887712E-19
4.101390E+03	2.836462E-17	4.867489E-19
4.102549E+03	2.823692E-17	4.845032E-19
4.103707E+03	2.812512E-17	4.825305E-19
4.104866E+03	2.799328E-17	4.802145E-19
4.106024E+03	2.781441E-17	4.770925E-19
4.107181E+03	2.770436E-17	4.751513E-19
4.108340E+03	2.763021E-17	4.738262E-19
4.109498E+03	2.758199E-17	4.729461E-19
4.110657E+03	2.751275E-17	4.717057E-19
4.111815E+03	2.741146E-17	4.699161E-19
4.112974E+03	2.726309E-17	4.673198E-19
4.114132E+03	2.718067E-17	4.658545E-19
4.115289E+03	2.706915E-17	4.638910E-19
4.116448E+03	2.698261E-17	4.623557E-19
4.117606E+03	2.691404E-17	4.611287E-19
4.118765E+03	2.689152E-17	4.606909E-19
4.119923E+03	2.682087E-17	4.594286E-19
4.121082E+03	2.673113E-17	4.578396E-19
4.122239E+03	2.670351E-17	4.573148E-19
4.123397E+03	2.661567E-17	4.557591E-19
4.124556E+03	2.655387E-17	4.546494E-19
4.125714E+03	2.650509E-17	4.537628E-19
4.126873E+03	2.648137E-17	4.533055E-19
4.128031E+03	2.642550E-17	4.522978E-19
4.129189E+03	2.640877E-17	4.519604E-19
4.130347E+03	2.638098E-17	4.514336E-19
4.131505E+03	2.635115E-17	4.508721E-19
4.132664E+03	2.632533E-17	4.503793E-19
4.133822E+03	2.626227E-17	4.492494E-19
4.134981E+03	2.622835E-17	4.486183E-19
4.136139E+03	2.620246E-17	4.481247E-19
4.137297E+03	2.615742E-17	4.473036E-19
4.138455E+03	2.612745E-17	4.467404E-19
4.139613E+03	2.607630E-17	4.458153E-19
4.140772E+03	2.603924E-17	4.451311E-19
4.141930E+03	2.600618E-17	4.445155E-19
4.143089E+03	2.594586E-17	4.434341E-19
4.144247E+03	2.587945E-17	4.422487E-19
4.145404E+03	2.586447E-17	4.419425E-19
4.146563E+03	2.587573E-17	4.420847E-19
4.147721E+03	2.587791E-17	4.420716E-19
4.148880E+03	2.591747E-17	4.426970E-19
4.150038E+03	2.591966E-17	4.426840E-19
4.151197E+03	2.589859E-17	4.422738E-19
4.152355E+03	2.591392E-17	4.424852E-19
4.153512E+03	2.588069E-17	4.418674E-19
4.154671E+03	2.588286E-17	4.418541E-19
4.155829E+03	2.588807E-17	4.418927E-19
4.156988E+03	2.589733E-17	4.420003E-19
4.158146E+03	2.587924E-17	4.416412E-19
4.159305E+03	2.579832E-17	4.402100E-19
4.160463E+03	2.576600E-17	4.396082E-19
4.161620E+03	2.571742E-17	4.387294E-19
4.162779E+03	2.561608E-17	4.369506E-19
4.163937E+03	2.554916E-17	4.357594E-19
4.165096E+03	2.546292E-17	4.342388E-19
4.166254E+03	2.541723E-17	4.334101E-19
4.167413E+03	2.539791E-17	4.330311E-19
4.168570E+03	2.538365E-17	4.327384E-19
4.169728E+03	2.532162E-17	4.316316E-19
4.170887E+03	2.525345E-17	4.304203E-19
4.172045E+03	2.514355E-17	4.284981E-19
4.173204E+03	2.511494E-17	4.279615E-19
4.174362E+03	2.500390E-17	4.260206E-19
4.175521E+03	2.492943E-17	4.247030E-19
4.176678E+03	2.485999E-17	4.234715E-19
4.177836E+03	2.476199E-17	4.217538E-19
4.178995E+03	2.467921E-17	4.202957E-19
4.180153E+03	2.458720E-17	4.186807E-19
4.181312E+03	2.451450E-17	4.173949E-19
4.182470E+03	2.440606E-17	4.155008E-19
4.183628E+03	2.434753E-17	4.144567E-19
4.184786E+03	2.428589E-17	4.133601E-19
4.185944E+03	2.419870E-17	4.118287E-19
4.187103E+03	2.417374E-17	4.113566E-19
4.188261E+03	2.415794E-17	4.110405E-19
4.189420E+03	2.411558E-17	4.102725E-19
4.190578E+03	2.406602E-17	4.093823E-19
4.191735E+03	2.402358E-17	4.086134E-19
4.192894E+03	2.395760E-17	4.074442E-19
4.194052E+03	2.392533E-17	4.068485E-19
4.195211E+03	2.390634E-17	4.064788E-19
4.196369E+03	2.385458E-17	4.055520E-19
4.197528E+03	2.380380E-17	4.046422E-19
4.198686E+03	2.372841E-17	4.033140E-19
4.199843E+03	2.363042E-17	4.016022E-19
4.201002E+03	2.354262E-17	4.000639E-19
4.202160E+03	2.353985E-17	3.999708E-19
4.203319E+03	2.354529E-17	4.000170E-19
4.204477E+03	2.354559E-17	3.999760E-19
4.205636E+03	2.353666E-17	3.997781E-19
4.206794E+03	2.352977E-17	3.996150E-19
4.207951E+03	2.355676E-17	4.000271E-19
4.209110E+03	2.353343E-17	3.995847E-19
4.210268E+03	2.349878E-17	3.989503E-19
4.211427E+03	2.348055E-17	3.985947E-19
4.212585E+03	2.352605E-17	3.993209E-19
4.213744E+03	2.353867E-17	3.994889E-19
4.214901E+03	2.356054E-17	3.998139E-19
4.216059E+03	2.359066E-17	4.002787E-19
4.217218E+03	2.357036E-17	3.998879E-19
4.218376E+03	2.359947E-17	4.003354E-19
4.219535E+03	2.359048E-17	4.001365E-19
4.220693E+03	2.361960E-17	4.005841E-19
4.221852E+03	2.363947E-17	4.008745E-19
4.223009E+03	2.369851E-17	4.018293E-19
4.224167E+03	2.372666E-17	4.022599E-19
4.225326E+03	2.378474E-17	4.031979E-19
4.226484E+03	2.383976E-17	4.040836E-19
4.227643E+03	2.385041E-17	4.042173E-19
4.228801E+03	2.392510E-17	4.054360E-19
4.229959E+03	2.393578E-17	4.055700E-19
4.231117E+03	2.392062E-17	4.052661E-19
4.232275E+03	2.391269E-17	4.050846E-19
4.233434E+03	2.389441E-17	4.047279E-19
4.234592E+03	2.394646E-17	4.055623E-19
4.235751E+03	2.397059E-17	4.059239E-19
4.236909E+03	2.403096E-17	4.068989E-19
