#wls	flux	fluxerr
1.592040E+03	5.699424E-17	4.036843E-18
1.631841E+03	5.785495E-17	4.080189E-18
1.671642E+03	5.874596E-17	4.124690E-18
1.711443E+03	5.966399E-17	4.170061E-18
1.751244E+03	6.060862E-17	4.216213E-18
1.791045E+03	6.157363E-17	4.262660E-18
1.830846E+03	6.252534E-17	4.307027E-18
1.870647E+03	6.344996E-17	4.348350E-18
1.910448E+03	6.431427E-17	4.384357E-18
1.950249E+03	6.508889E-17	4.413090E-18
1.990050E+03	6.576142E-17	4.433782E-18
2.029851E+03	6.637615E-17	4.449489E-18
2.069652E+03	6.705307E-17	4.468245E-18
2.109453E+03	6.798885E-17	4.502974E-18
2.149254E+03	6.940722E-17	4.568045E-18
2.189055E+03	7.141507E-17	4.669794E-18
2.228856E+03	7.396259E-17	4.804163E-18
2.268657E+03	7.689296E-17	4.960240E-18
2.308458E+03	8.003590E-17	5.126508E-18
2.348259E+03	8.327486E-17	5.295152E-18
2.388060E+03	8.655289E-17	5.462330E-18
2.427861E+03	8.985696E-17	5.627052E-18
2.467662E+03	9.321227E-17	5.790724E-18
2.507463E+03	9.664554E-17	5.954790E-18
2.547264E+03	1.001969E-16	6.121451E-18
2.587065E+03	1.038968E-16	6.292239E-18
2.626866E+03	1.077797E-16	6.468838E-18
2.666667E+03	1.118723E-16	6.652380E-18
2.706468E+03	1.162014E-16	6.843944E-18
2.746269E+03	1.207942E-16	7.044540E-18
2.786070E+03	1.256754E-16	7.254950E-18
2.825871E+03	1.308711E-16	7.475966E-18
2.865672E+03	1.364172E-16	7.708831E-18
2.905473E+03	1.423446E-16	7.954411E-18
2.945274E+03	1.487059E-16	8.214654E-18
2.985075E+03	1.555469E-16	8.490963E-18
2.995025E+03	1.573432E-16	8.563015E-18
3.004975E+03	1.591719E-16	8.636098E-18
3.014925E+03	1.610336E-16	8.710235E-18
3.024876E+03	1.629365E-16	8.785841E-18
3.034826E+03	1.648798E-16	8.862845E-18
3.044776E+03	1.668644E-16	8.941274E-18
3.054726E+03	1.688981E-16	9.021519E-18
3.064677E+03	1.709774E-16	9.103359E-18
3.074627E+03	1.731023E-16	9.186771E-18
3.084577E+03	1.752804E-16	9.272120E-18
3.094527E+03	1.775047E-16	9.359011E-18
3.104478E+03	1.797791E-16	9.447621E-18
3.114428E+03	1.821005E-16	9.537751E-18
3.124378E+03	1.844804E-16	9.629973E-18
3.134328E+03	1.869084E-16	9.723707E-18
3.144279E+03	1.893890E-16	9.819154E-18
3.154229E+03	1.919264E-16	9.916499E-18
3.164179E+03	1.945215E-16	1.001575E-17
3.174129E+03	1.971680E-16	1.011655E-17
3.184080E+03	1.998778E-16	1.021947E-17
3.194030E+03	2.026446E-16	1.032415E-17
3.203980E+03	2.054733E-16	1.043080E-17
3.213930E+03	2.083613E-16	1.053925E-17
3.223881E+03	2.113137E-16	1.064971E-17
3.233831E+03	2.143319E-16	1.076220E-17
3.243781E+03	2.174172E-16	1.087677E-17
3.253731E+03	2.205675E-16	1.099325E-17
3.263682E+03	2.237881E-16	1.111186E-17
3.273632E+03	2.270807E-16	1.123264E-17
3.283582E+03	2.304433E-16	1.135544E-17
3.293532E+03	2.338816E-16	1.148049E-17
3.303483E+03	2.373936E-16	1.160764E-17
3.313433E+03	2.409852E-16	1.173714E-17
3.323383E+03	2.446546E-16	1.186884E-17
3.333333E+03	2.484042E-16	1.200280E-17
3.343284E+03	2.522361E-16	1.213906E-17
3.353234E+03	2.561527E-16	1.227769E-17
3.363184E+03	2.601565E-16	1.241874E-17
3.373134E+03	2.642462E-16	1.256210E-17
3.383085E+03	2.684282E-16	1.270800E-17
3.393035E+03	2.726977E-16	1.285616E-17
3.402985E+03	2.770652E-16	1.300700E-17
3.412935E+03	2.815258E-16	1.316023E-17
3.422886E+03	2.860827E-16	1.331593E-17
3.432836E+03	2.907389E-16	1.347417E-17
3.442786E+03	2.954937E-16	1.363485E-17
3.452736E+03	3.003545E-16	1.379823E-17
3.462687E+03	3.053207E-16	1.396422E-17
3.472637E+03	3.103919E-16	1.413272E-17
3.482587E+03	3.155719E-16	1.430382E-17
3.492537E+03	3.208602E-16	1.447743E-17
3.502488E+03	3.262649E-16	1.465383E-17
3.512438E+03	3.317778E-16	1.483256E-17
3.522388E+03	3.374068E-16	1.501391E-17
3.532338E+03	3.431522E-16	1.519780E-17
3.542289E+03	3.490184E-16	1.538434E-17
3.552239E+03	3.550013E-16	1.557325E-17
3.562189E+03	3.611011E-16	1.576446E-17
3.572139E+03	3.673267E-16	1.595828E-17
3.582090E+03	3.736700E-16	1.615425E-17
3.592040E+03	3.801401E-16	1.635268E-17
3.601990E+03	3.867374E-16	1.655349E-17
3.611940E+03	3.934584E-16	1.675644E-17
3.621891E+03	4.003036E-16	1.696146E-17
3.631841E+03	4.072781E-16	1.716866E-17
3.641791E+03	4.143785E-16	1.737781E-17
3.651741E+03	4.216200E-16	1.758944E-17
3.661692E+03	4.290124E-16	1.780385E-17
3.671642E+03	4.365858E-16	1.802218E-17
3.680597E+03	1.404301E-15	5.769060E-17
3.681592E+03	1.398097E-15	5.740485E-17
3.682587E+03	1.391654E-15	5.710956E-17
3.683582E+03	1.384822E-15	5.679859E-17
3.684577E+03	1.377721E-15	5.647688E-17
3.685572E+03	1.370322E-15	5.614326E-17
3.686567E+03	1.362744E-15	5.580265E-17
3.687562E+03	1.354989E-15	5.545511E-17
3.688557E+03	1.347026E-15	5.509938E-17
3.689552E+03	1.338885E-15	5.473672E-17
3.690547E+03	1.330717E-15	5.437331E-17
3.691542E+03	1.322281E-15	5.399934E-17
3.692537E+03	1.313428E-15	5.360869E-17
3.693532E+03	1.304487E-15	5.321484E-17
3.694527E+03	1.295521E-15	5.282033E-17
3.695522E+03	1.286347E-15	5.241775E-17
3.696517E+03	1.276906E-15	5.200471E-17
3.697512E+03	1.267379E-15	5.158856E-17
3.698507E+03	1.257644E-15	5.116438E-17
3.699502E+03	1.247734E-15	5.073350E-17
3.700498E+03	1.237798E-15	5.030196E-17
3.701493E+03	1.227926E-15	4.987347E-17
3.702488E+03	1.218027E-15	4.944433E-17
3.703483E+03	1.208072E-15	4.901338E-17
3.704478E+03	1.197911E-15	4.857448E-17
3.705473E+03	1.187634E-15	4.813132E-17
3.706468E+03	1.177392E-15	4.769002E-17
3.707463E+03	1.166973E-15	4.724201E-17
3.708458E+03	1.156259E-15	4.678251E-17
3.709453E+03	1.145099E-15	4.630546E-17
3.710448E+03	1.133344E-15	4.580483E-17
3.711443E+03	1.121023E-15	4.528188E-17
3.712438E+03	1.108497E-15	4.475121E-17
3.713433E+03	1.096128E-15	4.422737E-17
3.714428E+03	1.084122E-15	4.371876E-17
3.715423E+03	1.072361E-15	4.322053E-17
3.716418E+03	1.060664E-15	4.272541E-17
3.717413E+03	1.048913E-15	4.222862E-17
3.718408E+03	1.036957E-15	4.172410E-17
3.719403E+03	1.024646E-15	4.120583E-17
3.720398E+03	1.012280E-15	4.068592E-17
3.721393E+03	1.000130E-15	4.017518E-17
3.722388E+03	9.881633E-16	3.967237E-17
3.723383E+03	9.763213E-16	3.917509E-17
3.724378E+03	9.645439E-16	3.868093E-17
3.725373E+03	9.527718E-16	3.818749E-17
3.726368E+03	9.409740E-16	3.769355E-17
3.727363E+03	9.291512E-16	3.719913E-17
3.728358E+03	9.173937E-16	3.670784E-17
3.729353E+03	9.058796E-16	3.622681E-17
3.730348E+03	8.947280E-16	3.576078E-17
3.731343E+03	8.837911E-16	3.530382E-17
3.732338E+03	8.729473E-16	3.485106E-17
3.733333E+03	8.622583E-16	3.440495E-17
3.734328E+03	8.516329E-16	3.396186E-17
3.735323E+03	8.410413E-16	3.352059E-17
3.736318E+03	8.307825E-16	3.309304E-17
3.737313E+03	8.209455E-16	3.268274E-17
3.738308E+03	8.114107E-16	3.228491E-17
3.739303E+03	8.021183E-16	3.189713E-17
3.740299E+03	7.929490E-16	3.151466E-17
3.741294E+03	7.839026E-16	3.113748E-17
3.742289E+03	7.749494E-16	3.076440E-17
3.743284E+03	7.661488E-16	3.039777E-17
3.744279E+03	7.575900E-16	3.004113E-17
3.745274E+03	7.492730E-16	2.969444E-17
3.746269E+03	7.410784E-16	2.935298E-17
3.747264E+03	7.328575E-16	2.901084E-17
3.748259E+03	7.247590E-16	2.867390E-17
3.749254E+03	7.169613E-16	2.834922E-17
3.750249E+03	7.093454E-16	2.803207E-17
3.751244E+03	7.019109E-16	2.772243E-17
3.752239E+03	6.948066E-16	2.742615E-17
3.753234E+03	6.879430E-16	2.713968E-17
3.754229E+03	6.813795E-16	2.686535E-17
3.755224E+03	6.750860E-16	2.660195E-17
3.756219E+03	6.690923E-16	2.635064E-17
3.757214E+03	6.634871E-16	2.611488E-17
3.758209E+03	6.582109E-16	2.589232E-17
3.759204E+03	6.531446E-16	2.567825E-17
3.760199E+03	6.482289E-16	2.547031E-17
3.761194E+03	6.434338E-16	2.526734E-17
3.762189E+03	6.388485E-16	2.507280E-17
3.763184E+03	6.345616E-16	2.489018E-17
3.764179E+03	6.306027E-16	2.472060E-17
3.765174E+03	6.271199E-16	2.456985E-17
3.766169E+03	6.239943E-16	2.443324E-17
3.767164E+03	6.209588E-16	2.430030E-17
3.768159E+03	6.179245E-16	2.416754E-17
3.769154E+03	6.148026E-16	2.403148E-17
3.770149E+03	6.117412E-16	2.389793E-17
3.771144E+03	6.089476E-16	2.377497E-17
3.772139E+03	6.063920E-16	2.366141E-17
3.773134E+03	6.042518E-16	2.356417E-17
3.774129E+03	6.025565E-16	2.348436E-17
3.775124E+03	6.009801E-16	2.340926E-17
3.776119E+03	5.993452E-16	2.333195E-17
3.777114E+03	5.979476E-16	2.326394E-17
3.778109E+03	5.967871E-16	2.320521E-17
3.779104E+03	5.957454E-16	2.315114E-17
3.780100E+03	5.952656E-16	2.311894E-17
3.781095E+03	5.952883E-16	2.310626E-17
3.782090E+03	5.964634E-16	2.313829E-17
3.783085E+03	5.989968E-16	2.322291E-17
3.784080E+03	6.016767E-16	2.331310E-17
3.785075E+03	6.040603E-16	2.339168E-17
3.786070E+03	6.065313E-16	2.347354E-17
3.787065E+03	6.086766E-16	2.354267E-17
3.788060E+03	6.098471E-16	2.357403E-17
3.789055E+03	6.102794E-16	2.357681E-17
3.790050E+03	6.105642E-16	2.357387E-17
3.791045E+03	6.108192E-16	2.356976E-17
3.792040E+03	6.113689E-16	2.357701E-17
3.793035E+03	6.123016E-16	2.359898E-17
3.794030E+03	6.137054E-16	2.363906E-17
3.795025E+03	6.158157E-16	2.370626E-17
3.796020E+03	6.185143E-16	2.379600E-17
3.797015E+03	6.214769E-16	2.389576E-17
3.798010E+03	6.246442E-16	2.400325E-17
3.799005E+03	6.282519E-16	2.412750E-17
3.800000E+03	6.317990E-16	2.424926E-17
3.800995E+03	6.355213E-16	2.437756E-17
3.801990E+03	6.394479E-16	2.451353E-17
3.802985E+03	6.439022E-16	2.466953E-17
3.803980E+03	6.488841E-16	2.484553E-17
3.804975E+03	6.539226E-16	2.502346E-17
3.805970E+03	6.589883E-16	2.520219E-17
3.806965E+03	6.640812E-16	2.538173E-17
3.807960E+03	6.691426E-16	2.555982E-17
3.808955E+03	6.746131E-16	2.575329E-17
3.809950E+03	6.807862E-16	2.597332E-17
3.810945E+03	6.865456E-16	2.617728E-17
3.811940E+03	6.918620E-16	2.636410E-17
3.812935E+03	6.969120E-16	2.654052E-17
3.813930E+03	7.012848E-16	2.669093E-17
3.814925E+03	7.050688E-16	2.681873E-17
3.815920E+03	7.089685E-16	2.695076E-17
3.816915E+03	7.131305E-16	2.709257E-17
3.817910E+03	7.175546E-16	2.724414E-17
3.818905E+03	7.225925E-16	2.741878E-17
3.819900E+03	7.283609E-16	2.762090E-17
3.820896E+03	7.345373E-16	2.783820E-17
3.821891E+03	7.411211E-16	2.807065E-17
3.822886E+03	7.479364E-16	2.831155E-17
3.823881E+03	7.543094E-16	2.853540E-17
3.824876E+03	7.603284E-16	2.874557E-17
3.825871E+03	7.667254E-16	2.896974E-17
3.826866E+03	7.730318E-16	2.919018E-17
3.827861E+03	7.793647E-16	2.941134E-17
3.828856E+03	7.856657E-16	2.963099E-17
3.829851E+03	7.921688E-16	2.985796E-17
3.830846E+03	7.987567E-16	3.008783E-17
3.831841E+03	8.056342E-16	3.032828E-17
3.832836E+03	8.127426E-16	3.057710E-17
3.833831E+03	8.199648E-16	3.082987E-17
3.834826E+03	8.271839E-16	3.108218E-17
3.835821E+03	8.346628E-16	3.134391E-17
3.836816E+03	8.427518E-16	3.162818E-17
3.837811E+03	8.514510E-16	3.193496E-17
3.838806E+03	8.609340E-16	3.227071E-17
3.839801E+03	8.711426E-16	3.263320E-17
3.840796E+03	8.820188E-16	3.302021E-17
3.841791E+03	8.932109E-16	3.341852E-17
3.842786E+03	9.046018E-16	3.382375E-17
3.843781E+03	9.166880E-16	3.425442E-17
3.844776E+03	9.292360E-16	3.470177E-17
3.845771E+03	9.418074E-16	3.514941E-17
3.846766E+03	9.544326E-16	3.559847E-17
3.847761E+03	9.671099E-16	3.604888E-17
3.848756E+03	9.793444E-16	3.648220E-17
3.849751E+03	9.913993E-16	3.690826E-17
3.850746E+03	1.003100E-15	3.732057E-17
3.851741E+03	1.014417E-15	3.771807E-17
3.852736E+03	1.026194E-15	3.813213E-17
3.853731E+03	1.038403E-15	3.856170E-17
3.854726E+03	1.050666E-15	3.899265E-17
3.855721E+03	1.063621E-15	3.944872E-17
3.856716E+03	1.077094E-15	3.992339E-17
3.857711E+03	1.090270E-15	4.038644E-17
3.858706E+03	1.103237E-15	4.084111E-17
3.859701E+03	1.116402E-15	4.130250E-17
3.860697E+03	1.129504E-15	4.176093E-17
3.861692E+03	1.142484E-15	4.221425E-17
3.862687E+03	1.155515E-15	4.266885E-17
3.863682E+03	1.168717E-15	4.312912E-17
3.864677E+03	1.181795E-15	4.358422E-17
3.865672E+03	1.194753E-15	4.403426E-17
3.866667E+03	1.207821E-15	4.448775E-17
3.867662E+03	1.220912E-15	4.494148E-17
3.868657E+03	1.234055E-15	4.539652E-17
3.869652E+03	1.247251E-15	4.585285E-17
3.870647E+03	1.260818E-15	4.632221E-17
3.871642E+03	1.274583E-15	4.679819E-17
3.872637E+03	1.288428E-15	4.727646E-17
3.873632E+03	1.302441E-15	4.776025E-17
3.874627E+03	1.317057E-15	4.826546E-17
3.875622E+03	1.331812E-15	4.877506E-17
3.876617E+03	1.346907E-15	4.929642E-17
3.877612E+03	1.362141E-15	4.982215E-17
3.878607E+03	1.377367E-15	5.034690E-17
3.879602E+03	1.392328E-15	5.086120E-17
3.880597E+03	1.407079E-15	5.136717E-17
3.881592E+03	1.421737E-15	5.186901E-17
3.882587E+03	1.436417E-15	5.237099E-17
3.883582E+03	1.451208E-15	5.287629E-17
3.884577E+03	1.466136E-15	5.338588E-17
3.885572E+03	1.481520E-15	5.391138E-17
3.886567E+03	1.496956E-15	5.443802E-17
3.887562E+03	1.512038E-15	5.495110E-17
3.888557E+03	1.526766E-15	5.545059E-17
3.889552E+03	1.541229E-15	5.593975E-17
3.890547E+03	1.555253E-15	5.641230E-17
3.891542E+03	1.569068E-15	5.687663E-17
3.892537E+03	1.583339E-15	5.735681E-17
3.893532E+03	1.597489E-15	5.783192E-17
3.894527E+03	1.611315E-15	5.829465E-17
3.895522E+03	1.624875E-15	5.874712E-17
3.896517E+03	1.638142E-15	5.918831E-17
3.897512E+03	1.650998E-15	5.961409E-17
3.898507E+03	1.663821E-15	6.003800E-17
3.899502E+03	1.676552E-15	6.045801E-17
3.900498E+03	1.689046E-15	6.086889E-17
3.901493E+03	1.701276E-15	6.126966E-17
3.902488E+03	1.713212E-15	6.165927E-17
3.903483E+03	1.724683E-15	6.203157E-17
3.904478E+03	1.735976E-15	6.239694E-17
3.905473E+03	1.746919E-15	6.274917E-17
3.906468E+03	1.757166E-15	6.307592E-17
3.907463E+03	1.766863E-15	6.338241E-17
3.908458E+03	1.776324E-15	6.368001E-17
3.909453E+03	1.785724E-15	6.397498E-17
3.910448E+03	1.795265E-15	6.427451E-17
3.911443E+03	1.805174E-15	6.458678E-17
3.912438E+03	1.815050E-15	6.489736E-17
3.913433E+03	1.824606E-15	6.519607E-17
3.914428E+03	1.833669E-15	6.547671E-17
3.915423E+03	1.842471E-15	6.574756E-17
3.916418E+03	1.851182E-15	6.601477E-17
3.917413E+03	1.859917E-15	6.628244E-17
3.918408E+03	1.868621E-15	6.654854E-17
3.919403E+03	1.877263E-15	6.681203E-17
3.920398E+03	1.885730E-15	6.706888E-17
3.921393E+03	1.893619E-15	6.730477E-17
3.922388E+03	1.901016E-15	6.752283E-17
3.923383E+03	1.908296E-15	6.773635E-17
3.924378E+03	1.915315E-15	6.794025E-17
3.925373E+03	1.921786E-15	6.812443E-17
3.926368E+03	1.928283E-15	6.830916E-17
3.927363E+03	1.934835E-15	6.849554E-17
3.928358E+03	1.941125E-15	6.867236E-17
3.929353E+03	1.947298E-15	6.884471E-17
3.930348E+03	1.953355E-15	6.901265E-17
3.931343E+03	1.959036E-15	6.916703E-17
3.932338E+03	1.964400E-15	6.930995E-17
3.933333E+03	1.969504E-15	6.944344E-17
3.934328E+03	1.974520E-15	6.957359E-17
3.935323E+03	1.979276E-15	6.969432E-17
3.936318E+03	1.983516E-15	6.979666E-17
3.937313E+03	1.987696E-15	6.989670E-17
3.938308E+03	1.991789E-15	6.999344E-17
3.939303E+03	1.995651E-15	7.008190E-17
3.940299E+03	1.999740E-15	7.017812E-17
3.941294E+03	2.003999E-15	7.028007E-17
3.942289E+03	2.008227E-15	7.038076E-17
3.943284E+03	2.012367E-15	7.047816E-17
3.944279E+03	2.016278E-15	7.056732E-17
3.945274E+03	2.019702E-15	7.063925E-17
3.946269E+03	2.022724E-15	7.069697E-17
3.947264E+03	2.025375E-15	7.074156E-17
3.948259E+03	2.028052E-15	7.078693E-17
3.949254E+03	2.030529E-15	7.082520E-17
3.950249E+03	2.032805E-15	7.085633E-17
3.951244E+03	2.035279E-15	7.089424E-17
3.952239E+03	2.037781E-15	7.093300E-17
3.953234E+03	2.039968E-15	7.096067E-17
3.954229E+03	2.041869E-15	7.097830E-17
3.955224E+03	2.043655E-15	7.099183E-17
3.956219E+03	2.045242E-15	7.099833E-17
3.957214E+03	2.046401E-15	7.098991E-17
3.958209E+03	2.047074E-15	7.096460E-17
3.959204E+03	2.047520E-15	7.093138E-17
3.960199E+03	2.047738E-15	7.089023E-17
3.961194E+03	2.047843E-15	7.084513E-17
3.962189E+03	2.047919E-15	7.079903E-17
3.963184E+03	2.047909E-15	7.074995E-17
3.964179E+03	2.047501E-15	7.068713E-17
3.965174E+03	2.046524E-15	7.060469E-17
3.966169E+03	2.044924E-15	7.050079E-17
3.967164E+03	2.042983E-15	7.038522E-17
3.968159E+03	2.040986E-15	7.026778E-17
3.969154E+03	2.039159E-15	7.015633E-17
3.970149E+03	2.037448E-15	7.004889E-17
3.971144E+03	2.035765E-15	6.994251E-17
3.972139E+03	2.033969E-15	6.983233E-17
3.973134E+03	2.032061E-15	6.971836E-17
3.974129E+03	2.029926E-15	6.959670E-17
3.975124E+03	2.027962E-15	6.948100E-17
3.976119E+03	2.026055E-15	6.936735E-17
3.977114E+03	2.023782E-15	6.924123E-17
3.978109E+03	2.021140E-15	6.910261E-17
3.979104E+03	2.018357E-15	6.895929E-17
3.980100E+03	2.014981E-15	6.879585E-17
3.981095E+03	2.011266E-15	6.862101E-17
3.982090E+03	2.007752E-15	6.845315E-17
3.983085E+03	2.004097E-15	6.828066E-17
3.984080E+03	2.000075E-15	6.809587E-17
3.985075E+03	1.995885E-15	6.790553E-17
3.986070E+03	1.991499E-15	6.770872E-17
3.987065E+03	1.986662E-15	6.749680E-17
3.988060E+03	1.981771E-15	6.728324E-17
3.989055E+03	1.976797E-15	6.706709E-17
3.990050E+03	1.971767E-15	6.684932E-17
3.991045E+03	1.966797E-15	6.663378E-17
3.992040E+03	1.961716E-15	6.641471E-17
3.993035E+03	1.956524E-15	6.619212E-17
3.994030E+03	1.951616E-15	6.597939E-17
3.995025E+03	1.946485E-15	6.575933E-17
3.996020E+03	1.940904E-15	6.552432E-17
3.997015E+03	1.934986E-15	6.527822E-17
3.998010E+03	1.928817E-15	6.502393E-17
3.999005E+03	1.922087E-15	6.475100E-17
4.000000E+03	1.915330E-15	6.447751E-17
4.000995E+03	1.908549E-15	6.420350E-17
4.001990E+03	1.901629E-15	6.392516E-17
4.002985E+03	1.894797E-15	6.365009E-17
4.003980E+03	1.888136E-15	6.338109E-17
4.004975E+03	1.881338E-15	6.310779E-17
4.005970E+03	1.874683E-15	6.283962E-17
4.006965E+03	1.868087E-15	6.257374E-17
4.007960E+03	1.861100E-15	6.229506E-17
4.008955E+03	1.853440E-15	6.199421E-17
4.009950E+03	1.845389E-15	6.168065E-17
4.010945E+03	1.837059E-15	6.135817E-17
4.011940E+03	1.828678E-15	6.103433E-17
4.012935E+03	1.820496E-15	6.071759E-17
4.013930E+03	1.812600E-15	6.041072E-17
4.014925E+03	1.804903E-15	6.011087E-17
4.015920E+03	1.797266E-15	5.981336E-17
4.016915E+03	1.789688E-15	5.951819E-17
4.017910E+03	1.782001E-15	5.921975E-17
4.018905E+03	1.774064E-15	5.891337E-17
4.019900E+03	1.765793E-15	5.859629E-17
4.020896E+03	1.757049E-15	5.826392E-17
4.021891E+03	1.747634E-15	5.790971E-17
4.022886E+03	1.737578E-15	5.753474E-17
4.023881E+03	1.727105E-15	5.714644E-17
4.024876E+03	1.716497E-15	5.675417E-17
4.025871E+03	1.705752E-15	5.635789E-17
4.026866E+03	1.694815E-15	5.595579E-17
4.027861E+03	1.684051E-15	5.555991E-17
4.028856E+03	1.673349E-15	5.516656E-17
4.029851E+03	1.662650E-15	5.477385E-17
4.030846E+03	1.651929E-15	5.438089E-17
4.031841E+03	1.641658E-15	5.400330E-17
4.032836E+03	1.632094E-15	5.364940E-17
4.033831E+03	1.623261E-15	5.331997E-17
4.034826E+03	1.615048E-15	5.301132E-17
4.035821E+03	1.607678E-15	5.273068E-17
4.036816E+03	1.600646E-15	5.246152E-17
4.037811E+03	1.593451E-15	5.218732E-17
4.038806E+03	1.585670E-15	5.189430E-17
4.039801E+03	1.577166E-15	5.157796E-17
4.040796E+03	1.567882E-15	5.123660E-17
4.041791E+03	1.558463E-15	5.089123E-17
4.042786E+03	1.548879E-15	5.054095E-17
4.043781E+03	1.539244E-15	5.018946E-17
4.044776E+03	1.529780E-15	4.984400E-17
4.045771E+03	1.520432E-15	4.950277E-17
4.046766E+03	1.511200E-15	4.916575E-17
4.047761E+03	1.502056E-15	4.883202E-17
4.048756E+03	1.492971E-15	4.850067E-17
4.049751E+03	1.484168E-15	4.817891E-17
4.050746E+03	1.475482E-15	4.786135E-17
4.051741E+03	1.466715E-15	4.754158E-17
4.052736E+03	1.457868E-15	4.721964E-17
4.053731E+03	1.449164E-15	4.690276E-17
4.054726E+03	1.440325E-15	4.658191E-17
4.055721E+03	1.431684E-15	4.626791E-17
4.056716E+03	1.423103E-15	4.595623E-17
4.057711E+03	1.414581E-15	4.564689E-17
4.058706E+03	1.406118E-15	4.533986E-17
4.059701E+03	1.397993E-15	4.504409E-17
4.060697E+03	1.389927E-15	4.475064E-17
4.061692E+03	1.381725E-15	4.445321E-17
4.062687E+03	1.373611E-15	4.415897E-17
4.063682E+03	1.365639E-15	4.386969E-17
4.064677E+03	1.357670E-15	4.358089E-17
4.065672E+03	1.350010E-15	4.330240E-17
4.066667E+03	1.342993E-15	4.304487E-17
4.067662E+03	1.336230E-15	4.279580E-17
4.068657E+03	1.329801E-15	4.255778E-17
4.069652E+03	1.324072E-15	4.234241E-17
4.070647E+03	1.318678E-15	4.213804E-17
4.071642E+03	1.313453E-15	4.193931E-17
4.072637E+03	1.308895E-15	4.176215E-17
4.073632E+03	1.304951E-15	4.160475E-17
4.074627E+03	1.300815E-15	4.144143E-17
4.075622E+03	1.296597E-15	4.127567E-17
4.076617E+03	1.292408E-15	4.111106E-17
4.077612E+03	1.288249E-15	4.094761E-17
4.078607E+03	1.284091E-15	4.078438E-17
4.079602E+03	1.280462E-15	4.063815E-17
4.080597E+03	1.277417E-15	4.051057E-17
4.081592E+03	1.274733E-15	4.039462E-17
4.082587E+03	1.272217E-15	4.028410E-17
4.083582E+03	1.269812E-15	4.017722E-17
4.084577E+03	1.267464E-15	4.007224E-17
