#wls	flux	fluxerr
1.592040E+03	3.960453E-17	4.053582E-18
1.631841E+03	3.992127E-17	4.071945E-18
1.671642E+03	4.024306E-17	4.090231E-18
1.711443E+03	4.056613E-17	4.108037E-18
1.751244E+03	4.089405E-17	4.125704E-18
1.791045E+03	4.121881E-17	4.142405E-18
1.830846E+03	4.152840E-17	4.156923E-18
1.870647E+03	4.181143E-17	4.168124E-18
1.910448E+03	4.204625E-17	4.173873E-18
1.950249E+03	4.222226E-17	4.173170E-18
1.990050E+03	4.234251E-17	4.166375E-18
2.029851E+03	4.243145E-17	4.155945E-18
2.069652E+03	4.258428E-17	4.151190E-18
2.109453E+03	4.293173E-17	4.164691E-18
2.149254E+03	4.362387E-17	4.210634E-18
2.189055E+03	4.474189E-17	4.296281E-18
2.228856E+03	4.628350E-17	4.420727E-18
2.268657E+03	4.818361E-17	4.577078E-18
2.308458E+03	5.034644E-17	4.755646E-18
2.348259E+03	5.269293E-17	4.948494E-18
2.388060E+03	5.517482E-17	5.150720E-18
2.427861E+03	5.778353E-17	5.361190E-18
2.467662E+03	6.052983E-17	5.580570E-18
2.507463E+03	6.343286E-17	5.810250E-18
2.547264E+03	6.651563E-17	6.051915E-18
2.587065E+03	6.980265E-17	6.307312E-18
2.626866E+03	7.331904E-17	6.578162E-18
2.666667E+03	7.709052E-17	6.866159E-18
2.706468E+03	8.113393E-17	7.172117E-18
2.746269E+03	8.547696E-17	7.497736E-18
2.786070E+03	9.013914E-17	7.843902E-18
2.825871E+03	9.513315E-17	8.210825E-18
2.865672E+03	1.004835E-16	8.599663E-18
2.905473E+03	1.062276E-16	9.012560E-18
2.945274E+03	1.124500E-16	9.455487E-18
2.985075E+03	1.192494E-16	9.935295E-18
2.995025E+03	1.210545E-16	1.006207E-17
3.004975E+03	1.229042E-16	1.019172E-17
3.014925E+03	1.248022E-16	1.032453E-17
3.024876E+03	1.267496E-16	1.046053E-17
3.034826E+03	1.287485E-16	1.059990E-17
3.044776E+03	1.308033E-16	1.074292E-17
3.054726E+03	1.329205E-16	1.089012E-17
3.064677E+03	1.350974E-16	1.104121E-17
3.074627E+03	1.373406E-16	1.119669E-17
3.084577E+03	1.396475E-16	1.135632E-17
3.094527E+03	1.420250E-16	1.152060E-17
3.104478E+03	1.444707E-16	1.168928E-17
3.114428E+03	1.469916E-16	1.186289E-17
3.124378E+03	1.495854E-16	1.204118E-17
3.134328E+03	1.522563E-16	1.222444E-17
3.144279E+03	1.550084E-16	1.241294E-17
3.154229E+03	1.578398E-16	1.260646E-17
3.164179E+03	1.607580E-16	1.280556E-17
3.174129E+03	1.637644E-16	1.301027E-17
3.184080E+03	1.668604E-16	1.322065E-17
3.194030E+03	1.700508E-16	1.343700E-17
3.203980E+03	1.733373E-16	1.365939E-17
3.213930E+03	1.767249E-16	1.388814E-17
3.223881E+03	1.802155E-16	1.412333E-17
3.233831E+03	1.838111E-16	1.436503E-17
3.243781E+03	1.875172E-16	1.461360E-17
3.253731E+03	1.913394E-16	1.486939E-17
3.263682E+03	1.952769E-16	1.513224E-17
3.273632E+03	1.993323E-16	1.540227E-17
3.283582E+03	2.035148E-16	1.568011E-17
3.293532E+03	2.078243E-16	1.596564E-17
3.303483E+03	2.122671E-16	1.625925E-17
3.313433E+03	2.168465E-16	1.656109E-17
3.323383E+03	2.215628E-16	1.687107E-17
3.333333E+03	2.264228E-16	1.718962E-17
3.343284E+03	2.314338E-16	1.751718E-17
3.353234E+03	2.365934E-16	1.785342E-17
3.363184E+03	2.419090E-16	1.819882E-17
3.373134E+03	2.473853E-16	1.855359E-17
3.383085E+03	2.530271E-16	1.891797E-17
3.393035E+03	2.588326E-16	1.929168E-17
3.402985E+03	2.648140E-16	1.967552E-17
3.412935E+03	2.709698E-16	2.006922E-17
3.422886E+03	2.773025E-16	2.047284E-17
3.432836E+03	2.838216E-16	2.088693E-17
3.442786E+03	2.905230E-16	2.131103E-17
3.452736E+03	2.974131E-16	2.174549E-17
3.462687E+03	3.044954E-16	2.219039E-17
3.472637E+03	3.117700E-16	2.264557E-17
3.482587E+03	3.192369E-16	2.311091E-17
3.492537E+03	3.268965E-16	2.358625E-17
3.502488E+03	3.347383E-16	2.407069E-17
3.512438E+03	3.427664E-16	2.456437E-17
3.522388E+03	3.509740E-16	2.506665E-17
3.532338E+03	3.593467E-16	2.557634E-17
3.542289E+03	3.678733E-16	2.609253E-17
3.552239E+03	3.765463E-16	2.661453E-17
3.562189E+03	3.853462E-16	2.714086E-17
3.572139E+03	3.942567E-16	2.767025E-17
3.582090E+03	4.032648E-16	2.820169E-17
3.592040E+03	4.123526E-16	2.873384E-17
3.601990E+03	4.215213E-16	2.926670E-17
3.611940E+03	4.307637E-16	2.979969E-17
3.621891E+03	4.400881E-16	3.033332E-17
3.631841E+03	4.494902E-16	3.086721E-17
3.641791E+03	4.589734E-16	3.140150E-17
3.651741E+03	4.685447E-16	3.193661E-17
3.661692E+03	4.782021E-16	3.247230E-17
3.671642E+03	4.879556E-16	3.300916E-17
3.681592E+03	4.978017E-16	3.354689E-17
3.691542E+03	5.077404E-16	3.408537E-17
3.701493E+03	5.177793E-16	3.462503E-17
3.711443E+03	5.279162E-16	3.516563E-17
3.721393E+03	5.381523E-16	3.570716E-17
3.731343E+03	5.484831E-16	3.624923E-17
3.741294E+03	5.589072E-16	3.679165E-17
3.751244E+03	5.694218E-16	3.733415E-17
3.761194E+03	5.800131E-16	3.787574E-17
3.771144E+03	5.906848E-16	3.841660E-17
3.781095E+03	6.014246E-16	3.895585E-17
3.791045E+03	6.122185E-16	3.949251E-17
3.800995E+03	6.230604E-16	4.002616E-17
3.810945E+03	6.339336E-16	4.055565E-17
3.820896E+03	6.448226E-16	4.107997E-17
3.830846E+03	6.557079E-16	4.159787E-17
3.840796E+03	6.665769E-16	4.210853E-17
3.850746E+03	6.774055E-16	4.261046E-17
3.860697E+03	6.881749E-16	4.310250E-17
3.870647E+03	6.988637E-16	4.358335E-17
3.880597E+03	7.094443E-16	4.405138E-17
3.890547E+03	7.198954E-16	4.450533E-17
3.900498E+03	7.301944E-16	4.494392E-17
3.910448E+03	7.403187E-16	4.536590E-17
3.920398E+03	7.502338E-16	4.576931E-17
3.930348E+03	7.599310E-16	4.615379E-17
3.940299E+03	7.693703E-16	4.651709E-17
3.950249E+03	7.785452E-16	4.685905E-17
3.960199E+03	7.874244E-16	4.717802E-17
3.970149E+03	7.959922E-16	4.747331E-17
3.980100E+03	8.042273E-16	4.774392E-17
3.990050E+03	8.121237E-16	4.798979E-17
4.000000E+03	8.196533E-16	4.820955E-17
4.009950E+03	8.268202E-16	4.840375E-17
4.019900E+03	8.336016E-16	4.857140E-17
4.029851E+03	8.400017E-16	4.871305E-17
4.039801E+03	8.460149E-16	4.882874E-17
4.049751E+03	8.516454E-16	4.891903E-17
4.059701E+03	8.568790E-16	4.898346E-17
4.069652E+03	8.617389E-16	4.902369E-17
4.079602E+03	8.662235E-16	4.903997E-17
4.089552E+03	8.703396E-16	4.903302E-17
4.099502E+03	8.741047E-16	4.900415E-17
4.109453E+03	8.775309E-16	4.895435E-17
4.119403E+03	8.806304E-16	4.888462E-17
4.129353E+03	8.834339E-16	4.879693E-17
4.139303E+03	8.859444E-16	4.869175E-17
4.149254E+03	8.881924E-16	4.857101E-17
4.159204E+03	8.901991E-16	4.843610E-17
4.169154E+03	8.919823E-16	4.828823E-17
4.179104E+03	8.935782E-16	4.812957E-17
4.189055E+03	8.949997E-16	4.796100E-17
4.199005E+03	8.962822E-16	4.778458E-17
4.208955E+03	8.974401E-16	4.760123E-17
4.218905E+03	8.985142E-16	4.741324E-17
4.228856E+03	8.995251E-16	4.722181E-17
4.238806E+03	9.004994E-16	4.702841E-17
4.248756E+03	9.014640E-16	4.683451E-17
4.258706E+03	9.024492E-16	4.664173E-17
4.268657E+03	9.034807E-16	4.645141E-17
4.278607E+03	9.045870E-16	4.626503E-17
4.288557E+03	9.057825E-16	4.608329E-17
4.298507E+03	9.071077E-16	4.590823E-17
4.308458E+03	9.085659E-16	4.573995E-17
4.318408E+03	9.101808E-16	4.557959E-17
4.328358E+03	9.119719E-16	4.542804E-17
4.338308E+03	9.139369E-16	4.528511E-17
4.348259E+03	9.160915E-16	4.515148E-17
4.358209E+03	9.184272E-16	4.502665E-17
4.368159E+03	9.209312E-16	4.490992E-17
4.378109E+03	9.235968E-16	4.480088E-17
4.388060E+03	9.264055E-16	4.469859E-17
4.398010E+03	9.293359E-16	4.460198E-17
4.407960E+03	9.323618E-16	4.450977E-17
4.417910E+03	9.354635E-16	4.442102E-17
4.427861E+03	9.386001E-16	4.433382E-17
4.437811E+03	9.417361E-16	4.424654E-17
4.447761E+03	9.448560E-16	4.415855E-17
4.457711E+03	9.479024E-16	4.406727E-17
4.467662E+03	9.508454E-16	4.397145E-17
4.477612E+03	9.536375E-16	4.386905E-17
4.487562E+03	9.562462E-16	4.375879E-17
4.497512E+03	9.586193E-16	4.363852E-17
4.507463E+03	9.607218E-16	4.350688E-17
4.517413E+03	9.625000E-16	4.336175E-17
4.527363E+03	9.639106E-16	4.320150E-17
4.537313E+03	9.649180E-16	4.302487E-17
4.547264E+03	9.654722E-16	4.283000E-17
4.557214E+03	9.655508E-16	4.261630E-17
4.567164E+03	9.651004E-16	4.238182E-17
4.577114E+03	9.640978E-16	4.212597E-17
4.587065E+03	9.625150E-16	4.184797E-17
4.597015E+03	9.603300E-16	4.154730E-17
4.606965E+03	9.575267E-16	4.122372E-17
4.616915E+03	9.540953E-16	4.087726E-17
4.626866E+03	9.500171E-16	4.050757E-17
4.636816E+03	9.453049E-16	4.011561E-17
4.646766E+03	9.399727E-16	3.970241E-17
4.656716E+03	9.340162E-16	3.926817E-17
4.666667E+03	9.274733E-16	3.881488E-17
4.676617E+03	9.203730E-16	3.834409E-17
4.686567E+03	9.127756E-16	3.785861E-17
4.696517E+03	9.047494E-16	3.736155E-17
4.706468E+03	8.963604E-16	3.685583E-17
4.716418E+03	8.876888E-16	3.634492E-17
4.726368E+03	8.787965E-16	3.583146E-17
4.736318E+03	8.697721E-16	3.531913E-17
4.746269E+03	8.606931E-16	3.481109E-17
4.756219E+03	8.516460E-16	3.431083E-17
4.766169E+03	8.427125E-16	3.382155E-17
4.776119E+03	8.339798E-16	3.334664E-17
4.786070E+03	8.255344E-16	3.288942E-17
4.796020E+03	8.174403E-16	3.245225E-17
4.805970E+03	8.097853E-16	3.203840E-17
4.815920E+03	8.026327E-16	3.165013E-17
4.825871E+03	7.960595E-16	3.129020E-17
4.835821E+03	7.900995E-16	3.095966E-17
4.845771E+03	7.848168E-16	3.066073E-17
4.855721E+03	7.802360E-16	3.039410E-17
4.865672E+03	7.763682E-16	3.015993E-17
4.875622E+03	7.732290E-16	2.995851E-17
4.885572E+03	7.708165E-16	2.978946E-17
4.895522E+03	7.691260E-16	2.965226E-17
4.905473E+03	7.681392E-16	2.954592E-17
4.915423E+03	7.678521E-16	2.947000E-17
4.925373E+03	7.682504E-16	2.942369E-17
4.935323E+03	7.693044E-16	2.940563E-17
4.945274E+03	7.710202E-16	2.941583E-17
4.955224E+03	7.733606E-16	2.945266E-17
4.965174E+03	7.763228E-16	2.951585E-17
4.975124E+03	7.798835E-16	2.960434E-17
4.985075E+03	7.840258E-16	2.971734E-17
4.995025E+03	7.887264E-16	2.985382E-17
5.004975E+03	7.939820E-16	3.001355E-17
5.014925E+03	7.997607E-16	3.019519E-17
5.024876E+03	8.060450E-16	3.039798E-17
5.034826E+03	8.128236E-16	3.062141E-17
5.044776E+03	8.200788E-16	3.086473E-17
5.054726E+03	8.277748E-16	3.112651E-17
5.064677E+03	8.359079E-16	3.140654E-17
5.074627E+03	8.444401E-16	3.170333E-17
5.084577E+03	8.533580E-16	3.201633E-17
5.094527E+03	8.626390E-16	3.234462E-17
5.104478E+03	8.722578E-16	3.268721E-17
5.114428E+03	8.821823E-16	3.304284E-17
5.124378E+03	8.923851E-16	3.341046E-17
5.134328E+03	9.028384E-16	3.378897E-17
5.144279E+03	9.135144E-16	3.417729E-17
5.154229E+03	9.243826E-16	3.457423E-17
5.164179E+03	9.354129E-16	3.497864E-17
5.174129E+03	9.465737E-16	3.538928E-17
5.184080E+03	9.578227E-16	3.580452E-17
5.194030E+03	9.691285E-16	3.622316E-17
5.203980E+03	9.804656E-16	3.664418E-17
5.213930E+03	9.917925E-16	3.706598E-17
5.223881E+03	1.003076E-15	3.748726E-17
5.233831E+03	1.014272E-15	3.790633E-17
5.243781E+03	1.025369E-15	3.832271E-17
5.253731E+03	1.036315E-15	3.873437E-17
5.263682E+03	1.047091E-15	3.914054E-17
5.273632E+03	1.057667E-15	3.954004E-17
5.283582E+03	1.067997E-15	3.993104E-17
5.293532E+03	1.078075E-15	4.031330E-17
5.303483E+03	1.087868E-15	4.068547E-17
5.313433E+03	1.097358E-15	4.104677E-17
5.323383E+03	1.106524E-15	4.139641E-17
5.333333E+03	1.115355E-15	4.173381E-17
5.343284E+03	1.123824E-15	4.205796E-17
5.353234E+03	1.131938E-15	4.236895E-17
5.363184E+03	1.139677E-15	4.266600E-17
5.373134E+03	1.147052E-15	4.294940E-17
5.383085E+03	1.154052E-15	4.321866E-17
5.393035E+03	1.160680E-15	4.347382E-17
5.402985E+03	1.166933E-15	4.371467E-17
5.412935E+03	1.172843E-15	4.394233E-17
5.422886E+03	1.178377E-15	4.415547E-17
5.432836E+03	1.183548E-15	4.435452E-17
5.442786E+03	1.188388E-15	4.454056E-17
5.452736E+03	1.192927E-15	4.471464E-17
5.462687E+03	1.197162E-15	4.487663E-17
5.472637E+03	1.201117E-15	4.502733E-17
5.482587E+03	1.204817E-15	4.516757E-17
5.492537E+03	1.208289E-15	4.529831E-17
5.502488E+03	1.211557E-15	4.542043E-17
5.512438E+03	1.214639E-15	4.553448E-17
5.522388E+03	1.217548E-15	4.564094E-17
5.532338E+03	1.220337E-15	4.574173E-17
5.542289E+03	1.223008E-15	4.583684E-17
5.552239E+03	1.225588E-15	4.592726E-17
5.562189E+03	1.228102E-15	4.601384E-17
5.572139E+03	1.230587E-15	4.609799E-17
5.582090E+03	1.233041E-15	4.617954E-17
5.592040E+03	1.235498E-15	4.625970E-17
5.601990E+03	1.237977E-15	4.633916E-17
5.611940E+03	1.240483E-15	4.641808E-17
5.621891E+03	1.243045E-15	4.649745E-17
5.631841E+03	1.245660E-15	4.657720E-17
5.641791E+03	1.248353E-15	4.665816E-17
5.651741E+03	1.251105E-15	4.673960E-17
5.661692E+03	1.253946E-15	4.682261E-17
5.671642E+03	1.256879E-15	4.690723E-17
5.681592E+03	1.259876E-15	4.699244E-17
5.691542E+03	1.262959E-15	4.707897E-17
5.701493E+03	1.266109E-15	4.716613E-17
5.711443E+03	1.269331E-15	4.725401E-17
5.721393E+03	1.272597E-15	4.734163E-17
5.731343E+03	1.275897E-15	4.742850E-17
5.741294E+03	1.279226E-15	4.751445E-17
5.751244E+03	1.282567E-15	4.759881E-17
5.761194E+03	1.285886E-15	4.768033E-17
5.771144E+03	1.289177E-15	4.775876E-17
5.781095E+03	1.292433E-15	4.783380E-17
5.791045E+03	1.295601E-15	4.790354E-17
5.800995E+03	1.298675E-15	4.796769E-17
5.810945E+03	1.301646E-15	4.802598E-17
5.820896E+03	1.304477E-15	4.807705E-17
5.830846E+03	1.307163E-15	4.812069E-17
5.840796E+03	1.309684E-15	4.815622E-17
5.850746E+03	1.312021E-15	4.818298E-17
5.860697E+03	1.314145E-15	4.819987E-17
5.870647E+03	1.316071E-15	4.820754E-17
5.880597E+03	1.317788E-15	4.820559E-17
5.890547E+03	1.319273E-15	4.819327E-17
5.900498E+03	1.320536E-15	4.817096E-17
5.910448E+03	1.321576E-15	4.813869E-17
5.920398E+03	1.322409E-15	4.809708E-17
5.930348E+03	1.323011E-15	4.804532E-17
5.940299E+03	1.323436E-15	4.798546E-17
5.950249E+03	1.323680E-15	4.791744E-17
5.960199E+03	1.323762E-15	4.784193E-17
5.970149E+03	1.323714E-15	4.776022E-17
5.980100E+03	1.323561E-15	4.767323E-17
5.990050E+03	1.323329E-15	4.758199E-17
6.000000E+03	1.323046E-15	4.748754E-17
6.009950E+03	1.322778E-15	4.739230E-17
6.019900E+03	1.322560E-15	4.729752E-17
6.029851E+03	1.322412E-15	4.720405E-17
6.039801E+03	1.322408E-15	4.711447E-17
6.049751E+03	1.322589E-15	4.703030E-17
6.059701E+03	1.322998E-15	4.695308E-17
6.069652E+03	1.323714E-15	4.688558E-17
6.079602E+03	1.324748E-15	4.682822E-17
6.089552E+03	1.326182E-15	4.678382E-17
6.099502E+03	1.328061E-15	4.675398E-17
6.109453E+03	1.330430E-15	4.674025E-17
6.119403E+03	1.333337E-15	4.674422E-17
6.129353E+03	1.336807E-15	4.676672E-17
6.139303E+03	1.340900E-15	4.680977E-17
6.149254E+03	1.345638E-15	4.687407E-17
6.159204E+03	1.351110E-15	4.696260E-17
6.169154E+03	1.357313E-15	4.707518E-17
6.179104E+03	1.364329E-15	4.721454E-17
6.189055E+03	1.372141E-15	4.737994E-17
6.199005E+03	1.380761E-15	4.757174E-17
6.208955E+03	1.390214E-15	4.779059E-17
6.218905E+03	1.400475E-15	4.803563E-17
6.228856E+03	1.411536E-15	4.830635E-17
6.238806E+03	1.423395E-15	4.860268E-17
6.248756E+03	1.435991E-15	4.892237E-17
6.258706E+03	1.449331E-15	4.926561E-17
6.268657E+03	1.463358E-15	4.963033E-17
6.278607E+03	1.478049E-15	5.001562E-17
6.288557E+03	1.493332E-15	5.041900E-17
6.298507E+03	1.509199E-15	5.084002E-17
6.308458E+03	1.525592E-15	5.127664E-17
6.318408E+03	1.542470E-15	5.172747E-17
6.328358E+03	1.559771E-15	5.219028E-17
6.338308E+03	1.577474E-15	5.266436E-17
6.348259E+03	1.595488E-15	5.314661E-17
6.358209E+03	1.613790E-15	5.363628E-17
6.368159E+03	1.632338E-15	5.413193E-17
6.378109E+03	1.651016E-15	5.462972E-17
6.388060E+03	1.669780E-15	5.512824E-17
6.398010E+03	1.688492E-15	5.562295E-17
6.407960E+03	1.707113E-15	5.611268E-17
6.417910E+03	1.725511E-15	5.659314E-17
6.427861E+03	1.743658E-15	5.706354E-17
6.437811E+03	1.761456E-15	5.752081E-17
6.447761E+03	1.778836E-15	5.796285E-17
6.457711E+03	1.795790E-15	5.838952E-17
6.467662E+03	1.812261E-15	5.879917E-17
6.477612E+03	1.828168E-15	5.918931E-17
6.487562E+03	1.843519E-15	5.956040E-17
6.497512E+03	1.858298E-15	5.991205E-17
6.507463E+03	1.872435E-15	6.024205E-17
6.517413E+03	1.885983E-15	6.055221E-17
6.527363E+03	1.898879E-15	6.084047E-17
6.537313E+03	1.911120E-15	6.110689E-17
6.547264E+03	1.922740E-15	6.135254E-17
6.557214E+03	1.933711E-15	6.157664E-17
6.567164E+03	1.944041E-15	6.177943E-17
6.577114E+03	1.953768E-15	6.196222E-17
6.587065E+03	1.962838E-15	6.212333E-17
6.597015E+03	1.971328E-15	6.226524E-17
6.606965E+03	1.979217E-15	6.238732E-17
6.616915E+03	1.986487E-15	6.248906E-17
6.626866E+03	1.993219E-15	6.257305E-17
6.636816E+03	1.999362E-15	6.263772E-17
6.646766E+03	2.005001E-15	6.268579E-17
6.656716E+03	2.010089E-15	6.271578E-17
6.666667E+03	2.014710E-15	6.273039E-17
6.676617E+03	2.018853E-15	6.272932E-17
6.686567E+03	2.022504E-15	6.271213E-17
6.696517E+03	2.025755E-15	6.268174E-17
6.706468E+03	2.028595E-15	6.263782E-17
6.716418E+03	2.031046E-15	6.258111E-17
6.726368E+03	2.033135E-15	6.251243E-17
6.736318E+03	2.034886E-15	6.243257E-17
6.746269E+03	2.036358E-15	6.234337E-17
6.756219E+03	2.037508E-15	6.224353E-17
6.766169E+03	2.038431E-15	6.213599E-17
6.776119E+03	2.039115E-15	6.202041E-17
6.786070E+03	2.039585E-15	6.189762E-17
6.796020E+03	2.039903E-15	6.176944E-17
6.805970E+03	2.040052E-15	6.163546E-17
6.815920E+03	2.040056E-15	6.149637E-17
6.825871E+03	2.039934E-15	6.135281E-17
6.835821E+03	2.039740E-15	6.120645E-17
6.845771E+03	2.039457E-15	6.105677E-17
6.855721E+03	2.039099E-15	6.090424E-17
6.865672E+03	2.038679E-15	6.074925E-17
6.875622E+03	2.038244E-15	6.059332E-17
6.885572E+03	2.037806E-15	6.043676E-17
6.895522E+03	2.037297E-15	6.027760E-17
6.905473E+03	2.036794E-15	6.011822E-17
6.915423E+03	2.036266E-15	5.995773E-17
6.925373E+03	2.035751E-15	5.979730E-17
6.935323E+03	2.035209E-15	5.963583E-17
6.945274E+03	2.034642E-15	5.947340E-17
6.955224E+03	2.034081E-15	5.931104E-17
6.965174E+03	2.033485E-15	5.914762E-17
6.975124E+03	2.032886E-15	5.898416E-17
6.985075E+03	2.032241E-15	5.881945E-17
6.995025E+03	2.031539E-15	5.865335E-17
7.004975E+03	2.030815E-15	5.848696E-17
7.014925E+03	2.030021E-15	5.831895E-17
7.024876E+03	2.029149E-15	5.814929E-17
7.034826E+03	2.028232E-15	5.797902E-17
7.044776E+03	2.027223E-15	5.780692E-17
7.054726E+03	2.026155E-15	5.763409E-17
7.064677E+03	2.024982E-15	5.745938E-17
7.074627E+03	2.023740E-15	5.728395E-17
7.084577E+03	2.022384E-15	5.710669E-17
7.094527E+03	2.020909E-15	5.692762E-17
7.104478E+03	2.019352E-15	5.674799E-17
7.114428E+03	2.017713E-15	5.656795E-17
7.124378E+03	2.015947E-15	5.638644E-17
7.134328E+03	2.014054E-15	5.620362E-17
7.144279E+03	2.012115E-15	5.602198E-17
7.154229E+03	2.010003E-15	5.583816E-17
7.164179E+03	2.007846E-15	5.565591E-17
7.174129E+03	2.005515E-15	5.547186E-17
7.184080E+03	2.003135E-15	5.528970E-17
7.194030E+03	2.000621E-15	5.510728E-17
7.203980E+03	1.998014E-15	5.492595E-17
7.213930E+03	1.995312E-15	5.474586E-17
7.223881E+03	1.992467E-15	5.456594E-17
7.233831E+03	1.989521E-15	5.438751E-17
7.243781E+03	1.986468E-15	5.421066E-17
7.253731E+03	1.983259E-15	5.403429E-17
7.263682E+03	1.979932E-15	5.385964E-17
7.273632E+03	1.976479E-15	5.368675E-17
7.283582E+03	1.972895E-15	5.351566E-17
7.293532E+03	1.969125E-15	5.334511E-17
7.303483E+03	1.965204E-15	5.317632E-17
7.313433E+03	1.961123E-15	5.300921E-17
7.323383E+03	1.956829E-15	5.284261E-17
7.333333E+03	1.952309E-15	5.267636E-17
7.343284E+03	1.947599E-15	5.251165E-17
7.353234E+03	1.942644E-15	5.234718E-17
7.363184E+03	1.937479E-15	5.218412E-17
7.373134E+03	1.932049E-15	5.202115E-17
7.383085E+03	1.926390E-15	5.185943E-17
7.393035E+03	1.920493E-15	5.169888E-17
7.402985E+03	1.914352E-15	5.153948E-17
7.412935E+03	1.908004E-15	5.138242E-17
7.422886E+03	1.901401E-15	5.122646E-17
7.432836E+03	1.894582E-15	5.107284E-17
7.442786E+03	1.887545E-15	5.092156E-17
7.452736E+03	1.880287E-15	5.077246E-17
7.462687E+03	1.872811E-15	5.062529E-17
7.472637E+03	1.865071E-15	5.047850E-17
7.482587E+03	1.857160E-15	5.033431E-17
7.492537E+03	1.848993E-15	5.019007E-17
7.502488E+03	1.840666E-15	5.004807E-17
7.512438E+03	1.832097E-15	4.990571E-17
7.522388E+03	1.823337E-15	4.976413E-17
7.532338E+03	1.814402E-15	4.962332E-17
7.542289E+03	1.805255E-15	4.948202E-17
7.552239E+03	1.795953E-15	4.934142E-17
7.562189E+03	1.786463E-15	4.920028E-17
7.572139E+03	1.776798E-15	4.905862E-17
7.582090E+03	1.767012E-15	4.891762E-17
7.592040E+03	1.757071E-15	4.877600E-17
7.601990E+03	1.746983E-15	4.863364E-17
7.611940E+03	1.736752E-15	4.849038E-17
7.621891E+03	1.726430E-15	4.834735E-17
7.631841E+03	1.715928E-15	4.820178E-17
7.641791E+03	1.705339E-15	4.805592E-17
7.651741E+03	1.694615E-15	4.790818E-17
7.661692E+03	1.683752E-15	4.775814E-17
7.671642E+03	1.672747E-15	4.760544E-17
7.681592E+03	1.661590E-15	4.744952E-17
7.691542E+03	1.650275E-15	4.728992E-17
7.701493E+03	1.638835E-15	4.712734E-17
7.711443E+03	1.627258E-15	4.696116E-17
7.721393E+03	1.615444E-15	4.678823E-17
