#wls	flux	fluxerr
1.592040E+03	1.510691E-17	1.448578E-18
1.631841E+03	1.499353E-17	1.431865E-18
1.671642E+03	1.487308E-17	1.414419E-18
1.711443E+03	1.474267E-17	1.395976E-18
1.751244E+03	1.460477E-17	1.376782E-18
1.791045E+03	1.445660E-17	1.356586E-18
1.830846E+03	1.429716E-17	1.335310E-18
1.870647E+03	1.411905E-17	1.312284E-18
1.910448E+03	1.392032E-17	1.287355E-18
1.950249E+03	1.369767E-17	1.260252E-18
1.990050E+03	1.345534E-17	1.231401E-18
2.029851E+03	1.320504E-17	1.201903E-18
2.069652E+03	1.297101E-17	1.173970E-18
2.109453E+03	1.279786E-17	1.151596E-18
2.149254E+03	1.272079E-17	1.137838E-18
2.189055E+03	1.275782E-17	1.134144E-18
2.228856E+03	1.289253E-17	1.138870E-18
2.268657E+03	1.309756E-17	1.149443E-18
2.308458E+03	1.333551E-17	1.162469E-18
2.348259E+03	1.358835E-17	1.176316E-18
2.388060E+03	1.384155E-17	1.189696E-18
2.427861E+03	1.409076E-17	1.202222E-18
2.467662E+03	1.433853E-17	1.214103E-18
2.507463E+03	1.458687E-17	1.225499E-18
2.547264E+03	1.483851E-17	1.236621E-18
2.587065E+03	1.509617E-17	1.247671E-18
2.626866E+03	1.536235E-17	1.258827E-18
2.666667E+03	1.564175E-17	1.270439E-18
2.706468E+03	1.593632E-17	1.282617E-18
2.746269E+03	1.624768E-17	1.295440E-18
2.786070E+03	1.658238E-17	1.309369E-18
2.825871E+03	1.694172E-17	1.324432E-18
2.865672E+03	1.732691E-17	1.340642E-18
2.905473E+03	1.774668E-17	1.358587E-18
2.945274E+03	1.820467E-17	1.378430E-18
2.985075E+03	1.870707E-17	1.400513E-18
2.995025E+03	1.884076E-17	1.406453E-18
3.004975E+03	1.897748E-17	1.412541E-18
3.014925E+03	1.911723E-17	1.418773E-18
3.024876E+03	1.926008E-17	1.425153E-18
3.034826E+03	1.940627E-17	1.431696E-18
3.044776E+03	1.955842E-17	1.438591E-18
3.054726E+03	1.971439E-17	1.445677E-18
3.064677E+03	1.987408E-17	1.452945E-18
3.074627E+03	2.004000E-17	1.460573E-18
3.084577E+03	2.020952E-17	1.468367E-18
3.094527E+03	2.038517E-17	1.476505E-18
3.104478E+03	2.056432E-17	1.484794E-18
3.114428E+03	2.074952E-17	1.493413E-18
3.124378E+03	2.094072E-17	1.502356E-18
3.134328E+03	2.113533E-17	1.511430E-18
3.144279E+03	2.133848E-17	1.521000E-18
3.154229E+03	2.154499E-17	1.530691E-18
3.164179E+03	2.175744E-17	1.540681E-18
3.174129E+03	2.197580E-17	1.550966E-18
3.184080E+03	2.220010E-17	1.561539E-18
3.194030E+03	2.243289E-17	1.572578E-18
3.203980E+03	2.267162E-17	1.583895E-18
3.213930E+03	2.291626E-17	1.595484E-18
3.223881E+03	2.316685E-17	1.607343E-18
3.233831E+03	2.342599E-17	1.619646E-18
3.243781E+03	2.369369E-17	1.632387E-18
3.253731E+03	2.396737E-17	1.645381E-18
3.263682E+03	2.424966E-17	1.658803E-18
3.273632E+03	2.454058E-17	1.672647E-18
3.283582E+03	2.484016E-17	1.686908E-18
3.293532E+03	2.514841E-17	1.701580E-18
3.303483E+03	2.546537E-17	1.716657E-18
3.313433E+03	2.579371E-17	1.732310E-18
3.323383E+03	2.612818E-17	1.748180E-18
3.333333E+03	2.647672E-17	1.764789E-18
3.343284E+03	2.683409E-17	1.781778E-18
3.353234E+03	2.720035E-17	1.799142E-18
3.363184E+03	2.758078E-17	1.817223E-18
3.373134E+03	2.797016E-17	1.835664E-18
3.383085E+03	2.837382E-17	1.854806E-18
3.393035E+03	2.878650E-17	1.874295E-18
3.402985E+03	2.921354E-17	1.894468E-18
3.412935E+03	2.965498E-17	1.915315E-18
3.422886E+03	3.010823E-17	1.936657E-18
3.432836E+03	3.057598E-17	1.958655E-18
3.442786E+03	3.105827E-17	1.981299E-18
3.452736E+03	3.155249E-17	2.004410E-18
3.462687E+03	3.206403E-17	2.028317E-18
3.472637E+03	3.259292E-17	2.053008E-18
3.482587E+03	3.313388E-17	2.078135E-18
3.492537E+03	3.369498E-17	2.104191E-18
3.502488E+03	3.427091E-17	2.130827E-18
3.512438E+03	3.486440E-17	2.158199E-18
3.522388E+03	3.547550E-17	2.186294E-18
3.532338E+03	3.610426E-17	2.215097E-18
3.542289E+03	3.675072E-17	2.244596E-18
3.552239E+03	3.741763E-17	2.274940E-18
3.562189E+03	3.810504E-17	2.306114E-18
3.572139E+03	3.881300E-17	2.338102E-18
3.582090E+03	3.954155E-17	2.370887E-18
3.592040E+03	4.029075E-17	2.404452E-18
3.601990E+03	4.106063E-17	2.438779E-18
3.611940E+03	4.185396E-17	2.474014E-18
3.621891E+03	4.266804E-17	2.509975E-18
3.631841E+03	4.350567E-17	2.546805E-18
3.641791E+03	4.436960E-17	2.584642E-18
3.651741E+03	4.525441E-17	2.623148E-18
3.661692E+03	4.616560E-17	2.662618E-18
3.671642E+03	4.710048E-17	2.702873E-18
3.681592E+03	4.806182E-17	2.744049E-18
3.691542E+03	4.904967E-17	2.786121E-18
3.701493E+03	5.006404E-17	2.829066E-18
3.711443E+03	5.110497E-17	2.872859E-18
3.721393E+03	5.217249E-17	2.917476E-18
3.731343E+03	5.326938E-17	2.963046E-18
3.741294E+03	5.439292E-17	3.009388E-18
3.751244E+03	5.554866E-17	3.056783E-18
3.761194E+03	5.673108E-17	3.104895E-18
3.771144E+03	5.794299E-17	3.153853E-18
3.781095E+03	5.918439E-17	3.203626E-18
3.791045E+03	6.045811E-17	3.254337E-18
3.800995E+03	6.176415E-17	3.305954E-18
3.810945E+03	6.309698E-17	3.358151E-18
3.820896E+03	6.446497E-17	3.411344E-18
3.830846E+03	6.586537E-17	3.465353E-18
3.840796E+03	6.729541E-17	3.519999E-18
3.850746E+03	6.876070E-17	3.575547E-18
3.860697E+03	7.025568E-17	3.631672E-18
3.870647E+03	7.178598E-17	3.688634E-18
3.880597E+03	7.335164E-17	3.746400E-18
3.890547E+03	7.494711E-17	3.804652E-18
3.900498E+03	7.657802E-17	3.863645E-18
3.910448E+03	7.824444E-17	3.923345E-18
3.920398E+03	7.994363E-17	3.983582E-18
3.930348E+03	8.167847E-17	4.044464E-18
3.940299E+03	8.344902E-17	4.105959E-18
3.950249E+03	8.525258E-17	4.167898E-18
3.960199E+03	8.708922E-17	4.230253E-18
3.970149E+03	8.896472E-17	4.293269E-18
3.980100E+03	9.087072E-17	4.356506E-18
3.990050E+03	9.281301E-17	4.420210E-18
4.000000E+03	9.479176E-17	4.484354E-18
4.009950E+03	9.680431E-17	4.548774E-18
4.019900E+03	9.885090E-17	4.613450E-18
4.029851E+03	1.009316E-16	4.678352E-18
4.039801E+03	1.030468E-16	4.743464E-18
4.049751E+03	1.051967E-16	4.808762E-18
4.059701E+03	1.073788E-16	4.874098E-18
4.069652E+03	1.095962E-16	4.939580E-18
4.079602E+03	1.118464E-16	5.005064E-18
4.089552E+03	1.141268E-16	5.070407E-18
4.099502E+03	1.164409E-16	5.135729E-18
4.109453E+03	1.187861E-16	5.200889E-18
4.119403E+03	1.211630E-16	5.265882E-18
4.129353E+03	1.235719E-16	5.330695E-18
4.139303E+03	1.260078E-16	5.395086E-18
4.149254E+03	1.284739E-16	5.459168E-18
4.159204E+03	1.309683E-16	5.522830E-18
4.169154E+03	1.334913E-16	5.586066E-18
4.179104E+03	1.360409E-16	5.648770E-18
4.189055E+03	1.386150E-16	5.710830E-18
4.199005E+03	1.412142E-16	5.772259E-18
4.208955E+03	1.438392E-16	5.833067E-18
4.218905E+03	1.464854E-16	5.893044E-18
4.228856E+03	1.491535E-16	5.952210E-18
4.238806E+03	1.518414E-16	6.010471E-18
4.248756E+03	1.545501E-16	6.067853E-18
4.258706E+03	1.572749E-16	6.124164E-18
4.268657E+03	1.600197E-16	6.179547E-18
4.278607E+03	1.627767E-16	6.233701E-18
4.288557E+03	1.655470E-16	6.286663E-18
4.298507E+03	1.683317E-16	6.338478E-18
4.308458E+03	1.711260E-16	6.388969E-18
4.318408E+03	1.739310E-16	6.438182E-18
4.328358E+03	1.767422E-16	6.485953E-18
4.338308E+03	1.795574E-16	6.532221E-18
4.348259E+03	1.823779E-16	6.577046E-18
4.358209E+03	1.852020E-16	6.620378E-18
4.368159E+03	1.880217E-16	6.661955E-18
4.378109E+03	1.908412E-16	6.701947E-18
4.388060E+03	1.936554E-16	6.740206E-18
4.398010E+03	1.964625E-16	6.776696E-18
4.407960E+03	1.992603E-16	6.811378E-18
4.417910E+03	2.020470E-16	6.844219E-18
4.427861E+03	2.048171E-16	6.875082E-18
4.437811E+03	2.075743E-16	6.904137E-18
4.447761E+03	2.103166E-16	6.931354E-18
4.457711E+03	2.130475E-16	6.956898E-18
4.467662E+03	2.157674E-16	6.980829E-18
4.477612E+03	2.184708E-16	7.003016E-18
4.487562E+03	2.211671E-16	7.023811E-18
4.497512E+03	2.238506E-16	7.043082E-18
4.507463E+03	2.265275E-16	7.061072E-18
4.517413E+03	2.291918E-16	7.077649E-18
4.527363E+03	2.318464E-16	7.092956E-18
4.537313E+03	2.344943E-16	7.107137E-18
4.547264E+03	2.371350E-16	7.120241E-18
4.557214E+03	2.397683E-16	7.132308E-18
4.567164E+03	2.423934E-16	7.143383E-18
4.577114E+03	2.450127E-16	7.153596E-18
4.587065E+03	2.476253E-16	7.162981E-18
4.597015E+03	2.502301E-16	7.171573E-18
4.606965E+03	2.528292E-16	7.179496E-18
4.616915E+03	2.554209E-16	7.186780E-18
4.626866E+03	2.580070E-16	7.193538E-18
4.636816E+03	2.605890E-16	7.199886E-18
4.646766E+03	2.631615E-16	7.205754E-18
4.656716E+03	2.657259E-16	7.211255E-18
4.666667E+03	2.682830E-16	7.216494E-18
4.676617E+03	2.708337E-16	7.221577E-18
4.686567E+03	2.733721E-16	7.226430E-18
4.696517E+03	2.759020E-16	7.231244E-18
4.706468E+03	2.784170E-16	7.235942E-18
4.716418E+03	2.809211E-16	7.240718E-18
4.726368E+03	2.834073E-16	7.245492E-18
4.736318E+03	2.858760E-16	7.250367E-18
4.746269E+03	2.883236E-16	7.255360E-18
4.756219E+03	2.907468E-16	7.260486E-18
4.766169E+03	2.931491E-16	7.265939E-18
4.776119E+03	2.955203E-16	7.271573E-18
4.786070E+03	2.978642E-16	7.277591E-18
4.796020E+03	3.001783E-16	7.284039E-18
4.805970E+03	3.024601E-16	7.290966E-18
4.815920E+03	3.047075E-16	7.298428E-18
4.825871E+03	3.069189E-16	7.306498E-18
4.835821E+03	3.090960E-16	7.315323E-18
4.845771E+03	3.112377E-16	7.324980E-18
4.855721E+03	3.133427E-16	7.335546E-18
4.865672E+03	3.154137E-16	7.347179E-18
4.875622E+03	3.174426E-16	7.359793E-18
4.885572E+03	3.194361E-16	7.373637E-18
4.895522E+03	3.213938E-16	7.388788E-18
4.905473E+03	3.233155E-16	7.405268E-18
4.915423E+03	3.252046E-16	7.423153E-18
4.925373E+03	3.270538E-16	7.442259E-18
4.935323E+03	3.288708E-16	7.462745E-18
4.945274E+03	3.306557E-16	7.484590E-18
4.955224E+03	3.324055E-16	7.507690E-18
4.965174E+03	3.341280E-16	7.532195E-18
4.975124E+03	3.358166E-16	7.557910E-18
4.985075E+03	3.374795E-16	7.584978E-18
4.995025E+03	3.391140E-16	7.613288E-18
5.004975E+03	3.407210E-16	7.642807E-18
5.014925E+03	3.423053E-16	7.673591E-18
5.024876E+03	3.438644E-16	7.705522E-18
5.034826E+03	3.454033E-16	7.738650E-18
5.044776E+03	3.469233E-16	7.772942E-18
5.054726E+03	3.484220E-16	7.808277E-18
5.064677E+03	3.499046E-16	7.844702E-18
5.074627E+03	3.513725E-16	7.882181E-18
5.084577E+03	3.528273E-16	7.920676E-18
5.094527E+03	3.542702E-16	7.960147E-18
5.104478E+03	3.557031E-16	8.000560E-18
5.114428E+03	3.571272E-16	8.041869E-18
5.124378E+03	3.585441E-16	8.084040E-18
5.134328E+03	3.599555E-16	8.127033E-18
5.144279E+03	3.613627E-16	8.170809E-18
5.154229E+03	3.627671E-16	8.215325E-18
5.164179E+03	3.641706E-16	8.260548E-18
5.174129E+03	3.655742E-16	8.306435E-18
5.184080E+03	3.669797E-16	8.352948E-18
5.194030E+03	3.683883E-16	8.400051E-18
5.203980E+03	3.698014E-16	8.447702E-18
5.213930E+03	3.712245E-16	8.495957E-18
5.223881E+03	3.726509E-16	8.544599E-18
5.233831E+03	3.740860E-16	8.593679E-18
5.243781E+03	3.755308E-16	8.643160E-18
5.253731E+03	3.769869E-16	8.693011E-18
5.263682E+03	3.784515E-16	8.743101E-18
5.273632E+03	3.799335E-16	8.793578E-18
5.283582E+03	3.814264E-16	8.844226E-18
5.293532E+03	3.829352E-16	8.895102E-18
5.303483E+03	3.844570E-16	8.946082E-18
5.313433E+03	3.859969E-16	8.997220E-18
5.323383E+03	3.875562E-16	9.048490E-18
5.333333E+03	3.891316E-16	9.099765E-18
5.343284E+03	3.907284E-16	9.151105E-18
5.353234E+03	3.923436E-16	9.202387E-18
5.363184E+03	3.939780E-16	9.253581E-18
5.373134E+03	3.956368E-16	9.304748E-18
5.383085E+03	3.973167E-16	9.355766E-18
5.393035E+03	3.990149E-16	9.406511E-18
5.402985E+03	4.007401E-16	9.457140E-18
5.412935E+03	4.024894E-16	9.507535E-18
5.422886E+03	4.042596E-16	9.557571E-18
5.432836E+03	4.060597E-16	9.607409E-18
5.442786E+03	4.078824E-16	9.656830E-18
5.452736E+03	4.097285E-16	9.705805E-18
5.462687E+03	4.116032E-16	9.754408E-18
5.472637E+03	4.135071E-16	9.802609E-18
5.482587E+03	4.154371E-16	9.850286E-18
5.492537E+03	4.173941E-16	9.897411E-18
5.502488E+03	4.193829E-16	9.944059E-18
5.512438E+03	4.213961E-16	9.990002E-18
5.522388E+03	4.234471E-16	1.003551E-17
5.532338E+03	4.255284E-16	1.008037E-17
5.542289E+03	4.276449E-16	1.012465E-17
5.552239E+03	4.297934E-16	1.016822E-17
5.562189E+03	4.319831E-16	1.021127E-17
5.572139E+03	4.342064E-16	1.025355E-17
5.582090E+03	4.364685E-16	1.029516E-17
5.592040E+03	4.387744E-16	1.033616E-17
5.601990E+03	4.411164E-16	1.037633E-17
5.611940E+03	4.435040E-16	1.041584E-17
5.621891E+03	4.459294E-16	1.045447E-17
5.631841E+03	4.484020E-16	1.049239E-17
5.641791E+03	4.509141E-16	1.052937E-17
5.651741E+03	4.534751E-16	1.056559E-17
5.661692E+03	4.560769E-16	1.060081E-17
5.671642E+03	4.587251E-16	1.063511E-17
5.681592E+03	4.614199E-16	1.066846E-17
5.691542E+03	4.641625E-16	1.070082E-17
5.701493E+03	4.669490E-16	1.073207E-17
5.711443E+03	4.697843E-16	1.076228E-17
5.721393E+03	4.726649E-16	1.079130E-17
5.731343E+03	4.755957E-16	1.081920E-17
5.741294E+03	4.785682E-16	1.084575E-17
5.751244E+03	4.815921E-16	1.087111E-17
5.761194E+03	4.846633E-16	1.089515E-17
5.771144E+03	4.877821E-16	1.091782E-17
5.781095E+03	4.909489E-16	1.093909E-17
5.791045E+03	4.941595E-16	1.095880E-17
5.800995E+03	4.974185E-16	1.097703E-17
5.810945E+03	5.007214E-16	1.099362E-17
5.820896E+03	5.040684E-16	1.100853E-17
5.830846E+03	5.074642E-16	1.102182E-17
5.840796E+03	5.108990E-16	1.103323E-17
5.850746E+03	5.143775E-16	1.104283E-17
5.860697E+03	5.178994E-16	1.105056E-17
5.870647E+03	5.214594E-16	1.105627E-17
5.880597E+03	5.250569E-16	1.105991E-17
5.890547E+03	5.286963E-16	1.106153E-17
5.900498E+03	5.323669E-16	1.106089E-17
5.910448E+03	5.360778E-16	1.105814E-17
5.920398E+03	5.398127E-16	1.105291E-17
5.930348E+03	5.435861E-16	1.104547E-17
5.940299E+03	5.473810E-16	1.103547E-17
5.950249E+03	5.512064E-16	1.102305E-17
5.960199E+03	5.550558E-16	1.100809E-17
5.970149E+03	5.589271E-16	1.099052E-17
5.980100E+03	5.628136E-16	1.097022E-17
5.990050E+03	5.667183E-16	1.094724E-17
6.000000E+03	5.706393E-16	1.092155E-17
6.009950E+03	5.745689E-16	1.089303E-17
6.019900E+03	5.784991E-16	1.086153E-17
6.029851E+03	5.824385E-16	1.082725E-17
6.039801E+03	5.863730E-16	1.078997E-17
6.049751E+03	5.903057E-16	1.074979E-17
6.059701E+03	5.942277E-16	1.070660E-17
6.069652E+03	5.981361E-16	1.066041E-17
6.079602E+03	6.020274E-16	1.061124E-17
6.089552E+03	6.058924E-16	1.055902E-17
6.099502E+03	6.097277E-16	1.050379E-17
6.109453E+03	6.135295E-16	1.044560E-17
6.119403E+03	6.172943E-16	1.038451E-17
6.129353E+03	6.210121E-16	1.032052E-17
6.139303E+03	6.246912E-16	1.025390E-17
6.149254E+03	6.283277E-16	1.018478E-17
6.159204E+03	6.319183E-16	1.011328E-17
6.169154E+03	6.354467E-16	1.003935E-17
6.179104E+03	6.389217E-16	9.963349E-18
6.189055E+03	6.423336E-16	9.885381E-18
6.199005E+03	6.456791E-16	9.805654E-18
6.208955E+03	6.489614E-16	9.724505E-18
6.218905E+03	6.521715E-16	9.642100E-18
6.228856E+03	6.553192E-16	9.558915E-18
6.238806E+03	6.583957E-16	9.475166E-18
6.248756E+03	6.614051E-16	9.391284E-18
6.258706E+03	6.643519E-16	9.307724E-18
6.268657E+03	6.672340E-16	9.224868E-18
6.278607E+03	6.700497E-16	9.143132E-18
6.288557E+03	6.727971E-16	9.062948E-18
6.298507E+03	6.754882E-16	8.984964E-18
6.308458E+03	6.781082E-16	8.909486E-18
6.318408E+03	6.806690E-16	8.837202E-18
6.328358E+03	6.831699E-16	8.768646E-18
6.338308E+03	6.856028E-16	8.704282E-18
6.348259E+03	6.879876E-16	8.644944E-18
6.358209E+03	6.903095E-16	8.591037E-18
6.368159E+03	6.925745E-16	8.543241E-18
6.378109E+03	6.947887E-16	8.502236E-18
6.388060E+03	6.969511E-16	8.468616E-18
6.398010E+03	6.990603E-16	8.442962E-18
6.407960E+03	7.011221E-16	8.425935E-18
6.417910E+03	7.031425E-16	8.418172E-18
6.427861E+03	7.051277E-16	8.420291E-18
6.437811E+03	7.070764E-16	8.432790E-18
6.447761E+03	7.089945E-16	8.456210E-18
6.457711E+03	7.108954E-16	8.491145E-18
6.467662E+03	7.127704E-16	8.537856E-18
6.477612E+03	7.146327E-16	8.596593E-18
6.487562E+03	7.164580E-16	8.666932E-18
6.497512E+03	7.182445E-16	8.748658E-18
6.507463E+03	7.199977E-16	8.841596E-18
6.517413E+03	7.216931E-16	8.945158E-18
6.527363E+03	7.233441E-16	9.059179E-18
6.537313E+03	7.249412E-16	9.183179E-18
6.547264E+03	7.264750E-16	9.316644E-18
6.557214E+03	7.279595E-16	9.459340E-18
6.567164E+03	7.293855E-16	9.610716E-18
6.577114E+03	7.307515E-16	9.770310E-18
6.587065E+03	7.320562E-16	9.937653E-18
6.597015E+03	7.332985E-16	1.011228E-17
6.606965E+03	7.344851E-16	1.029382E-17
6.616915E+03	7.356070E-16	1.048171E-17
6.626866E+03	7.366633E-16	1.067550E-17
6.636816E+03	7.376609E-16	1.087484E-17
6.646766E+03	7.385992E-16	1.107932E-17
6.656716E+03	7.394690E-16	1.128837E-17
6.666667E+03	7.402864E-16	1.150186E-17
6.676617E+03	7.410342E-16	1.171913E-17
6.686567E+03	7.417200E-16	1.193993E-17
6.696517E+03	7.423435E-16	1.216390E-17
6.706468E+03	7.429042E-16	1.239069E-17
6.716418E+03	7.434019E-16	1.261996E-17
6.726368E+03	7.438450E-16	1.285155E-17
6.736318E+03	7.442248E-16	1.308501E-17
6.746269E+03	7.445499E-16	1.332020E-17
6.756219E+03	7.448118E-16	1.355669E-17
6.766169E+03	7.450108E-16	1.379424E-17
6.776119E+03	7.451642E-16	1.403290E-17
6.786070E+03	7.452553E-16	1.427213E-17
6.796020E+03	7.452845E-16	1.451170E-17
6.805970E+03	7.452696E-16	1.475175E-17
6.815920E+03	7.451942E-16	1.499175E-17
6.825871E+03	7.450674E-16	1.523167E-17
6.835821E+03	7.448902E-16	1.547135E-17
6.845771E+03	7.446633E-16	1.571064E-17
6.855721E+03	7.443879E-16	1.594938E-17
6.865672E+03	7.440651E-16	1.618743E-17
6.875622E+03	7.436870E-16	1.642447E-17
6.885572E+03	7.432726E-16	1.666077E-17
6.895522E+03	7.428056E-16	1.689582E-17
6.905473E+03	7.423047E-16	1.712992E-17
6.915423E+03	7.417540E-16	1.736258E-17
6.925373E+03	7.411724E-16	1.759410E-17
6.935323E+03	7.405440E-16	1.782402E-17
6.945274E+03	7.398789E-16	1.805245E-17
6.955224E+03	7.391790E-16	1.827935E-17
6.965174E+03	7.384460E-16	1.850465E-17
6.975124E+03	7.376726E-16	1.872808E-17
6.985075E+03	7.368786E-16	1.895006E-17
6.995025E+03	7.360478E-16	1.917010E-17
7.004975E+03	7.351824E-16	1.938815E-17
7.014925E+03	7.343018E-16	1.960468E-17
7.024876E+03	7.333815E-16	1.981895E-17
7.034826E+03	7.324501E-16	2.003167E-17
7.044776E+03	7.314829E-16	2.024211E-17
7.054726E+03	7.304999E-16	2.045076E-17
7.064677E+03	7.295031E-16	2.065762E-17
7.074627E+03	7.284769E-16	2.086222E-17
7.084577E+03	7.274413E-16	2.106506E-17
7.094527E+03	7.263895E-16	2.126592E-17
7.104478E+03	7.253239E-16	2.146483E-17
7.114428E+03	7.242376E-16	2.166154E-17
7.124378E+03	7.231510E-16	2.185663E-17
7.134328E+03	7.220484E-16	2.204961E-17
7.144279E+03	7.209501E-16	2.224106E-17
7.154229E+03	7.198317E-16	2.243021E-17
7.164179E+03	7.187223E-16	2.261795E-17
7.174129E+03	7.176067E-16	2.280378E-17
7.184080E+03	7.164871E-16	2.298776E-17
7.194030E+03	7.153751E-16	2.317025E-17
7.203980E+03	7.142643E-16	2.335103E-17
7.213930E+03	7.131571E-16	2.353019E-17
7.223881E+03	7.120652E-16	2.370808E-17
7.233831E+03	7.109733E-16	2.388423E-17
7.243781E+03	7.099018E-16	2.405930E-17
7.253731E+03	7.088447E-16	2.423311E-17
7.263682E+03	7.077955E-16	2.440543E-17
7.273632E+03	7.067749E-16	2.457700E-17
7.283582E+03	7.057678E-16	2.474729E-17
7.293532E+03	7.047858E-16	2.491674E-17
7.303483E+03	7.038320E-16	2.508546E-17
7.313433E+03	7.029088E-16	2.525358E-17
7.323383E+03	7.020192E-16	2.542122E-17
7.333333E+03	7.011572E-16	2.558819E-17
7.343284E+03	7.003345E-16	2.575494E-17
7.353234E+03	6.995538E-16	2.592161E-17
7.363184E+03	6.988182E-16	2.608835E-17
7.373134E+03	6.981304E-16	2.625530E-17
7.383085E+03	6.974843E-16	2.642225E-17
7.393035E+03	6.969005E-16	2.659005E-17
7.402985E+03	6.963818E-16	2.675885E-17
7.412935E+03	6.959220E-16	2.692845E-17
7.422886E+03	6.955326E-16	2.709936E-17
7.432836E+03	6.951984E-16	2.727105E-17
7.442786E+03	6.949308E-16	2.744399E-17
7.452736E+03	6.947323E-16	2.761835E-17
7.462687E+03	6.945960E-16	2.779392E-17
7.472637E+03	6.945334E-16	2.797119E-17
7.482587E+03	6.945371E-16	2.814994E-17
7.492537E+03	6.946184E-16	2.833066E-17
7.502488E+03	6.947696E-16	2.851312E-17
7.512438E+03	6.949924E-16	2.869743E-17
7.522388E+03	6.952879E-16	2.888370E-17
7.532338E+03	6.956570E-16	2.907201E-17
7.542289E+03	6.961095E-16	2.926285E-17
7.552239E+03	6.966279E-16	2.945551E-17
7.562189E+03	6.972304E-16	2.965084E-17
7.572139E+03	6.979084E-16	2.984852E-17
7.582090E+03	6.986620E-16	3.004861E-17
7.592040E+03	6.994912E-16	3.025116E-17
7.601990E+03	7.004051E-16	3.045663E-17
7.611940E+03	7.013852E-16	3.066427E-17
7.621891E+03	7.024405E-16	3.087451E-17
7.631841E+03	7.035800E-16	3.108780E-17
7.641791E+03	7.047942E-16	3.130379E-17
7.651741E+03	7.060738E-16	3.152211E-17
7.661692E+03	7.074368E-16	3.174361E-17
7.671642E+03	7.088833E-16	3.196834E-17
7.681592E+03	7.103941E-16	3.219551E-17
7.691542E+03	7.119880E-16	3.242599E-17
7.701493E+03	7.136458E-16	3.265898E-17
7.711443E+03	7.153863E-16	3.289537E-17
7.721393E+03	7.172096E-16	3.313522E-17
