#wls	flux	fluxerr
1.592040E+03	1.498520E-17	1.256834E-18
1.631841E+03	1.492479E-17	1.250221E-18
1.671642E+03	1.485409E-17	1.242713E-18
1.711443E+03	1.477585E-17	1.234544E-18
1.751244E+03	1.468664E-17	1.225430E-18
1.791045E+03	1.458923E-17	1.215604E-18
1.830846E+03	1.447673E-17	1.204496E-18
1.870647E+03	1.434706E-17	1.191938E-18
1.910448E+03	1.419241E-17	1.177289E-18
1.950249E+03	1.401458E-17	1.160708E-18
1.990050E+03	1.380955E-17	1.141871E-18
2.029851E+03	1.359450E-17	1.122210E-18
2.069652E+03	1.339442E-17	1.103789E-18
2.109453E+03	1.325301E-17	1.090197E-18
2.149254E+03	1.321235E-17	1.084864E-18
2.189055E+03	1.328458E-17	1.088738E-18
2.228856E+03	1.346080E-17	1.101037E-18
2.268657E+03	1.370807E-17	1.119017E-18
2.308458E+03	1.399257E-17	1.139886E-18
2.348259E+03	1.429035E-17	1.161669E-18
2.388060E+03	1.459367E-17	1.183728E-18
2.427861E+03	1.489273E-17	1.205260E-18
2.467662E+03	1.519250E-17	1.226661E-18
2.507463E+03	1.549752E-17	1.248291E-18
2.547264E+03	1.580787E-17	1.270146E-18
2.587065E+03	1.612883E-17	1.292639E-18
2.626866E+03	1.646547E-17	1.316161E-18
2.666667E+03	1.682253E-17	1.341072E-18
2.706468E+03	1.720181E-17	1.367493E-18
2.746269E+03	1.761008E-17	1.395937E-18
2.786070E+03	1.804859E-17	1.426473E-18
2.825871E+03	1.852638E-17	1.459780E-18
2.865672E+03	1.904436E-17	1.495891E-18
2.905473E+03	1.960863E-17	1.535238E-18
2.945274E+03	2.022786E-17	1.578450E-18
2.985075E+03	2.090265E-17	1.625513E-18
2.995025E+03	2.108109E-17	1.637957E-18
3.004975E+03	2.126505E-17	1.650794E-18
3.014925E+03	2.145185E-17	1.663817E-18
3.024876E+03	2.164423E-17	1.677237E-18
3.034826E+03	2.184247E-17	1.691073E-18
3.044776E+03	2.204391E-17	1.705120E-18
3.054726E+03	2.225171E-17	1.719619E-18
3.064677E+03	2.246307E-17	1.734354E-18
3.074627E+03	2.268326E-17	1.749728E-18
3.084577E+03	2.290687E-17	1.765323E-18
3.094527E+03	2.313914E-17	1.781543E-18
3.104478E+03	2.337468E-17	1.797969E-18
3.114428E+03	2.361878E-17	1.815006E-18
3.124378E+03	2.386601E-17	1.832237E-18
3.134328E+03	2.412169E-17	1.850068E-18
3.144279E+03	2.438310E-17	1.868287E-18
3.154229E+03	2.465017E-17	1.886889E-18
3.164179E+03	2.492290E-17	1.905870E-18
3.174129E+03	2.520391E-17	1.925430E-18
3.184080E+03	2.549320E-17	1.945566E-18
3.194030E+03	2.578803E-17	1.966067E-18
3.203980E+03	2.609106E-17	1.987134E-18
3.213930E+03	2.639960E-17	2.008558E-18
3.223881E+03	2.671629E-17	2.030541E-18
3.233831E+03	2.704114E-17	2.053079E-18
3.243781E+03	2.737412E-17	2.076167E-18
3.253731E+03	2.771522E-17	2.099803E-18
3.263682E+03	2.806442E-17	2.123983E-18
3.273632E+03	2.842170E-17	2.148701E-18
3.283582E+03	2.878976E-17	2.174160E-18
3.293532E+03	2.916317E-17	2.199947E-18
3.303483E+03	2.955005E-17	2.226672E-18
3.313433E+03	2.994225E-17	2.253716E-18
3.323383E+03	3.034791E-17	2.281689E-18
3.333333E+03	3.076156E-17	2.310178E-18
3.343284E+03	3.118594E-17	2.339385E-18
3.353234E+03	3.162101E-17	2.369302E-18
3.363184E+03	3.206677E-17	2.399927E-18
3.373134E+03	3.252321E-17	2.431256E-18
3.383085E+03	3.299303E-17	2.463485E-18
3.393035E+03	3.347349E-17	2.496406E-18
3.402985E+03	3.396459E-17	2.530017E-18
3.412935E+03	3.446902E-17	2.564512E-18
3.422886E+03	3.498404E-17	2.599684E-18
3.432836E+03	3.551509E-17	2.635933E-18
3.442786E+03	3.605670E-17	2.672848E-18
3.452736E+03	3.661429E-17	2.710826E-18
3.462687E+03	3.718511E-17	2.749658E-18
3.472637E+03	3.776914E-17	2.789338E-18
3.482587E+03	3.836908E-17	2.830062E-18
3.492537E+03	3.898217E-17	2.871618E-18
3.502488E+03	3.961111E-17	2.914202E-18
3.512438E+03	4.025586E-17	2.957804E-18
3.522388E+03	4.091639E-17	3.002416E-18
3.532338E+03	4.159266E-17	3.048030E-18
3.542289E+03	4.228736E-17	3.094838E-18
3.552239E+03	4.299772E-17	3.142628E-18
3.562189E+03	4.372368E-17	3.191392E-18
3.572139E+03	4.447067E-17	3.241518E-18
3.582090E+03	4.523317E-17	3.292597E-18
3.592040E+03	4.601659E-17	3.345017E-18
3.601990E+03	4.681813E-17	3.398566E-18
3.611940E+03	4.763775E-17	3.453233E-18
3.621891E+03	4.847810E-17	3.509205E-18
3.631841E+03	4.933640E-17	3.566270E-18
3.641791E+03	5.021802E-17	3.624811E-18
3.651741E+03	5.111746E-17	3.684421E-18
3.661692E+03	5.204006E-17	3.745477E-18
3.671642E+03	5.298305E-17	3.807771E-18
3.681592E+03	5.394635E-17	3.871289E-18
3.691542E+03	5.493529E-17	3.936404E-18
3.701493E+03	5.594437E-17	4.002711E-18
3.711443E+03	5.697620E-17	4.070390E-18
3.721393E+03	5.803071E-17	4.139425E-18
3.731343E+03	5.911052E-17	4.209994E-18
3.741294E+03	6.021280E-17	4.281884E-18
3.751244E+03	6.134018E-17	4.355272E-18
3.761194E+03	6.249256E-17	4.430139E-18
3.771144E+03	6.366711E-17	4.506277E-18
3.781095E+03	6.486915E-17	4.584049E-18
3.791045E+03	6.609588E-17	4.663247E-18
3.800995E+03	6.734717E-17	4.743849E-18
3.810945E+03	6.862564E-17	4.826030E-18
3.820896E+03	6.993117E-17	4.909767E-18
3.830846E+03	7.126093E-17	4.994852E-18
3.840796E+03	7.261755E-17	5.081454E-18
3.850746E+03	7.400089E-17	5.169554E-18
3.860697E+03	7.541084E-17	5.259130E-18
3.870647E+03	7.684731E-17	5.350164E-18
3.880597E+03	7.831288E-17	5.442822E-18
3.890547E+03	7.980207E-17	5.536708E-18
3.900498E+03	8.132016E-17	5.632178E-18
3.910448E+03	8.286706E-17	5.729211E-18
3.920398E+03	8.443997E-17	5.827600E-18
3.930348E+03	8.603882E-17	5.927325E-18
3.940299E+03	8.766622E-17	6.028554E-18
3.950249E+03	8.932208E-17	6.131265E-18
3.960199E+03	9.100098E-17	6.235073E-18
3.970149E+03	9.271091E-17	6.340510E-18
3.980100E+03	9.444377E-17	6.447008E-18
3.990050E+03	9.620488E-17	6.554916E-18
4.000000E+03	9.799423E-17	6.664219E-18
4.009950E+03	9.980642E-17	6.774534E-18
4.019900E+03	1.016442E-16	6.886032E-18
4.029851E+03	1.035101E-16	6.998875E-18
4.039801E+03	1.053989E-16	7.112697E-18
4.049751E+03	1.073107E-16	7.227478E-18
4.059701E+03	1.092481E-16	7.343384E-18
4.069652E+03	1.112086E-16	7.460238E-18
4.079602E+03	1.131922E-16	7.578026E-18
4.089552E+03	1.151965E-16	7.696565E-18
4.099502E+03	1.172242E-16	7.816021E-18
4.109453E+03	1.192700E-16	7.936039E-18
4.119403E+03	1.213396E-16	8.056968E-18
4.129353E+03	1.234252E-16	8.178285E-18
4.139303E+03	1.255295E-16	8.300163E-18
4.149254E+03	1.276529E-16	8.422601E-18
4.159204E+03	1.297904E-16	8.545265E-18
4.169154E+03	1.319448E-16	8.668317E-18
4.179104E+03	1.341139E-16	8.791611E-18
4.189055E+03	1.362952E-16	8.914968E-18
4.199005E+03	1.384892E-16	9.038411E-18
4.208955E+03	1.406963E-16	9.161949E-18
4.218905E+03	1.429115E-16	9.285249E-18
4.228856E+03	1.451354E-16	9.408336E-18
4.238806E+03	1.473656E-16	9.531054E-18
4.248756E+03	1.496029E-16	9.653433E-18
4.258706E+03	1.518422E-16	9.775146E-18
4.268657E+03	1.540869E-16	9.896396E-18
4.278607E+03	1.563295E-16	1.001670E-17
4.288557E+03	1.585759E-16	1.013642E-17
4.298507E+03	1.608160E-16	1.025492E-17
4.308458E+03	1.630531E-16	1.037239E-17
4.318408E+03	1.652827E-16	1.048854E-17
4.328358E+03	1.675052E-16	1.060341E-17
4.338308E+03	1.697134E-16	1.071652E-17
4.348259E+03	1.719078E-16	1.082792E-17
4.358209E+03	1.740842E-16	1.093733E-17
4.368159E+03	1.762401E-16	1.104461E-17
4.378109E+03	1.783685E-16	1.114932E-17
4.388060E+03	1.804674E-16	1.125133E-17
4.398010E+03	1.825295E-16	1.135021E-17
4.407960E+03	1.845475E-16	1.144551E-17
4.417910E+03	1.865167E-16	1.153696E-17
4.427861E+03	1.884297E-16	1.162413E-17
4.437811E+03	1.902845E-16	1.170690E-17
4.447761E+03	1.920867E-16	1.178564E-17
4.457711E+03	1.938392E-16	1.186056E-17
4.467662E+03	1.955426E-16	1.193170E-17
4.477612E+03	1.972075E-16	1.199974E-17
4.487562E+03	1.988289E-16	1.206437E-17
4.497512E+03	2.004124E-16	1.212598E-17
4.507463E+03	2.019609E-16	1.218472E-17
4.517413E+03	2.034771E-16	1.224079E-17
4.527363E+03	2.049612E-16	1.229421E-17
4.537313E+03	2.064157E-16	1.234514E-17
4.547264E+03	2.078408E-16	1.239360E-17
4.557214E+03	2.092393E-16	1.243976E-17
4.567164E+03	2.106109E-16	1.248363E-17
4.577114E+03	2.119582E-16	1.252536E-17
4.587065E+03	2.132838E-16	1.256512E-17
4.597015E+03	2.145849E-16	1.260273E-17
4.606965E+03	2.158691E-16	1.263867E-17
4.616915E+03	2.171310E-16	1.267262E-17
4.626866E+03	2.183756E-16	1.270488E-17
4.636816E+03	2.196052E-16	1.273559E-17
4.646766E+03	2.208195E-16	1.276473E-17
4.656716E+03	2.220180E-16	1.279227E-17
4.666667E+03	2.232084E-16	1.281868E-17
4.676617E+03	2.243878E-16	1.284376E-17
4.686567E+03	2.255580E-16	1.286765E-17
4.696517E+03	2.267242E-16	1.289062E-17
4.706468E+03	2.278886E-16	1.291281E-17
4.716418E+03	2.290508E-16	1.293418E-17
4.726368E+03	2.302156E-16	1.295500E-17
4.736318E+03	2.313852E-16	1.297540E-17
4.746269E+03	2.325621E-16	1.299550E-17
4.756219E+03	2.337537E-16	1.301571E-17
4.766169E+03	2.349573E-16	1.303585E-17
4.776119E+03	2.361721E-16	1.305589E-17
4.786070E+03	2.373980E-16	1.307579E-17
4.796020E+03	2.386318E-16	1.309537E-17
4.805970E+03	2.398731E-16	1.311461E-17
4.815920E+03	2.411191E-16	1.313333E-17
4.825871E+03	2.423692E-16	1.315151E-17
4.835821E+03	2.436206E-16	1.316897E-17
4.845771E+03	2.448728E-16	1.318570E-17
4.855721E+03	2.461259E-16	1.320167E-17
4.865672E+03	2.473768E-16	1.321674E-17
4.875622E+03	2.486256E-16	1.323089E-17
4.885572E+03	2.498751E-16	1.324426E-17
4.895522E+03	2.511196E-16	1.325658E-17
4.905473E+03	2.523649E-16	1.326811E-17
4.915423E+03	2.536053E-16	1.327857E-17
4.925373E+03	2.548436E-16	1.328810E-17
4.935323E+03	2.560802E-16	1.329672E-17
4.945274E+03	2.573120E-16	1.330426E-17
4.955224E+03	2.585421E-16	1.331087E-17
4.965174E+03	2.597707E-16	1.331657E-17
4.975124E+03	2.609978E-16	1.332135E-17
4.985075E+03	2.622207E-16	1.332508E-17
4.995025E+03	2.634424E-16	1.332788E-17
5.004975E+03	2.646631E-16	1.332979E-17
5.014925E+03	2.658828E-16	1.333078E-17
5.024876E+03	2.671019E-16	1.333088E-17
5.034826E+03	2.683204E-16	1.333009E-17
5.044776E+03	2.695385E-16	1.332839E-17
5.054726E+03	2.707565E-16	1.332580E-17
5.064677E+03	2.719773E-16	1.332248E-17
5.074627E+03	2.731983E-16	1.331827E-17
5.084577E+03	2.744197E-16	1.331318E-17
5.094527E+03	2.756417E-16	1.330722E-17
5.104478E+03	2.768674E-16	1.330052E-17
5.114428E+03	2.780970E-16	1.329310E-17
5.124378E+03	2.793278E-16	1.328481E-17
5.134328E+03	2.805601E-16	1.327566E-17
5.144279E+03	2.818000E-16	1.326594E-17
5.154229E+03	2.830418E-16	1.325536E-17
5.164179E+03	2.842887E-16	1.324407E-17
5.174129E+03	2.855409E-16	1.323206E-17
5.184080E+03	2.867988E-16	1.321936E-17
5.194030E+03	2.880627E-16	1.320595E-17
5.203980E+03	2.893326E-16	1.319184E-17
5.213930E+03	2.906092E-16	1.317703E-17
5.223881E+03	2.918925E-16	1.316153E-17
5.233831E+03	2.931830E-16	1.314534E-17
5.243781E+03	2.944838E-16	1.312860E-17
5.253731E+03	2.957925E-16	1.311117E-17
5.263682E+03	2.971092E-16	1.309306E-17
5.273632E+03	2.984374E-16	1.307440E-17
5.283582E+03	2.997713E-16	1.305494E-17
5.293532E+03	3.011207E-16	1.303507E-17
5.303483E+03	3.024765E-16	1.301440E-17
5.313433E+03	3.038453E-16	1.299320E-17
5.323383E+03	3.052277E-16	1.297147E-17
5.333333E+03	3.066178E-16	1.294895E-17
5.343284E+03	3.080223E-16	1.292591E-17
5.353234E+03	3.094417E-16	1.290235E-17
5.363184E+03	3.108701E-16	1.287801E-17
5.373134E+03	3.123145E-16	1.285317E-17
5.383085E+03	3.137721E-16	1.282769E-17
5.393035E+03	3.152467E-16	1.280170E-17
5.402985E+03	3.167324E-16	1.277497E-17
5.412935E+03	3.182364E-16	1.274774E-17
5.422886E+03	3.197525E-16	1.271977E-17
5.432836E+03	3.212880E-16	1.269132E-17
5.442786E+03	3.228369E-16	1.266214E-17
5.452736E+03	3.244067E-16	1.263249E-17
5.462687E+03	3.259913E-16	1.260212E-17
5.472637E+03	3.275980E-16	1.257130E-17
5.482587E+03	3.292275E-16	1.254002E-17
5.492537E+03	3.308742E-16	1.250804E-17
5.502488E+03	3.325487E-16	1.247575E-17
5.512438E+03	3.342418E-16	1.244278E-17
5.522388E+03	3.359611E-16	1.240938E-17
5.532338E+03	3.377043E-16	1.237544E-17
5.542289E+03	3.394721E-16	1.234096E-17
5.552239E+03	3.412657E-16	1.230595E-17
5.562189E+03	3.430858E-16	1.227042E-17
5.572139E+03	3.449335E-16	1.223436E-17
5.582090E+03	3.468099E-16	1.219780E-17
5.592040E+03	3.487197E-16	1.216086E-17
5.601990E+03	3.506602E-16	1.212342E-17
5.611940E+03	3.526329E-16	1.208550E-17
5.621891E+03	3.546388E-16	1.204709E-17
5.631841E+03	3.566828E-16	1.200832E-17
5.641791E+03	3.587590E-16	1.196897E-17
5.651741E+03	3.608758E-16	1.192926E-17
5.661692E+03	3.630310E-16	1.188910E-17
5.671642E+03	3.652296E-16	1.184859E-17
5.681592E+03	3.674659E-16	1.180752E-17
5.691542E+03	3.697447E-16	1.176600E-17
5.701493E+03	3.720713E-16	1.172415E-17
5.711443E+03	3.744400E-16	1.168174E-17
5.721393E+03	3.768559E-16	1.163890E-17
5.731343E+03	3.793206E-16	1.159561E-17
5.741294E+03	3.818358E-16	1.155189E-17
5.751244E+03	3.844029E-16	1.150773E-17
5.761194E+03	3.870201E-16	1.146301E-17
5.771144E+03	3.896890E-16	1.141775E-17
5.781095E+03	3.924149E-16	1.137204E-17
5.791045E+03	3.951958E-16	1.132576E-17
5.800995E+03	3.980375E-16	1.127904E-17
5.810945E+03	4.009338E-16	1.123164E-17
5.820896E+03	4.038943E-16	1.118376E-17
5.830846E+03	4.069128E-16	1.113519E-17
5.840796E+03	4.099992E-16	1.108613E-17
5.850746E+03	4.131473E-16	1.103636E-17
5.860697E+03	4.163626E-16	1.098597E-17
5.870647E+03	4.196430E-16	1.093484E-17
5.880597E+03	4.229941E-16	1.088305E-17
5.890547E+03	4.264137E-16	1.083050E-17
5.900498E+03	4.299032E-16	1.077715E-17
5.910448E+03	4.334644E-16	1.072298E-17
5.920398E+03	4.371028E-16	1.066809E-17
5.930348E+03	4.408116E-16	1.061224E-17
5.940299E+03	4.445965E-16	1.055550E-17
5.950249E+03	4.484587E-16	1.049785E-17
5.960199E+03	4.523949E-16	1.043916E-17
5.970149E+03	4.564065E-16	1.037941E-17
5.980100E+03	4.604941E-16	1.031856E-17
5.990050E+03	4.646630E-16	1.025667E-17
6.000000E+03	4.689051E-16	1.019353E-17
6.009950E+03	4.732206E-16	1.012909E-17
6.019900E+03	4.776141E-16	1.006343E-17
6.029851E+03	4.820767E-16	9.996313E-18
6.039801E+03	4.866171E-16	9.927906E-18
6.049751E+03	4.912209E-16	9.857890E-18
6.059701E+03	4.958965E-16	9.786429E-18
6.069652E+03	5.006332E-16	9.713306E-18
6.079602E+03	5.054342E-16	9.638593E-18
6.089552E+03	5.102928E-16	9.562178E-18
6.099502E+03	5.152013E-16	9.483953E-18
6.109453E+03	5.201674E-16	9.404098E-18
6.119403E+03	5.251828E-16	9.322514E-18
6.129353E+03	5.302437E-16	9.239207E-18
6.139303E+03	5.353517E-16	9.154281E-18
6.149254E+03	5.405023E-16	9.067756E-18
6.159204E+03	5.456961E-16	8.979753E-18
6.169154E+03	5.509172E-16	8.890141E-18
6.179104E+03	5.561595E-16	8.798982E-18
6.189055E+03	5.614220E-16	8.706440E-18
6.199005E+03	5.666927E-16	8.612534E-18
6.208955E+03	5.719698E-16	8.517470E-18
6.218905E+03	5.772517E-16	8.421480E-18
6.228856E+03	5.825246E-16	8.324650E-18
6.238806E+03	5.877913E-16	8.227338E-18
6.248756E+03	5.930370E-16	8.129683E-18
6.258706E+03	5.982635E-16	8.032098E-18
6.268657E+03	6.034607E-16	7.934863E-18
6.278607E+03	6.086175E-16	7.838292E-18
6.288557E+03	6.137283E-16	7.742809E-18
6.298507E+03	6.187808E-16	7.648798E-18
6.308458E+03	6.237681E-16	7.556756E-18
6.318408E+03	6.286702E-16	7.467060E-18
6.328358E+03	6.334722E-16	7.380202E-18
6.338308E+03	6.381715E-16	7.296860E-18
6.348259E+03	6.427518E-16	7.217585E-18
6.358209E+03	6.471829E-16	7.142811E-18
6.368159E+03	6.514531E-16	7.073213E-18
6.378109E+03	6.555498E-16	7.009476E-18
6.388060E+03	6.594396E-16	6.952071E-18
6.398010E+03	6.631082E-16	6.901675E-18
6.407960E+03	6.665267E-16	6.858799E-18
6.417910E+03	6.696765E-16	6.824030E-18
6.427861E+03	6.725697E-16	6.798222E-18
6.437811E+03	6.751924E-16	6.781890E-18
6.447761E+03	6.775440E-16	6.775609E-18
6.457711E+03	6.796375E-16	6.779992E-18
6.467662E+03	6.814646E-16	6.795332E-18
6.477612E+03	6.830307E-16	6.821813E-18
6.487562E+03	6.843556E-16	6.859494E-18
6.497512E+03	6.854592E-16	6.908316E-18
6.507463E+03	6.863468E-16	6.967982E-18
6.517413E+03	6.870308E-16	7.038178E-18
6.527363E+03	6.875385E-16	7.118673E-18
6.537313E+03	6.878604E-16	7.208802E-18
6.547264E+03	6.880161E-16	7.308154E-18
6.557214E+03	6.880179E-16	7.416211E-18
6.567164E+03	6.878634E-16	7.532281E-18
6.577114E+03	6.875645E-16	7.655812E-18
6.587065E+03	6.871332E-16	7.786260E-18
6.597015E+03	6.865591E-16	7.922831E-18
6.606965E+03	6.858688E-16	8.065169E-18
6.616915E+03	6.850517E-16	8.212508E-18
6.626866E+03	6.841194E-16	8.364362E-18
6.636816E+03	6.830755E-16	8.520180E-18
6.646766E+03	6.819168E-16	8.679348E-18
6.656716E+03	6.806619E-16	8.841558E-18
6.666667E+03	6.793068E-16	9.006246E-18
6.676617E+03	6.778477E-16	9.172872E-18
6.686567E+03	6.763031E-16	9.341225E-18
6.696517E+03	6.746614E-16	9.510711E-18
6.706468E+03	6.729332E-16	9.681072E-18
6.716418E+03	6.711220E-16	9.851975E-18
6.726368E+03	6.692386E-16	1.002322E-17
6.736318E+03	6.672708E-16	1.019430E-17
6.746269E+03	6.652292E-16	1.036505E-17
6.756219E+03	6.631094E-16	1.053510E-17
6.766169E+03	6.609296E-16	1.070449E-17
6.776119E+03	6.586850E-16	1.087287E-17
6.786070E+03	6.563711E-16	1.103992E-17
6.796020E+03	6.540057E-16	1.120574E-17
6.805970E+03	6.515767E-16	1.136990E-17
6.815920E+03	6.490943E-16	1.153239E-17
6.825871E+03	6.465616E-16	1.169309E-17
6.835821E+03	6.439735E-16	1.185173E-17
6.845771E+03	6.413483E-16	1.200849E-17
6.855721E+03	6.386731E-16	1.216300E-17
6.865672E+03	6.359662E-16	1.231546E-17
6.875622E+03	6.332151E-16	1.246552E-17
6.885572E+03	6.304300E-16	1.261327E-17
6.895522E+03	6.276137E-16	1.275865E-17
6.905473E+03	6.247614E-16	1.290147E-17
6.915423E+03	6.218907E-16	1.304201E-17
6.925373E+03	6.189969E-16	1.318009E-17
6.935323E+03	6.160752E-16	1.331554E-17
6.945274E+03	6.131356E-16	1.344850E-17
6.955224E+03	6.101885E-16	1.357916E-17
6.965174E+03	6.072216E-16	1.370718E-17
6.975124E+03	6.042447E-16	1.383274E-17
6.985075E+03	6.012609E-16	1.395587E-17
6.995025E+03	5.982798E-16	1.407676E-17
7.004975E+03	5.952896E-16	1.419512E-17
7.014925E+03	5.923002E-16	1.431113E-17
7.024876E+03	5.893140E-16	1.442486E-17
7.034826E+03	5.863339E-16	1.453636E-17
7.044776E+03	5.833622E-16	1.464566E-17
7.054726E+03	5.804090E-16	1.475303E-17
7.064677E+03	5.774621E-16	1.485816E-17
7.074627E+03	5.745387E-16	1.496148E-17
7.084577E+03	5.716339E-16	1.506289E-17
7.094527E+03	5.687502E-16	1.516246E-17
7.104478E+03	5.658901E-16	1.526028E-17
7.114428E+03	5.630562E-16	1.535642E-17
7.124378E+03	5.602579E-16	1.545117E-17
7.134328E+03	5.574904E-16	1.554443E-17
7.144279E+03	5.547562E-16	1.563629E-17
7.154229E+03	5.520576E-16	1.572685E-17
7.164179E+03	5.494039E-16	1.581641E-17
7.174129E+03	5.467905E-16	1.590487E-17
7.184080E+03	5.442265E-16	1.599255E-17
7.194030E+03	5.417071E-16	1.607933E-17
7.203980E+03	5.392415E-16	1.616556E-17
7.213930E+03	5.368251E-16	1.625111E-17
7.223881E+03	5.344665E-16	1.633633E-17
7.233831E+03	5.321612E-16	1.642111E-17
7.243781E+03	5.299181E-16	1.650579E-17
7.253731E+03	5.277390E-16	1.659048E-17
7.263682E+03	5.256261E-16	1.667531E-17
7.273632E+03	5.235742E-16	1.676017E-17
7.283582E+03	5.215922E-16	1.684541E-17
7.293532E+03	5.196819E-16	1.693116E-17
7.303483E+03	5.178451E-16	1.701753E-17
7.313433E+03	5.160836E-16	1.710466E-17
7.323383E+03	5.144057E-16	1.719289E-17
7.333333E+03	5.128063E-16	1.728213E-17
7.343284E+03	5.112873E-16	1.737250E-17
7.353234E+03	5.098567E-16	1.746435E-17
7.363184E+03	5.085161E-16	1.755783E-17
7.373134E+03	5.072739E-16	1.765328E-17
7.383085E+03	5.061177E-16	1.775038E-17
7.393035E+03	5.050628E-16	1.784973E-17
7.402985E+03	5.041100E-16	1.795144E-17
7.412935E+03	5.032543E-16	1.805543E-17
7.422886E+03	5.024966E-16	1.816181E-17
7.432836E+03	5.018381E-16	1.827070E-17
7.442786E+03	5.012734E-16	1.838198E-17
7.452736E+03	5.008032E-16	1.849576E-17
7.462687E+03	5.004289E-16	1.861217E-17
7.472637E+03	5.001445E-16	1.873105E-17
7.482587E+03	4.999577E-16	1.885278E-17
7.492537E+03	4.998693E-16	1.897745E-17
7.502488E+03	4.998666E-16	1.910467E-17
7.512438E+03	4.999640E-16	1.923504E-17
7.522388E+03	5.001483E-16	1.936815E-17
7.532338E+03	5.004272E-16	1.950434E-17
7.542289E+03	5.008012E-16	1.964372E-17
7.552239E+03	5.012642E-16	1.978611E-17
7.562189E+03	5.018235E-16	1.993187E-17
7.572139E+03	5.024796E-16	2.008109E-17
7.582090E+03	5.032258E-16	2.023357E-17
7.592040E+03	5.040626E-16	2.038939E-17
7.601990E+03	5.049972E-16	2.054892E-17
7.611940E+03	5.060228E-16	2.071194E-17
7.621891E+03	5.071397E-16	2.087853E-17
7.631841E+03	5.083550E-16	2.104904E-17
7.641791E+03	5.096547E-16	2.122296E-17
7.651741E+03	5.110530E-16	2.140094E-17
7.661692E+03	5.125429E-16	2.158275E-17
7.671642E+03	5.141315E-16	2.176876E-17
7.681592E+03	5.158045E-16	2.195841E-17
7.691542E+03	5.175762E-16	2.215238E-17
7.701493E+03	5.194393E-16	2.235041E-17
7.711443E+03	5.214008E-16	2.255287E-17
7.721393E+03	5.234465E-16	2.275920E-17
