#wls	flux	fluxerr
1.592040E+03	1.421318E-17	5.935726E-19
1.631841E+03	1.440599E-17	6.008417E-19
1.671642E+03	1.459432E-17	6.078816E-19
1.711443E+03	1.477509E-17	6.145639E-19
1.751244E+03	1.494985E-17	6.209525E-19
1.791045E+03	1.511251E-17	6.267949E-19
1.830846E+03	1.526082E-17	6.319991E-19
1.870647E+03	1.538611E-17	6.362078E-19
1.910448E+03	1.548442E-17	6.392606E-19
1.950249E+03	1.555039E-17	6.409415E-19
1.990050E+03	1.558137E-17	6.411463E-19
2.029851E+03	1.559224E-17	6.404937E-19
2.069652E+03	1.561182E-17	6.401685E-19
2.109453E+03	1.569241E-17	6.423091E-19
2.149254E+03	1.588495E-17	6.489824E-19
2.189055E+03	1.621571E-17	6.612324E-19
2.228856E+03	1.667114E-17	6.784726E-19
2.268657E+03	1.721800E-17	6.993201E-19
2.308458E+03	1.781683E-17	7.221497E-19
2.348259E+03	1.843545E-17	7.456419E-19
2.388060E+03	1.906059E-17	7.692528E-19
2.427861E+03	1.968922E-17	7.928532E-19
2.467662E+03	2.031448E-17	8.161626E-19
2.507463E+03	2.093861E-17	8.392672E-19
2.547264E+03	2.157207E-17	8.625813E-19
2.587065E+03	2.221186E-17	8.859772E-19
2.626866E+03	2.286901E-17	9.098872E-19
2.666667E+03	2.353977E-17	9.341532E-19
2.706468E+03	2.423115E-17	9.590422E-19
2.746269E+03	2.494624E-17	9.846653E-19
2.786070E+03	2.568798E-17	1.011125E-18
2.825871E+03	2.645916E-17	1.038516E-18
2.865672E+03	2.726248E-17	1.066929E-18
2.905473E+03	2.809622E-17	1.096279E-18
2.945274E+03	2.897169E-17	1.126990E-18
2.985075E+03	2.988262E-17	1.158797E-18
2.995025E+03	3.011734E-17	1.166973E-18
3.004975E+03	3.035446E-17	1.175224E-18
3.014925E+03	3.059876E-17	1.183733E-18
3.024876E+03	3.084092E-17	1.192140E-18
3.034826E+03	3.108604E-17	1.200642E-18
3.044776E+03	3.133421E-17	1.209241E-18
3.054726E+03	3.159095E-17	1.218150E-18
3.064677E+03	3.184648E-17	1.226992E-18
3.074627E+03	3.210553E-17	1.235948E-18
3.084577E+03	3.237293E-17	1.245204E-18
3.094527E+03	3.264373E-17	1.254568E-18
3.104478E+03	3.291288E-17	1.263847E-18
3.114428E+03	3.319027E-17	1.273420E-18
3.124378E+03	3.347089E-17	1.283093E-18
3.134328E+03	3.374959E-17	1.292670E-18
3.144279E+03	3.403652E-17	1.302538E-18
3.154229E+03	3.432658E-17	1.312502E-18
3.164179E+03	3.461975E-17	1.322560E-18
3.174129E+03	3.491603E-17	1.332712E-18
3.184080E+03	3.521538E-17	1.342956E-18
3.194030E+03	3.551782E-17	1.353293E-18
3.203980E+03	3.582336E-17	1.363722E-18
3.213930E+03	3.613741E-17	1.374448E-18
3.223881E+03	3.644919E-17	1.385062E-18
3.233831E+03	3.676410E-17	1.395767E-18
3.243781E+03	3.708217E-17	1.406566E-18
3.253731E+03	3.740897E-17	1.417667E-18
3.263682E+03	3.773345E-17	1.428653E-18
3.273632E+03	3.806680E-17	1.439946E-18
3.283582E+03	3.839782E-17	1.451122E-18
3.293532E+03	3.873786E-17	1.462611E-18
3.303483E+03	3.908134E-17	1.474198E-18
3.313433E+03	3.942246E-17	1.485668E-18
3.323383E+03	3.977286E-17	1.497456E-18
3.333333E+03	4.012683E-17	1.509348E-18
3.343284E+03	4.048439E-17	1.521343E-18
3.353234E+03	4.084561E-17	1.533445E-18
3.363184E+03	4.121052E-17	1.545652E-18
3.373134E+03	4.157919E-17	1.557969E-18
3.383085E+03	4.195167E-17	1.570395E-18
3.393035E+03	4.232801E-17	1.582932E-18
3.402985E+03	4.270827E-17	1.595582E-18
3.412935E+03	4.309249E-17	1.608346E-18
3.422886E+03	4.348074E-17	1.621225E-18
3.432836E+03	4.387308E-17	1.634222E-18
3.442786E+03	4.427595E-17	1.647575E-18
3.452736E+03	4.467667E-17	1.660812E-18
3.462687E+03	4.508165E-17	1.674171E-18
3.472637E+03	4.549747E-17	1.687895E-18
3.482587E+03	4.591119E-17	1.701503E-18
3.492537E+03	4.633596E-17	1.715483E-18
3.502488E+03	4.675863E-17	1.729346E-18
3.512438E+03	4.719258E-17	1.743588E-18
3.522388E+03	4.763122E-17	1.757963E-18
3.532338E+03	4.806779E-17	1.772221E-18
3.542289E+03	4.851595E-17	1.786866E-18
3.552239E+03	4.896899E-17	1.801650E-18
3.562189E+03	4.941995E-17	1.816315E-18
3.572139E+03	4.988284E-17	1.831376E-18
3.582090E+03	5.035076E-17	1.846579E-18
3.592040E+03	5.082376E-17	1.861924E-18
3.601990E+03	5.130189E-17	1.877414E-18
3.611940E+03	5.177794E-17	1.892783E-18
3.621891E+03	5.226644E-17	1.908563E-18
3.631841E+03	5.276022E-17	1.924489E-18
3.641791E+03	5.325932E-17	1.940563E-18
3.651741E+03	5.376380E-17	1.956786E-18
3.661692E+03	5.427368E-17	1.973159E-18
3.671642E+03	5.478903E-17	1.989682E-18
3.681592E+03	5.531754E-17	2.006634E-18
3.691542E+03	5.584396E-17	2.023461E-18
3.701493E+03	5.637595E-17	2.040440E-18
3.711443E+03	5.691353E-17	2.057571E-18
3.721393E+03	5.745673E-17	2.074855E-18
3.731343E+03	5.800560E-17	2.092291E-18
3.741294E+03	5.856818E-17	2.110170E-18
3.751244E+03	5.912849E-17	2.127914E-18
3.761194E+03	5.969451E-17	2.145810E-18
3.771144E+03	6.026628E-17	2.163860E-18
3.781095E+03	6.085209E-17	2.182358E-18
3.791045E+03	6.143543E-17	2.200713E-18
3.800995E+03	6.202454E-17	2.219218E-18
3.810945E+03	6.262792E-17	2.238178E-18
3.820896E+03	6.322863E-17	2.256986E-18
3.830846E+03	6.383511E-17	2.275942E-18
3.840796E+03	6.445605E-17	2.295355E-18
3.850746E+03	6.507410E-17	2.314606E-18
3.860697E+03	6.569788E-17	2.334003E-18
3.870647E+03	6.633627E-17	2.353858E-18
3.880597E+03	6.697151E-17	2.373541E-18
3.890547E+03	6.762146E-17	2.393685E-18
3.900498E+03	6.826803E-17	2.413647E-18
3.910448E+03	6.892018E-17	2.433745E-18
3.920398E+03	6.958714E-17	2.454303E-18
3.930348E+03	7.025037E-17	2.474666E-18
3.940299E+03	7.092845E-17	2.495488E-18
3.950249E+03	7.160254E-17	2.516107E-18
3.960199E+03	7.228192E-17	2.536846E-18
3.970149E+03	7.297617E-17	2.558042E-18
3.980100E+03	7.366598E-17	2.579018E-18
3.990050E+03	7.437064E-17	2.600447E-18
4.000000E+03	7.507055E-17	2.621643E-18
4.009950E+03	7.577530E-17	2.642942E-18
4.019900E+03	7.649483E-17	2.664689E-18
4.029851E+03	7.720906E-17	2.686183E-18
4.039801E+03	7.792780E-17	2.707767E-18
4.049751E+03	7.866119E-17	2.729792E-18
4.059701E+03	7.938866E-17	2.751542E-18
4.069652E+03	8.012023E-17	2.773365E-18
4.079602E+03	8.086628E-17	2.795621E-18
4.089552E+03	8.160570E-17	2.817578E-18
4.099502E+03	8.234877E-17	2.839591E-18
4.109453E+03	8.309531E-17	2.861654E-18
4.119403E+03	8.385596E-17	2.884133E-18
4.129353E+03	8.460898E-17	2.906279E-18
4.139303E+03	8.536489E-17	2.928454E-18
4.149254E+03	8.612353E-17	2.950653E-18
4.159204E+03	8.688466E-17	2.972866E-18
4.169154E+03	8.764807E-17	2.995088E-18
4.179104E+03	8.842484E-17	3.017695E-18
4.189055E+03	8.919222E-17	3.039910E-18
4.199005E+03	8.996116E-17	3.062109E-18
4.208955E+03	9.073147E-17	3.084284E-18
4.218905E+03	9.150297E-17	3.106430E-18
4.228856E+03	9.227520E-17	3.128530E-18
4.238806E+03	9.303628E-17	3.150184E-18
4.248756E+03	9.380936E-17	3.172174E-18
4.258706E+03	9.458246E-17	3.194096E-18
4.268657E+03	9.535540E-17	3.215944E-18
4.278607E+03	9.612782E-17	3.237706E-18
4.288557E+03	9.688728E-17	3.258964E-18
4.298507E+03	9.765776E-17	3.280525E-18
4.308458E+03	9.842691E-17	3.301975E-18
4.318408E+03	9.918201E-17	3.322887E-18
4.328358E+03	9.994760E-17	3.344084E-18
4.338308E+03	1.006984E-16	3.364723E-18
4.348259E+03	1.014593E-16	3.385632E-18
4.358209E+03	1.022047E-16	3.405963E-18
4.368159E+03	1.029598E-16	3.426553E-18
4.378109E+03	1.036987E-16	3.446544E-18
4.388060E+03	1.044340E-16	3.466351E-18
4.398010E+03	1.051784E-16	3.486400E-18
4.407960E+03	1.059058E-16	3.505827E-18
4.417910E+03	1.066288E-16	3.525050E-18
4.427861E+03	1.073473E-16	3.544065E-18
4.437811E+03	1.080610E-16	3.562868E-18
4.447761E+03	1.087699E-16	3.581455E-18
4.457711E+03	1.094737E-16	3.599820E-18
4.467662E+03	1.101724E-16	3.617965E-18
4.477612E+03	1.108658E-16	3.635882E-18
4.487562E+03	1.115538E-16	3.653571E-18
4.497512E+03	1.122227E-16	3.670587E-18
4.507463E+03	1.128998E-16	3.687821E-18
4.517413E+03	1.135577E-16	3.704381E-18
4.527363E+03	1.142239E-16	3.721166E-18
4.537313E+03	1.148709E-16	3.737278E-18
4.547264E+03	1.155265E-16	3.753628E-18
4.557214E+03	1.161630E-16	3.769315E-18
4.567164E+03	1.168085E-16	3.785256E-18
4.577114E+03	1.174352E-16	3.800543E-18
4.587065E+03	1.180573E-16	3.815645E-18
4.597015E+03	1.186751E-16	3.830569E-18
4.606965E+03	1.192890E-16	3.845331E-18
4.616915E+03	1.198993E-16	3.859944E-18
4.626866E+03	1.205064E-16	3.874417E-18
4.636816E+03	1.211106E-16	3.888766E-18
4.646766E+03	1.216979E-16	3.902541E-18
4.656716E+03	1.222979E-16	3.916693E-18
4.666667E+03	1.228965E-16	3.930771E-18
4.676617E+03	1.234794E-16	3.944317E-18
4.686567E+03	1.240766E-16	3.958296E-18
4.696517E+03	1.246590E-16	3.971775E-18
4.706468E+03	1.252569E-16	3.985720E-18
4.716418E+03	1.258408E-16	3.999199E-18
4.726368E+03	1.264261E-16	4.012697E-18
4.736318E+03	1.270133E-16	4.026232E-18
4.746269E+03	1.276027E-16	4.039816E-18
4.756219E+03	1.281946E-16	4.053462E-18
4.766169E+03	1.287897E-16	4.067188E-18
4.776119E+03	1.293883E-16	4.081003E-18
4.786070E+03	1.299908E-16	4.094925E-18
4.796020E+03	1.305824E-16	4.108486E-18
4.805970E+03	1.311944E-16	4.122674E-18
4.815920E+03	1.317968E-16	4.136543E-18
4.825871E+03	1.324211E-16	4.151084E-18
4.835821E+03	1.330369E-16	4.165344E-18
4.845771E+03	1.336605E-16	4.179839E-18
4.855721E+03	1.342928E-16	4.194591E-18
4.865672E+03	1.349507E-16	4.210129E-18
4.875622E+03	1.356034E-16	4.225494E-18
4.885572E+03	1.362680E-16	4.241216E-18
4.895522E+03	1.369291E-16	4.256821E-18
4.905473E+03	1.376195E-16	4.273326E-18
4.915423E+03	1.383237E-16	4.290246E-18
4.925373E+03	1.390259E-16	4.307098E-18
4.935323E+03	1.397588E-16	4.324887E-18
4.945274E+03	1.404898E-16	4.342608E-18
4.955224E+03	1.412516E-16	4.361268E-18
4.965174E+03	1.420112E-16	4.379846E-18
4.975124E+03	1.427847E-16	4.398841E-18
4.985075E+03	1.435717E-16	4.418235E-18
4.995025E+03	1.443887E-16	4.438532E-18
5.004975E+03	1.451849E-16	4.458171E-18
5.014925E+03	1.460100E-16	4.478681E-18
5.024876E+03	1.468467E-16	4.499525E-18
5.034826E+03	1.476946E-16	4.520690E-18
5.044776E+03	1.485358E-16	4.541628E-18
5.054726E+03	1.494041E-16	4.563371E-18
5.064677E+03	1.502645E-16	4.584849E-18
5.074627E+03	1.511508E-16	4.607092E-18
5.084577E+03	1.520281E-16	4.629032E-18
5.094527E+03	1.529130E-16	4.651176E-18
5.104478E+03	1.538048E-16	4.673502E-18
5.114428E+03	1.547210E-16	4.696540E-18
5.124378E+03	1.556077E-16	4.718653E-18
5.134328E+03	1.565177E-16	4.741443E-18
5.144279E+03	1.574328E-16	4.764356E-18
5.154229E+03	1.583527E-16	4.787379E-18
5.164179E+03	1.592587E-16	4.809947E-18
5.174129E+03	1.601866E-16	4.833144E-18
5.184080E+03	1.610997E-16	4.855860E-18
5.194030E+03	1.620342E-16	4.879186E-18
5.203980E+03	1.629531E-16	4.902005E-18
5.213930E+03	1.638743E-16	4.924855E-18
5.223881E+03	1.648163E-16	4.948293E-18
5.233831E+03	1.657415E-16	4.971187E-18
5.243781E+03	1.666682E-16	4.994086E-18
5.253731E+03	1.675773E-16	5.016415E-18
5.263682E+03	1.685063E-16	5.039301E-18
5.273632E+03	1.694362E-16	5.062174E-18
5.283582E+03	1.703668E-16	5.085020E-18
5.293532E+03	1.712784E-16	5.107258E-18
5.303483E+03	1.722097E-16	5.130040E-18
5.313433E+03	1.731215E-16	5.152195E-18
5.323383E+03	1.740332E-16	5.174299E-18
5.333333E+03	1.749643E-16	5.196935E-18
5.343284E+03	1.758752E-16	5.218923E-18
5.353234E+03	1.767855E-16	5.240844E-18
5.363184E+03	1.776950E-16	5.262694E-18
5.373134E+03	1.786037E-16	5.284468E-18
5.383085E+03	1.795114E-16	5.306161E-18
5.393035E+03	1.803976E-16	5.327170E-18
5.402985E+03	1.813030E-16	5.348689E-18
5.412935E+03	1.822070E-16	5.370116E-18
5.422886E+03	1.830887E-16	5.390834E-18
5.432836E+03	1.839896E-16	5.412060E-18
5.442786E+03	1.848680E-16	5.432567E-18
5.452736E+03	1.857444E-16	5.452960E-18
5.462687E+03	1.866187E-16	5.473237E-18
5.472637E+03	1.875119E-16	5.494007E-18
5.482587E+03	1.883819E-16	5.514038E-18
5.492537E+03	1.892493E-16	5.533934E-18
5.502488E+03	1.901143E-16	5.553697E-18
5.512438E+03	1.909551E-16	5.572695E-18
5.522388E+03	1.918145E-16	5.592173E-18
5.532338E+03	1.926709E-16	5.611501E-18
5.542289E+03	1.935243E-16	5.630678E-18
5.552239E+03	1.943527E-16	5.649062E-18
5.562189E+03	1.951994E-16	5.667914E-18
5.572139E+03	1.960207E-16	5.685961E-18
5.582090E+03	1.968382E-16	5.703833E-18
5.592040E+03	1.976740E-16	5.722167E-18
5.601990E+03	1.984836E-16	5.739676E-18
5.611940E+03	1.992889E-16	5.756991E-18
5.621891E+03	2.000899E-16	5.774112E-18
5.631841E+03	2.008863E-16	5.791032E-18
5.641791E+03	2.016780E-16	5.807746E-18
5.651741E+03	2.024650E-16	5.824252E-18
5.661692E+03	2.032468E-16	5.840539E-18
5.671642E+03	2.040008E-16	5.855952E-18
5.681592E+03	2.047722E-16	5.871794E-18
5.691542E+03	2.055381E-16	5.887405E-18
5.701493E+03	2.062754E-16	5.902122E-18
5.711443E+03	2.070299E-16	5.917260E-18
5.721393E+03	2.077554E-16	5.931491E-18
5.731343E+03	2.084746E-16	5.945469E-18
5.741294E+03	2.092111E-16	5.959863E-18
5.751244E+03	2.099178E-16	5.973334E-18
5.761194E+03	2.106180E-16	5.986543E-18
5.771144E+03	2.113116E-16	5.999487E-18
5.781095E+03	2.119985E-16	6.012164E-18
5.791045E+03	2.126786E-16	6.024574E-18
5.800995E+03	2.133519E-16	6.036712E-18
5.810945E+03	2.140183E-16	6.048576E-18
5.820896E+03	2.146777E-16	6.060163E-18
5.830846E+03	2.153061E-16	6.070800E-18
5.840796E+03	2.159514E-16	6.081836E-18
5.850746E+03	2.165898E-16	6.092596E-18
5.860697E+03	2.171968E-16	6.102397E-18
5.870647E+03	2.178211E-16	6.112604E-18
5.880597E+03	2.184140E-16	6.121853E-18
5.890547E+03	2.190000E-16	6.130829E-18
5.900498E+03	2.196035E-16	6.140217E-18
5.910448E+03	2.201757E-16	6.148651E-18
5.920398E+03	2.207412E-16	6.156820E-18
5.930348E+03	2.213001E-16	6.164724E-18
5.940299E+03	2.218772E-16	6.173059E-18
5.950249E+03	2.224233E-16	6.180452E-18
5.960199E+03	2.229633E-16	6.187595E-18
5.970149E+03	2.234972E-16	6.194492E-18
5.980100E+03	2.240253E-16	6.201150E-18
5.990050E+03	2.245227E-16	6.206881E-18
6.000000E+03	2.250397E-16	6.213078E-18
6.009950E+03	2.255515E-16	6.219049E-18
6.019900E+03	2.260582E-16	6.224806E-18
6.029851E+03	2.265349E-16	6.229656E-18
6.039801E+03	2.270321E-16	6.234996E-18
6.049751E+03	2.275250E-16	6.240139E-18
6.059701E+03	2.279881E-16	6.244389E-18
6.069652E+03	2.284726E-16	6.249148E-18
6.079602E+03	2.289277E-16	6.253025E-18
6.089552E+03	2.293788E-16	6.256720E-18
6.099502E+03	2.298520E-16	6.260941E-18
6.109453E+03	2.302959E-16	6.264290E-18
6.119403E+03	2.307364E-16	6.267469E-18
6.129353E+03	2.311993E-16	6.271184E-18
6.139303E+03	2.316330E-16	6.274031E-18
6.149254E+03	2.320634E-16	6.276716E-18
6.159204E+03	2.324905E-16	6.279239E-18
6.169154E+03	2.329143E-16	6.281600E-18
6.179104E+03	2.333347E-16	6.283798E-18
6.189055E+03	2.337515E-16	6.285827E-18
6.199005E+03	2.341643E-16	6.287677E-18
6.208955E+03	2.345729E-16	6.289346E-18
6.218905E+03	2.349766E-16	6.290812E-18
6.228856E+03	2.353486E-16	6.291360E-18
6.238806E+03	2.357409E-16	6.292383E-18
6.248756E+03	2.361265E-16	6.293159E-18
6.258706E+03	2.365047E-16	6.293671E-18
6.268657E+03	2.368483E-16	6.293194E-18
6.278607E+03	2.372095E-16	6.293123E-18
6.288557E+03	2.375344E-16	6.292023E-18
6.298507E+03	2.378754E-16	6.291287E-18
6.308458E+03	2.381783E-16	6.289482E-18
6.318408E+03	2.384957E-16	6.287999E-18
6.328358E+03	2.387731E-16	6.285403E-18
6.338308E+03	2.390634E-16	6.283088E-18
6.348259E+03	2.393118E-16	6.279616E-18
6.358209E+03	2.395444E-16	6.275677E-18
6.368159E+03	2.397873E-16	6.271955E-18
6.378109E+03	2.399857E-16	6.267019E-18
6.388060E+03	2.401660E-16	6.261566E-18
6.398010E+03	2.403277E-16	6.255581E-18
6.407960E+03	2.404973E-16	6.249758E-18
6.417910E+03	2.406205E-16	6.242688E-18
6.427861E+03	2.407241E-16	6.235074E-18
6.437811E+03	2.408083E-16	6.226920E-18
6.447761E+03	2.408733E-16	6.218238E-18
6.457711E+03	2.409193E-16	6.209033E-18
6.467662E+03	2.409467E-16	6.199324E-18
6.477612E+03	2.409561E-16	6.189122E-18
6.487562E+03	2.409477E-16	6.178442E-18
6.497512E+03	2.409223E-16	6.167304E-18
6.507463E+03	2.408533E-16	6.155033E-18
6.517413E+03	2.407955E-16	6.143031E-18
6.527363E+03	2.407222E-16	6.130622E-18
6.537313E+03	2.406343E-16	6.117827E-18
6.547264E+03	2.405322E-16	6.104663E-18
6.557214E+03	2.403893E-16	6.090460E-18
6.567164E+03	2.402606E-16	6.076611E-18
6.577114E+03	2.401195E-16	6.062447E-18
6.587065E+03	2.399395E-16	6.047302E-18
6.597015E+03	2.397752E-16	6.032557E-18
6.606965E+03	2.395732E-16	6.016869E-18
6.616915E+03	2.393880E-16	6.001612E-18
6.626866E+03	2.391931E-16	5.986124E-18
6.636816E+03	2.389622E-16	5.969745E-18
6.646766E+03	2.387497E-16	5.953840E-18
6.656716E+03	2.385021E-16	5.937080E-18
6.666667E+03	2.382469E-16	5.920150E-18
6.676617E+03	2.380115E-16	5.903737E-18
6.686567E+03	2.377426E-16	5.886516E-18
6.696517E+03	2.374676E-16	5.869173E-18
6.706468E+03	2.372138E-16	5.852382E-18
6.716418E+03	2.369278E-16	5.834830E-18
6.726368E+03	2.366370E-16	5.817194E-18
6.736318E+03	2.363687E-16	5.800148E-18
6.746269E+03	2.360698E-16	5.782387E-18
6.756219E+03	2.357674E-16	5.764586E-18
6.766169E+03	2.354618E-16	5.746751E-18
6.776119E+03	2.351537E-16	5.728900E-18
6.786070E+03	2.348433E-16	5.711044E-18
6.796020E+03	2.345311E-16	5.693194E-18
6.805970E+03	2.342176E-16	5.675366E-18
6.815920E+03	2.339029E-16	5.657566E-18
6.825871E+03	2.335877E-16	5.639811E-18
6.835821E+03	2.332722E-16	5.622113E-18
6.845771E+03	2.329568E-16	5.604478E-18
6.855721E+03	2.326420E-16	5.586923E-18
6.865672E+03	2.323281E-16	5.569458E-18
6.875622E+03	2.320155E-16	5.552093E-18
6.885572E+03	2.317044E-16	5.534839E-18
6.895522E+03	2.313955E-16	5.517713E-18
6.905473E+03	2.310890E-16	5.500720E-18
6.915423E+03	2.307589E-16	5.483247E-18
6.925373E+03	2.304584E-16	5.466560E-18
6.935323E+03	2.301614E-16	5.450042E-18
6.945274E+03	2.298684E-16	5.433707E-18
6.955224E+03	2.295534E-16	5.416942E-18
6.965174E+03	2.292694E-16	5.401001E-18
6.975124E+03	2.289905E-16	5.385275E-18
6.985075E+03	2.286909E-16	5.369163E-18
6.995025E+03	2.284234E-16	5.353903E-18
7.004975E+03	2.281361E-16	5.338284E-18
7.014925E+03	2.278817E-16	5.323539E-18
7.024876E+03	2.276082E-16	5.308459E-18
7.034826E+03	2.273685E-16	5.294278E-18
7.044776E+03	2.271107E-16	5.279789E-18
7.054726E+03	2.268875E-16	5.266220E-18
7.064677E+03	2.266473E-16	5.252374E-18
7.074627E+03	2.264424E-16	5.239470E-18
7.084577E+03	2.262213E-16	5.226316E-18
7.094527E+03	2.260108E-16	5.213534E-18
7.104478E+03	2.258111E-16	5.201133E-18
7.114428E+03	2.256488E-16	5.189726E-18
7.124378E+03	2.254725E-16	5.178133E-18
7.134328E+03	2.253089E-16	5.166968E-18
7.144279E+03	2.251582E-16	5.156245E-18
7.154229E+03	2.250472E-16	5.146572E-18
7.164179E+03	2.249245E-16	5.136781E-18
7.174129E+03	2.248169E-16	5.127483E-18
7.184080E+03	2.247248E-16	5.118692E-18
7.194030E+03	2.246489E-16	5.110431E-18
7.203980E+03	2.245899E-16	5.102712E-18
7.213930E+03	2.245487E-16	5.095558E-18
7.223881E+03	2.245256E-16	5.088984E-18
7.233831E+03	2.245217E-16	5.083013E-18
7.243781E+03	2.245377E-16	5.077666E-18
7.253731E+03	2.245740E-16	5.072956E-18
7.263682E+03	2.246060E-16	5.068327E-18
7.273632E+03	2.246859E-16	5.064963E-18
7.283582E+03	2.247889E-16	5.062306E-18
7.293532E+03	2.249156E-16	5.060373E-18
7.303483E+03	2.250668E-16	5.059187E-18
7.313433E+03	2.252173E-16	5.058182E-18
7.323383E+03	2.254200E-16	5.058553E-18
7.333333E+03	2.256495E-16	5.059731E-18
7.343284E+03	2.258805E-16	5.061153E-18
7.353234E+03	2.261659E-16	5.064011E-18
7.363184E+03	2.264539E-16	5.067144E-18
7.373134E+03	2.267975E-16	5.071750E-18
7.383085E+03	2.271447E-16	5.076662E-18
7.393035E+03	2.275486E-16	5.083075E-18
7.402985E+03	2.279564E-16	5.089815E-18
7.412935E+03	2.284210E-16	5.098071E-18
7.422886E+03	2.288894E-16	5.106659E-18
7.432836E+03	2.293877E-16	5.116169E-18
7.442786E+03	2.299421E-16	5.127194E-18
7.452736E+03	2.304982E-16	5.138525E-18
7.462687E+03	2.310816E-16	5.150739E-18
7.472637E+03	2.316911E-16	5.163815E-18
7.482587E+03	2.323252E-16	5.177726E-18
7.492537E+03	2.330098E-16	5.193056E-18
7.502488E+03	2.336891E-16	5.208571E-18
7.512438E+03	2.343899E-16	5.224872E-18
7.522388E+03	2.351120E-16	5.241965E-18
7.532338E+03	2.358565E-16	5.259880E-18
7.542289E+03	2.366248E-16	5.278656E-18
7.552239E+03	2.374186E-16	5.298338E-18
7.562189E+03	2.382117E-16	5.318347E-18
7.572139E+03	2.390615E-16	5.339962E-18
7.582090E+03	2.399416E-16	5.362597E-18
7.592040E+03	2.408530E-16	5.386274E-18
7.601990E+03	2.417968E-16	5.411019E-18
7.611940E+03	2.427450E-16	5.436206E-18
7.621891E+03	2.437553E-16	5.463126E-18
7.631841E+03	2.447994E-16	5.491149E-18
7.641791E+03	2.458483E-16	5.519628E-18
7.651741E+03	2.469602E-16	5.549865E-18
7.661692E+03	2.480764E-16	5.580547E-18
7.671642E+03	2.492553E-16	5.612990E-18
7.681592E+03	2.504377E-16	5.645860E-18
7.691542E+03	2.516821E-16	5.680482E-18
7.701493E+03	2.529289E-16	5.715508E-18
7.711443E+03	2.542068E-16	5.751594E-18
7.721393E+03	2.555458E-16	5.789415E-18
