#wls	flux	fluxerr
1.592040E+03	1.457570E-17	5.352019E-19
1.631841E+03	1.477357E-17	5.412300E-19
1.671642E+03	1.496418E-17	5.469264E-19
1.711443E+03	1.514958E-17	5.523657E-19
1.751244E+03	1.532876E-17	5.575105E-19
1.791045E+03	1.549550E-17	5.621349E-19
1.830846E+03	1.564746E-17	5.661559E-19
1.870647E+03	1.577577E-17	5.692559E-19
1.910448E+03	1.587636E-17	5.712935E-19
1.950249E+03	1.594100E-17	5.719801E-19
1.990050E+03	1.597516E-17	5.715217E-19
2.029851E+03	1.598594E-17	5.701793E-19
2.069652E+03	1.600556E-17	5.691063E-19
2.109453E+03	1.609041E-17	5.702968E-19
2.149254E+03	1.628725E-17	5.753791E-19
2.189055E+03	1.662573E-17	5.853556E-19
2.228856E+03	1.709481E-17	5.997846E-19
2.268657E+03	1.765471E-17	6.172231E-19
2.308458E+03	1.827082E-17	6.364252E-19
2.348259E+03	1.890727E-17	6.561183E-19
2.388060E+03	1.955044E-17	6.758170E-19
2.427861E+03	2.019387E-17	6.952893E-19
2.467662E+03	2.083709E-17	7.145123E-19
2.507463E+03	2.148267E-17	7.335666E-19
2.547264E+03	2.213437E-17	7.525719E-19
2.587065E+03	2.279626E-17	7.716561E-19
2.626866E+03	2.347228E-17	7.909400E-19
2.666667E+03	2.416613E-17	8.105339E-19
2.706468E+03	2.487730E-17	8.304038E-19
2.746269E+03	2.561681E-17	8.508999E-19
2.786070E+03	2.638380E-17	8.719714E-19
2.825871E+03	2.718113E-17	8.936903E-19
2.865672E+03	2.801161E-17	9.161232E-19
2.905473E+03	2.887796E-17	9.393325E-19
2.945274E+03	2.978291E-17	9.633774E-19
2.985075E+03	3.072918E-17	9.883146E-19
2.995025E+03	3.097297E-17	9.947091E-19
3.004975E+03	3.121928E-17	1.001155E-18
3.014925E+03	3.146813E-17	1.007651E-18
3.024876E+03	3.171963E-17	1.014202E-18
3.034826E+03	3.197420E-17	1.020820E-18
3.044776E+03	3.223193E-17	1.027508E-18
3.054726E+03	3.249846E-17	1.034443E-18
3.064677E+03	3.276383E-17	1.041309E-18
3.074627E+03	3.303284E-17	1.048257E-18
3.084577E+03	3.331042E-17	1.055443E-18
3.094527E+03	3.358647E-17	1.062547E-18
3.104478E+03	3.387102E-17	1.069884E-18
3.114428E+03	3.415897E-17	1.077293E-18
3.124378E+03	3.445027E-17	1.084771E-18
3.134328E+03	3.473969E-17	1.092154E-18
3.144279E+03	3.503755E-17	1.099765E-18
3.154229E+03	3.533868E-17	1.107440E-18
3.164179E+03	3.564302E-17	1.115178E-18
3.174129E+03	3.595060E-17	1.122978E-18
3.184080E+03	3.626139E-17	1.130840E-18
3.194030E+03	3.658081E-17	1.138930E-18
3.203980E+03	3.689807E-17	1.146912E-18
3.213930E+03	3.721857E-17	1.154954E-18
3.223881E+03	3.754230E-17	1.163055E-18
3.233831E+03	3.787487E-17	1.171387E-18
3.243781E+03	3.820519E-17	1.179607E-18
3.253731E+03	3.854447E-17	1.188060E-18
3.263682E+03	3.888148E-17	1.196399E-18
3.273632E+03	3.922760E-17	1.204974E-18
3.283582E+03	3.957720E-17	1.213611E-18
3.293532E+03	3.993034E-17	1.222310E-18
3.303483E+03	4.028118E-17	1.230892E-18
3.313433E+03	4.064147E-17	1.239716E-18
3.323383E+03	4.100541E-17	1.248604E-18
3.333333E+03	4.137307E-17	1.257557E-18
3.343284E+03	4.174449E-17	1.266575E-18
3.353234E+03	4.211973E-17	1.275659E-18
3.363184E+03	4.250495E-17	1.284995E-18
3.373134E+03	4.288801E-17	1.294215E-18
3.383085E+03	4.327507E-17	1.303504E-18
3.393035E+03	4.366615E-17	1.312862E-18
3.402985E+03	4.406764E-17	1.322479E-18
3.412935E+03	4.446702E-17	1.331980E-18
3.422886E+03	4.487700E-17	1.341744E-18
3.432836E+03	4.528492E-17	1.351391E-18
3.442786E+03	4.570366E-17	1.361304E-18
3.452736E+03	4.612036E-17	1.371101E-18
3.462687E+03	4.654810E-17	1.381168E-18
3.472637E+03	4.698046E-17	1.391315E-18
3.482587E+03	4.741082E-17	1.401343E-18
3.492537E+03	4.785254E-17	1.411648E-18
3.502488E+03	4.829908E-17	1.422034E-18
3.512438E+03	4.875049E-17	1.432503E-18
3.522388E+03	4.920682E-17	1.443054E-18
3.532338E+03	4.966815E-17	1.453688E-18
3.542289E+03	5.013452E-17	1.464407E-18
3.552239E+03	5.060602E-17	1.475211E-18
3.562189E+03	5.108269E-17	1.486101E-18
3.572139E+03	5.156458E-17	1.497077E-18
3.582090E+03	5.205897E-17	1.508348E-18
3.592040E+03	5.255157E-17	1.519499E-18
3.601990E+03	5.304956E-17	1.530738E-18
3.611940E+03	5.355302E-17	1.542066E-18
3.621891E+03	5.406942E-17	1.553696E-18
3.631841E+03	5.458401E-17	1.565202E-18
3.641791E+03	5.510422E-17	1.576798E-18
3.651741E+03	5.563770E-17	1.588701E-18
3.661692E+03	5.616934E-17	1.600478E-18
3.671642E+03	5.671447E-17	1.612564E-18
3.681592E+03	5.725774E-17	1.624522E-18
3.691542E+03	5.781469E-17	1.636792E-18
3.701493E+03	5.837766E-17	1.649154E-18
3.711443E+03	5.893871E-17	1.661384E-18
3.721393E+03	5.951375E-17	1.673930E-18
3.731343E+03	6.009490E-17	1.686568E-18
3.741294E+03	6.067405E-17	1.699068E-18
3.751244E+03	6.126747E-17	1.711887E-18
3.761194E+03	6.186709E-17	1.724797E-18
3.771144E+03	6.246459E-17	1.737564E-18
3.781095E+03	6.307662E-17	1.750652E-18
3.791045E+03	6.369491E-17	1.763828E-18
3.800995E+03	6.431948E-17	1.777092E-18
3.810945E+03	6.495034E-17	1.790443E-18
3.820896E+03	6.558749E-17	1.803880E-18
3.830846E+03	6.622217E-17	1.817161E-18
3.840796E+03	6.687183E-17	1.830764E-18
3.850746E+03	6.752777E-17	1.844449E-18
3.860697E+03	6.818998E-17	1.858214E-18
3.870647E+03	6.885845E-17	1.872058E-18
3.880597E+03	6.953315E-17	1.885980E-18
3.890547E+03	7.021406E-17	1.899976E-18
3.900498E+03	7.090115E-17	1.914047E-18
3.910448E+03	7.159438E-17	1.928188E-18
3.920398E+03	7.229371E-17	1.942399E-18
3.930348E+03	7.299910E-17	1.956677E-18
3.940299E+03	7.371048E-17	1.971019E-18
3.950249E+03	7.442779E-17	1.985422E-18
3.960199E+03	7.515098E-17	1.999885E-18
3.970149E+03	7.587020E-17	2.014145E-18
3.980100E+03	7.660483E-17	2.028716E-18
3.990050E+03	7.734510E-17	2.043337E-18
4.000000E+03	7.809090E-17	2.058004E-18
4.009950E+03	7.884215E-17	2.072716E-18
4.019900E+03	7.959872E-17	2.087466E-18
4.029851E+03	8.036051E-17	2.102253E-18
4.039801E+03	8.112740E-17	2.117073E-18
4.049751E+03	8.189924E-17	2.131920E-18
4.059701E+03	8.267591E-17	2.146791E-18
4.069652E+03	8.345724E-17	2.161682E-18
4.079602E+03	8.424310E-17	2.176588E-18
4.089552E+03	8.502258E-17	2.191228E-18
4.099502E+03	8.581690E-17	2.206149E-18
4.109453E+03	8.661517E-17	2.221070E-18
4.119403E+03	8.741728E-17	2.235987E-18
4.129353E+03	8.822301E-17	2.250895E-18
4.139303E+03	8.902099E-17	2.265505E-18
4.149254E+03	8.983315E-17	2.280375E-18
4.159204E+03	9.064834E-17	2.295220E-18
4.169154E+03	9.145476E-17	2.309744E-18
4.179104E+03	9.227504E-17	2.324518E-18
4.189055E+03	9.309757E-17	2.339249E-18
4.199005E+03	9.391040E-17	2.353638E-18
4.208955E+03	9.473642E-17	2.368260E-18
4.218905E+03	9.555213E-17	2.382526E-18
4.228856E+03	9.638070E-17	2.397017E-18
4.238806E+03	9.719809E-17	2.411135E-18
4.248756E+03	9.801595E-17	2.425170E-18
4.258706E+03	9.884589E-17	2.439411E-18
4.268657E+03	9.966363E-17	2.453258E-18
4.278607E+03	1.004809E-16	2.467003E-18
4.288557E+03	1.013095E-16	2.480938E-18
4.298507E+03	1.021248E-16	2.494456E-18
4.308458E+03	1.029385E-16	2.507849E-18
4.318408E+03	1.037503E-16	2.521113E-18
4.328358E+03	1.045600E-16	2.534241E-18
4.338308E+03	1.053673E-16	2.547227E-18
4.348259E+03	1.061716E-16	2.560063E-18
4.358209E+03	1.069728E-16	2.572746E-18
4.368159E+03	1.077705E-16	2.585268E-18
4.378109E+03	1.085645E-16	2.597626E-18
4.388060E+03	1.093411E-16	2.609498E-18
4.398010E+03	1.101264E-16	2.621508E-18
4.407960E+03	1.109071E-16	2.633339E-18
4.417910E+03	1.116693E-16	2.644668E-18
4.427861E+03	1.124395E-16	2.656123E-18
4.437811E+03	1.131907E-16	2.667071E-18
4.447761E+03	1.139495E-16	2.678140E-18
4.457711E+03	1.146888E-16	2.688694E-18
4.467662E+03	1.154217E-16	2.699048E-18
4.477612E+03	1.161617E-16	2.709520E-18
4.487562E+03	1.168815E-16	2.719472E-18
4.497512E+03	1.175944E-16	2.729223E-18
4.507463E+03	1.183005E-16	2.738773E-18
4.517413E+03	1.189995E-16	2.748124E-18
4.527363E+03	1.196917E-16	2.757282E-18
4.537313E+03	1.203768E-16	2.766244E-18
4.547264E+03	1.210407E-16	2.774695E-18
4.557214E+03	1.217119E-16	2.783286E-18
4.567164E+03	1.223764E-16	2.791703E-18
4.577114E+03	1.230200E-16	2.799623E-18
4.587065E+03	1.236715E-16	2.807709E-18
4.597015E+03	1.243025E-16	2.815317E-18
4.606965E+03	1.249276E-16	2.822782E-18
4.616915E+03	1.255618E-16	2.830448E-18
4.626866E+03	1.261763E-16	2.837667E-18
4.636816E+03	1.267862E-16	2.844782E-18
4.646766E+03	1.273920E-16	2.851810E-18
4.656716E+03	1.279942E-16	2.858764E-18
4.666667E+03	1.285935E-16	2.865663E-18
4.676617E+03	1.291905E-16	2.872524E-18
4.686567E+03	1.297710E-16	2.879033E-18
4.696517E+03	1.303656E-16	2.885874E-18
4.706468E+03	1.309450E-16	2.892403E-18
4.716418E+03	1.315403E-16	2.899305E-18
4.726368E+03	1.321219E-16	2.905936E-18
4.736318E+03	1.327060E-16	2.912649E-18
4.746269E+03	1.333083E-16	2.919798E-18
4.756219E+03	1.338995E-16	2.926737E-18
4.766169E+03	1.344954E-16	2.933819E-18
4.776119E+03	1.350969E-16	2.941062E-18
4.786070E+03	1.356889E-16	2.948146E-18
4.796020E+03	1.363033E-16	2.955763E-18
4.805970E+03	1.369258E-16	2.963605E-18
4.815920E+03	1.375416E-16	2.971353E-18
4.825871E+03	1.381825E-16	2.979700E-18
4.835821E+03	1.388176E-16	2.987978E-18
4.845771E+03	1.394784E-16	2.996870E-18
4.855721E+03	1.401340E-16	3.005711E-18
4.865672E+03	1.408017E-16	3.014879E-18
4.875622E+03	1.414828E-16	3.024402E-18
4.885572E+03	1.421784E-16	3.034304E-18
4.895522E+03	1.428891E-16	3.044603E-18
4.905473E+03	1.436157E-16	3.055313E-18
4.915423E+03	1.443421E-16	3.066099E-18
4.925373E+03	1.451007E-16	3.077650E-18
4.935323E+03	1.458592E-16	3.089279E-18
4.945274E+03	1.466498E-16	3.101670E-18
4.955224E+03	1.474394E-16	3.114122E-18
4.965174E+03	1.482440E-16	3.126970E-18
4.975124E+03	1.490630E-16	3.140204E-18
4.985075E+03	1.498959E-16	3.153812E-18
4.995025E+03	1.507422E-16	3.167779E-18
5.004975E+03	1.516011E-16	3.182092E-18
5.014925E+03	1.524722E-16	3.196737E-18
5.024876E+03	1.533375E-16	3.211342E-18
5.034826E+03	1.542307E-16	3.226608E-18
5.044776E+03	1.551167E-16	3.241803E-18
5.054726E+03	1.560293E-16	3.257631E-18
5.064677E+03	1.569335E-16	3.273361E-18
5.074627E+03	1.578459E-16	3.289338E-18
5.084577E+03	1.587658E-16	3.305549E-18
5.094527E+03	1.596927E-16	3.321982E-18
5.104478E+03	1.606262E-16	3.338628E-18
5.114428E+03	1.615657E-16	3.355476E-18
5.124378E+03	1.624928E-16	3.372140E-18
5.134328E+03	1.634429E-16	3.389359E-18
5.144279E+03	1.643794E-16	3.406371E-18
5.154229E+03	1.653384E-16	3.423921E-18
5.164179E+03	1.662829E-16	3.441249E-18
5.174129E+03	1.672309E-16	3.458720E-18
5.184080E+03	1.681820E-16	3.476329E-18
5.194030E+03	1.691358E-16	3.494068E-18
5.203980E+03	1.700922E-16	3.511933E-18
5.213930E+03	1.710508E-16	3.529914E-18
5.223881E+03	1.720115E-16	3.548010E-18
5.233831E+03	1.729550E-16	3.565823E-18
5.243781E+03	1.739189E-16	3.584128E-18
5.253731E+03	1.748652E-16	3.602139E-18
5.263682E+03	1.758317E-16	3.620635E-18
5.273632E+03	1.767801E-16	3.638827E-18
5.283582E+03	1.777293E-16	3.657103E-18
5.293532E+03	1.786790E-16	3.675457E-18
5.303483E+03	1.796293E-16	3.693890E-18
5.313433E+03	1.805800E-16	3.712399E-18
5.323383E+03	1.815311E-16	3.730979E-18
5.333333E+03	1.824625E-16	3.749218E-18
5.343284E+03	1.834137E-16	3.767930E-18
5.353234E+03	1.843450E-16	3.786294E-18
5.363184E+03	1.852962E-16	3.805129E-18
5.373134E+03	1.862271E-16	3.823609E-18
5.383085E+03	1.871575E-16	3.842140E-18
5.393035E+03	1.881080E-16	3.861142E-18
5.402985E+03	1.890375E-16	3.879774E-18
5.412935E+03	1.899665E-16	3.898451E-18
5.422886E+03	1.908948E-16	3.917172E-18
5.432836E+03	1.918015E-16	3.935507E-18
5.442786E+03	1.927281E-16	3.954305E-18
5.452736E+03	1.936537E-16	3.973139E-18
5.462687E+03	1.945573E-16	3.991574E-18
5.472637E+03	1.954808E-16	4.010470E-18
5.482587E+03	1.963819E-16	4.028958E-18
5.492537E+03	1.972815E-16	4.047468E-18
5.502488E+03	1.982009E-16	4.066436E-18
5.512438E+03	1.990973E-16	4.084980E-18
5.522388E+03	1.999920E-16	4.103539E-18
5.532338E+03	2.008847E-16	4.122104E-18
5.542289E+03	2.017753E-16	4.140677E-18
5.552239E+03	2.026420E-16	4.158803E-18
5.562189E+03	2.035282E-16	4.177375E-18
5.572139E+03	2.044119E-16	4.195942E-18
5.582090E+03	2.052709E-16	4.214047E-18
5.592040E+03	2.061493E-16	4.232591E-18
5.601990E+03	2.070024E-16	4.250661E-18
5.611940E+03	2.078523E-16	4.268708E-18
5.621891E+03	2.087213E-16	4.287188E-18
5.631841E+03	2.095644E-16	4.305178E-18
5.641791E+03	2.104038E-16	4.323130E-18
5.651741E+03	2.112392E-16	4.341041E-18
5.661692E+03	2.120706E-16	4.358909E-18
5.671642E+03	2.128977E-16	4.376728E-18
5.681592E+03	2.136974E-16	4.394021E-18
5.691542E+03	2.145154E-16	4.411727E-18
5.701493E+03	2.153285E-16	4.429371E-18
5.711443E+03	2.161134E-16	4.446472E-18
5.721393E+03	2.169163E-16	4.463978E-18
5.731343E+03	2.176906E-16	4.480929E-18
5.741294E+03	2.184590E-16	4.497797E-18
5.751244E+03	2.192452E-16	4.515066E-18
5.761194E+03	2.200018E-16	4.531760E-18
5.771144E+03	2.207522E-16	4.548360E-18
5.781095E+03	2.214962E-16	4.564864E-18
5.791045E+03	2.222338E-16	4.581269E-18
5.800995E+03	2.229646E-16	4.597567E-18
5.810945E+03	2.236887E-16	4.613759E-18
5.820896E+03	2.244058E-16	4.629842E-18
5.830846E+03	2.250916E-16	4.645313E-18
5.840796E+03	2.257944E-16	4.661166E-18
5.850746E+03	2.264900E-16	4.676904E-18
5.860697E+03	2.271536E-16	4.692017E-18
5.870647E+03	2.278343E-16	4.707513E-18
5.880597E+03	2.284828E-16	4.722379E-18
5.890547E+03	2.291237E-16	4.737120E-18
5.900498E+03	2.297815E-16	4.752244E-18
5.910448E+03	2.304069E-16	4.766732E-18
5.920398E+03	2.310246E-16	4.781093E-18
5.930348E+03	2.316344E-16	4.795326E-18
5.940299E+03	2.322364E-16	4.809433E-18
5.950249E+03	2.328308E-16	4.823414E-18
5.960199E+03	2.334174E-16	4.837271E-18
5.970149E+03	2.339963E-16	4.851003E-18
5.980100E+03	2.345677E-16	4.864615E-18
5.990050E+03	2.351063E-16	4.877584E-18
6.000000E+03	2.356626E-16	4.890956E-18
6.009950E+03	2.362115E-16	4.904213E-18
6.019900E+03	2.367279E-16	4.916831E-18
6.029851E+03	2.372624E-16	4.929865E-18
6.039801E+03	2.377642E-16	4.942260E-18
6.049751E+03	2.382847E-16	4.955082E-18
6.059701E+03	2.387728E-16	4.967270E-18
6.069652E+03	2.392797E-16	4.979892E-18
6.079602E+03	2.397545E-16	4.991887E-18
6.089552E+03	2.402227E-16	5.003787E-18
6.099502E+03	2.406844E-16	5.015598E-18
6.109453E+03	2.411401E-16	5.027326E-18
6.119403E+03	2.415896E-16	5.038971E-18
6.129353E+03	2.420331E-16	5.050539E-18
6.139303E+03	2.424710E-16	5.062036E-18
6.149254E+03	2.429032E-16	5.073463E-18
6.159204E+03	2.433300E-16	5.084827E-18
6.169154E+03	2.437515E-16	5.096131E-18
6.179104E+03	2.441681E-16	5.107384E-18
6.189055E+03	2.445796E-16	5.118584E-18
6.199005E+03	2.449597E-16	5.129181E-18
6.208955E+03	2.453601E-16	5.140259E-18
6.218905E+03	2.457539E-16	5.151254E-18
6.228856E+03	2.461139E-16	5.161593E-18
6.238806E+03	2.464923E-16	5.172373E-18
6.248756E+03	2.468353E-16	5.182458E-18
6.258706E+03	2.471953E-16	5.192953E-18
6.268657E+03	2.475186E-16	5.202721E-18
6.278607E+03	2.478308E-16	5.212304E-18
6.288557E+03	2.481580E-16	5.222248E-18
6.298507E+03	2.484460E-16	5.231410E-18
6.308458E+03	2.487207E-16	5.240335E-18
6.318408E+03	2.490085E-16	5.249574E-18
6.328358E+03	2.492548E-16	5.257979E-18
6.338308E+03	2.494857E-16	5.266095E-18
6.348259E+03	2.497007E-16	5.273911E-18
6.358209E+03	2.498990E-16	5.281409E-18
6.368159E+03	2.500801E-16	5.288576E-18
6.378109E+03	2.502434E-16	5.295398E-18
6.388060E+03	2.503884E-16	5.301862E-18
6.398010E+03	2.505148E-16	5.307959E-18
6.407960E+03	2.506222E-16	5.313682E-18
6.417910E+03	2.507104E-16	5.319022E-18
6.427861E+03	2.507523E-16	5.323402E-18
6.437811E+03	2.508023E-16	5.327976E-18
6.447761E+03	2.508333E-16	5.332167E-18
6.457711E+03	2.508456E-16	5.335980E-18
6.467662E+03	2.508125E-16	5.338844E-18
6.477612E+03	2.507885E-16	5.341918E-18
6.487562E+03	2.507469E-16	5.344631E-18
6.497512E+03	2.506611E-16	5.346414E-18
6.507463E+03	2.505857E-16	5.348433E-18
6.517413E+03	2.504670E-16	5.349537E-18
6.527363E+03	2.503598E-16	5.350898E-18
6.537313E+03	2.502104E-16	5.351363E-18
6.547264E+03	2.500734E-16	5.352103E-18
6.557214E+03	2.498954E-16	5.351970E-18
6.567164E+03	2.497038E-16	5.351551E-18
6.577114E+03	2.495263E-16	5.351439E-18
6.587065E+03	2.493094E-16	5.350485E-18
6.597015E+03	2.490806E-16	5.349278E-18
6.606965E+03	2.488676E-16	5.348411E-18
6.616915E+03	2.486165E-16	5.346730E-18
6.626866E+03	2.483553E-16	5.344829E-18
6.636816E+03	2.480843E-16	5.342717E-18
6.646766E+03	2.478041E-16	5.340407E-18
6.656716E+03	2.475151E-16	5.337906E-18
6.666667E+03	2.472449E-16	5.335806E-18
6.676617E+03	2.469399E-16	5.332956E-18
6.686567E+03	2.466276E-16	5.329947E-18
6.696517E+03	2.463086E-16	5.326787E-18
6.706468E+03	2.459833E-16	5.323490E-18
6.716418E+03	2.456253E-16	5.319482E-18
6.726368E+03	2.452889E-16	5.315936E-18
6.736318E+03	2.449475E-16	5.312278E-18
6.746269E+03	2.446016E-16	5.308522E-18
6.756219E+03	2.442517E-16	5.304673E-18
6.766169E+03	2.438982E-16	5.300744E-18
6.776119E+03	2.435416E-16	5.296743E-18
6.786070E+03	2.431557E-16	5.292103E-18
6.796020E+03	2.427940E-16	5.287986E-18
6.805970E+03	2.424305E-16	5.283826E-18
6.815920E+03	2.420390E-16	5.279054E-18
6.825871E+03	2.416728E-16	5.274832E-18
6.835821E+03	2.413060E-16	5.270594E-18
6.845771E+03	2.409124E-16	5.265773E-18
6.855721E+03	2.405454E-16	5.261530E-18
6.865672E+03	2.401526E-16	5.256721E-18
6.875622E+03	2.397868E-16	5.252505E-18
6.885572E+03	2.393960E-16	5.247743E-18
6.895522E+03	2.390332E-16	5.243595E-18
6.905473E+03	2.386461E-16	5.238916E-18
6.915423E+03	2.382875E-16	5.234867E-18
6.925373E+03	2.379055E-16	5.230307E-18
6.935323E+03	2.375265E-16	5.225819E-18
6.945274E+03	2.371771E-16	5.221986E-18
6.955224E+03	2.368053E-16	5.217669E-18
6.965174E+03	2.364379E-16	5.213453E-18
6.975124E+03	2.360749E-16	5.209345E-18
6.985075E+03	2.357427E-16	5.205926E-18
6.995025E+03	2.353900E-16	5.202064E-18
7.004975E+03	2.350428E-16	5.198337E-18
7.014925E+03	2.347016E-16	5.194754E-18
7.024876E+03	2.343668E-16	5.191328E-18
7.034826E+03	2.340388E-16	5.188068E-18
7.044776E+03	2.337181E-16	5.184984E-18
7.054726E+03	2.334048E-16	5.182086E-18
7.064677E+03	2.330995E-16	5.179383E-18
7.074627E+03	2.328027E-16	5.176890E-18
7.084577E+03	2.325146E-16	5.174612E-18
7.094527E+03	2.322359E-16	5.172569E-18
7.104478E+03	2.319669E-16	5.170765E-18
7.114428E+03	2.317080E-16	5.169215E-18
7.124378E+03	2.314598E-16	5.167934E-18
7.134328E+03	2.312229E-16	5.166933E-18
7.144279E+03	2.309719E-16	5.165651E-18
7.154229E+03	2.307589E-16	5.165251E-18
7.164179E+03	2.305587E-16	5.165176E-18
7.174129E+03	2.303463E-16	5.164863E-18
7.184080E+03	2.301735E-16	5.165479E-18
7.194030E+03	2.300154E-16	5.166465E-18
7.203980E+03	2.298469E-16	5.167263E-18
7.213930E+03	2.297200E-16	5.169042E-18
7.223881E+03	2.295843E-16	5.170671E-18
7.233831E+03	2.294917E-16	5.173319E-18
7.243781E+03	2.293917E-16	5.175856E-18
7.253731E+03	2.293364E-16	5.179454E-18
7.263682E+03	2.292754E-16	5.182983E-18
7.273632E+03	2.292608E-16	5.187621E-18
7.283582E+03	2.292423E-16	5.192234E-18
7.293532E+03	2.292465E-16	5.197426E-18
7.303483E+03	2.292743E-16	5.203222E-18
7.313433E+03	2.293524E-16	5.210230E-18
7.323383E+03	2.294307E-16	5.217317E-18
7.333333E+03	2.295356E-16	5.225087E-18
7.343284E+03	2.296685E-16	5.233574E-18
7.353234E+03	2.298302E-16	5.242803E-18
7.363184E+03	2.300220E-16	5.252804E-18
7.373134E+03	2.302448E-16	5.263608E-18
7.383085E+03	2.305000E-16	5.275243E-18
7.393035E+03	2.307884E-16	5.287738E-18
7.402985E+03	2.311109E-16	5.301118E-18
7.412935E+03	2.314685E-16	5.315410E-18
7.422886E+03	2.318619E-16	5.330635E-18
7.432836E+03	2.322917E-16	5.346813E-18
7.442786E+03	2.327582E-16	5.363954E-18
7.452736E+03	2.332351E-16	5.381462E-18
7.462687E+03	2.337748E-16	5.400545E-18
7.472637E+03	2.343503E-16	5.420590E-18
7.482587E+03	2.349339E-16	5.440961E-18
7.492537E+03	2.355770E-16	5.462853E-18
7.502488E+03	2.362241E-16	5.484984E-18
7.512438E+03	2.369258E-16	5.508537E-18
7.522388E+03	2.376289E-16	5.532279E-18
7.532338E+03	2.383903E-16	5.557541E-18
7.542289E+03	2.391587E-16	5.583135E-18
7.552239E+03	2.399903E-16	5.610377E-18
7.562189E+03	2.408326E-16	5.638043E-18
7.572139E+03	2.417135E-16	5.666791E-18
7.582090E+03	2.426614E-16	5.697292E-18
7.592040E+03	2.436216E-16	5.728265E-18
7.601990E+03	2.446219E-16	5.760361E-18
7.611940E+03	2.456619E-16	5.793580E-18
7.621891E+03	2.467413E-16	5.827918E-18
7.631841E+03	2.478598E-16	5.863368E-18
7.641791E+03	2.490164E-16	5.899915E-18
7.651741E+03	2.502109E-16	5.937553E-18
7.661692E+03	2.514421E-16	5.976262E-18
7.671642E+03	2.527094E-16	6.016028E-18
7.681592E+03	2.540120E-16	6.056837E-18
7.691542E+03	2.553488E-16	6.098667E-18
7.701493E+03	2.566897E-16	6.140800E-18
7.711443E+03	2.580923E-16	6.184618E-18
7.721393E+03	2.595265E-16	6.229405E-18
