#wls	flux	fluxerr
1.592040E+03	1.376956E-17	9.764565E-19
1.631841E+03	1.395699E-17	9.883042E-19
1.671642E+03	1.414015E-17	9.997711E-19
1.711443E+03	1.431856E-17	1.010823E-18
1.751244E+03	1.448875E-17	1.021214E-18
1.791045E+03	1.464729E-17	1.030704E-18
1.830846E+03	1.479200E-17	1.039140E-18
1.870647E+03	1.491707E-17	1.046117E-18
1.910448E+03	1.501349E-17	1.051012E-18
1.950249E+03	1.507604E-17	1.053466E-18
1.990050E+03	1.510731E-17	1.053673E-18
2.029851E+03	1.511918E-17	1.052470E-18
2.069652E+03	1.513955E-17	1.051803E-18
2.109453E+03	1.521918E-17	1.055186E-18
2.149254E+03	1.540747E-17	1.066010E-18
2.189055E+03	1.572730E-17	1.085805E-18
2.228856E+03	1.617082E-17	1.113966E-18
2.268657E+03	1.670039E-17	1.147845E-18
2.308458E+03	1.728043E-17	1.184954E-18
2.348259E+03	1.788270E-17	1.223329E-18
2.388060E+03	1.849156E-17	1.261884E-18
2.427861E+03	1.909771E-17	1.299976E-18
2.467662E+03	1.970377E-17	1.337774E-18
2.507463E+03	2.031219E-17	1.375435E-18
2.547264E+03	2.092652E-17	1.413190E-18
2.587065E+03	2.154712E-17	1.451051E-18
2.626866E+03	2.218110E-17	1.489482E-18
2.666667E+03	2.283196E-17	1.528701E-18
2.706468E+03	2.349918E-17	1.568654E-18
2.746269E+03	2.419330E-17	1.610023E-18
2.786070E+03	2.490948E-17	1.652457E-18
2.825871E+03	2.565422E-17	1.696366E-18
2.865672E+03	2.643016E-17	1.741891E-18
2.905473E+03	2.723989E-17	1.789171E-18
2.945274E+03	2.808156E-17	1.838050E-18
2.985075E+03	2.896191E-17	1.888934E-18
2.995025E+03	2.919220E-17	1.902234E-18
3.004975E+03	2.942027E-17	1.915354E-18
3.014925E+03	2.965072E-17	1.928593E-18
3.024876E+03	2.988361E-17	1.941955E-18
3.034826E+03	3.012404E-17	1.955770E-18
3.044776E+03	3.036277E-17	1.969436E-18
3.054726E+03	3.060984E-17	1.983605E-18
3.064677E+03	3.085567E-17	1.997655E-18
3.074627E+03	3.110969E-17	2.012195E-18
3.084577E+03	3.136223E-17	2.026600E-18
3.094527E+03	3.162287E-17	2.041486E-18
3.104478E+03	3.188672E-17	2.056538E-18
3.114428E+03	3.215374E-17	2.071753E-18
3.124378E+03	3.241888E-17	2.086803E-18
3.134328E+03	3.269205E-17	2.102326E-18
3.144279E+03	3.296826E-17	2.118001E-18
3.154229E+03	3.324747E-17	2.133823E-18
3.164179E+03	3.352969E-17	2.149793E-18
3.174129E+03	3.381489E-17	2.165908E-18
3.184080E+03	3.410305E-17	2.182165E-18
3.194030E+03	3.439419E-17	2.198566E-18
3.203980E+03	3.468830E-17	2.215108E-18
3.213930E+03	3.499070E-17	2.232131E-18
3.223881E+03	3.529083E-17	2.248958E-18
3.233831E+03	3.559396E-17	2.265927E-18
3.243781E+03	3.590555E-17	2.283384E-18
3.253731E+03	3.621480E-17	2.300639E-18
3.263682E+03	3.652712E-17	2.318038E-18
3.273632E+03	3.684811E-17	2.335932E-18
3.283582E+03	3.716672E-17	2.353623E-18
3.293532E+03	3.749413E-17	2.371816E-18
3.303483E+03	3.782483E-17	2.390162E-18
3.313433E+03	3.815316E-17	2.408302E-18
3.323383E+03	3.849052E-17	2.426955E-18
3.333333E+03	3.883130E-17	2.445766E-18
3.343284E+03	3.916971E-17	2.464369E-18
3.353234E+03	3.951742E-17	2.483498E-18
3.363184E+03	3.986868E-17	2.502790E-18
3.373134E+03	4.022356E-17	2.522249E-18
3.383085E+03	4.058209E-17	2.541874E-18
3.393035E+03	4.094432E-17	2.561668E-18
3.402985E+03	4.131031E-17	2.581635E-18
3.412935E+03	4.168011E-17	2.601775E-18
3.422886E+03	4.205377E-17	2.622091E-18
3.432836E+03	4.243135E-17	2.642586E-18
3.442786E+03	4.281291E-17	2.663261E-18
3.452736E+03	4.319849E-17	2.684119E-18
3.462687E+03	4.359453E-17	2.705558E-18
3.472637E+03	4.398837E-17	2.726790E-18
3.482587E+03	4.438640E-17	2.748213E-18
3.492537E+03	4.479520E-17	2.770230E-18
3.502488E+03	4.520183E-17	2.792039E-18
3.512438E+03	4.561280E-17	2.814044E-18
3.522388E+03	4.603485E-17	2.836658E-18
3.532338E+03	4.645472E-17	2.859062E-18
3.542289E+03	4.688590E-17	2.882086E-18
3.552239E+03	4.731490E-17	2.904898E-18
3.562189E+03	4.775540E-17	2.928337E-18
3.572139E+03	4.819371E-17	2.951563E-18
3.582090E+03	4.864374E-17	2.975426E-18
3.592040E+03	4.909158E-17	2.999074E-18
3.601990E+03	4.955133E-17	3.023366E-18
3.611940E+03	5.001603E-17	3.047877E-18
3.621891E+03	5.047853E-17	3.072168E-18
3.631841E+03	5.095324E-17	3.097117E-18
3.641791E+03	5.143303E-17	3.122288E-18
3.651741E+03	5.191057E-17	3.147233E-18
3.661692E+03	5.240061E-17	3.172848E-18
3.671642E+03	5.289585E-17	3.198687E-18
3.681592E+03	5.339634E-17	3.224752E-18
3.691542E+03	5.390211E-17	3.251042E-18
3.701493E+03	5.440550E-17	3.277096E-18
3.711443E+03	5.492186E-17	3.303836E-18
3.721393E+03	5.544358E-17	3.330803E-18
3.731343E+03	5.597069E-17	3.357996E-18
3.741294E+03	5.650321E-17	3.385415E-18
3.751244E+03	5.704117E-17	3.413061E-18
3.761194E+03	5.758458E-17	3.440931E-18
3.771144E+03	5.813345E-17	3.469026E-18
3.781095E+03	5.868780E-17	3.497345E-18
3.791045E+03	5.924763E-17	3.525887E-18
3.800995E+03	5.981295E-17	3.554650E-18
3.810945E+03	6.038376E-17	3.583632E-18
3.820896E+03	6.096006E-17	3.612833E-18
3.830846E+03	6.154185E-17	3.642251E-18
3.840796E+03	6.212911E-17	3.671882E-18
3.850746E+03	6.272183E-17	3.701725E-18
3.860697E+03	6.332001E-17	3.731778E-18
3.870647E+03	6.392359E-17	3.762037E-18
3.880597E+03	6.453259E-17	3.792499E-18
3.890547E+03	6.514695E-17	3.823162E-18
3.900498E+03	6.576665E-17	3.854022E-18
3.910448E+03	6.639165E-17	3.885074E-18
3.920398E+03	6.702189E-17	3.916315E-18
3.930348E+03	6.765735E-17	3.947742E-18
3.940299E+03	6.829796E-17	3.979348E-18
3.950249E+03	6.894365E-17	4.011128E-18
3.960199E+03	6.959438E-17	4.043080E-18
3.970149E+03	7.025007E-17	4.075196E-18
3.980100E+03	7.091064E-17	4.107470E-18
3.990050E+03	7.157601E-17	4.139898E-18
4.000000E+03	7.224610E-17	4.172472E-18
4.009950E+03	7.292082E-17	4.205186E-18
4.019900E+03	7.360005E-17	4.238033E-18
4.029851E+03	7.428371E-17	4.271006E-18
4.039801E+03	7.497169E-17	4.304097E-18
4.049751E+03	7.566384E-17	4.337299E-18
4.059701E+03	7.636007E-17	4.370603E-18
4.069652E+03	7.706024E-17	4.404001E-18
4.079602E+03	7.776420E-17	4.437484E-18
4.089552E+03	7.847183E-17	4.471043E-18
4.099502E+03	7.918296E-17	4.504668E-18
4.109453E+03	7.989745E-17	4.538351E-18
4.119403E+03	8.061512E-17	4.572080E-18
4.129353E+03	8.133582E-17	4.605847E-18
4.139303E+03	8.204853E-17	4.639026E-18
4.149254E+03	8.277465E-17	4.672830E-18
4.159204E+03	8.350326E-17	4.706639E-18
4.169154E+03	8.423414E-17	4.740440E-18
4.179104E+03	8.495595E-17	4.773596E-18
4.189055E+03	8.569072E-17	4.807345E-18
4.199005E+03	8.642715E-17	4.841051E-18
4.208955E+03	8.715363E-17	4.874066E-18
4.218905E+03	8.789267E-17	4.907647E-18
4.228856E+03	8.863271E-17	4.941149E-18
4.238806E+03	8.936189E-17	4.973911E-18
4.248756E+03	9.010318E-17	5.007213E-18
4.258706E+03	9.083298E-17	5.039743E-18
4.268657E+03	9.157459E-17	5.072795E-18
4.278607E+03	9.230401E-17	5.105039E-18
4.288557E+03	9.304494E-17	5.137787E-18
4.298507E+03	9.377311E-17	5.169700E-18
4.308458E+03	9.450025E-17	5.201425E-18
4.318408E+03	9.523836E-17	5.233625E-18
4.328358E+03	9.596279E-17	5.264944E-18
4.338308E+03	9.668545E-17	5.296038E-18
4.348259E+03	9.740607E-17	5.326895E-18
4.358209E+03	9.812446E-17	5.357505E-18
4.368159E+03	9.884044E-17	5.387859E-18
4.378109E+03	9.955382E-17	5.417950E-18
4.388060E+03	1.002771E-16	5.448456E-18
4.398010E+03	1.009717E-16	5.477284E-18
4.407960E+03	1.016759E-16	5.506516E-18
4.417910E+03	1.023767E-16	5.535445E-18
4.427861E+03	1.030739E-16	5.564067E-18
4.437811E+03	1.037675E-16	5.592376E-18
4.447761E+03	1.044572E-16	5.620367E-18
4.457711E+03	1.051296E-16	5.647316E-18
4.467662E+03	1.058113E-16	5.674654E-18
4.477612E+03	1.064888E-16	5.701666E-18
4.487562E+03	1.071487E-16	5.727625E-18
4.497512E+03	1.078178E-16	5.753980E-18
4.507463E+03	1.084692E-16	5.779284E-18
4.517413E+03	1.091301E-16	5.804996E-18
4.527363E+03	1.097730E-16	5.829658E-18
4.537313E+03	1.104118E-16	5.854008E-18
4.547264E+03	1.110466E-16	5.878052E-18
4.557214E+03	1.116915E-16	5.902544E-18
4.567164E+03	1.123188E-16	5.926017E-18
4.577114E+03	1.129427E-16	5.949220E-18
4.587065E+03	1.135633E-16	5.972170E-18
4.597015E+03	1.141809E-16	5.994879E-18
4.606965E+03	1.147958E-16	6.017367E-18
4.616915E+03	1.153939E-16	6.038902E-18
4.626866E+03	1.160043E-16	6.061001E-18
4.636816E+03	1.166130E-16	6.082943E-18
4.646766E+03	1.172203E-16	6.104736E-18
4.656716E+03	1.178122E-16	6.125654E-18
4.666667E+03	1.184179E-16	6.147231E-18
4.676617E+03	1.190087E-16	6.167963E-18
4.686567E+03	1.196143E-16	6.189403E-18
4.696517E+03	1.202056E-16	6.210037E-18
4.706468E+03	1.207975E-16	6.230645E-18
4.716418E+03	1.214055E-16	6.252020E-18
4.726368E+03	1.219996E-16	6.272625E-18
4.736318E+03	1.225950E-16	6.293248E-18
4.746269E+03	1.231920E-16	6.313893E-18
4.756219E+03	1.237906E-16	6.334573E-18
4.766169E+03	1.243908E-16	6.355289E-18
4.776119E+03	1.249777E-16	6.375271E-18
4.786070E+03	1.255820E-16	6.396103E-18
4.796020E+03	1.261892E-16	6.417034E-18
4.805970E+03	1.267998E-16	6.438097E-18
4.815920E+03	1.273994E-16	6.458564E-18
4.825871E+03	1.280199E-16	6.480048E-18
4.835821E+03	1.286312E-16	6.501034E-18
4.845771E+03	1.292499E-16	6.522358E-18
4.855721E+03	1.298928E-16	6.544864E-18
4.865672E+03	1.305291E-16	6.567008E-18
4.875622E+03	1.311757E-16	6.589633E-18
4.885572E+03	1.318330E-16	6.612769E-18
4.895522E+03	1.325020E-16	6.636453E-18
4.905473E+03	1.331831E-16	6.660710E-18
4.915423E+03	1.338768E-16	6.685561E-18
4.925373E+03	1.345833E-16	6.711021E-18
4.935323E+03	1.352867E-16	6.736289E-18
4.945274E+03	1.360196E-16	6.762992E-18
4.955224E+03	1.367658E-16	6.790311E-18
4.965174E+03	1.375085E-16	6.817422E-18
4.975124E+03	1.382807E-16	6.845953E-18
4.985075E+03	1.390489E-16	6.874243E-18
4.995025E+03	1.398294E-16	6.903094E-18
5.004975E+03	1.406218E-16	6.932488E-18
5.014925E+03	1.414428E-16	6.963239E-18
5.024876E+03	1.422578E-16	6.993649E-18
5.034826E+03	1.430836E-16	7.024532E-18
5.044776E+03	1.439195E-16	7.055864E-18
5.054726E+03	1.447478E-16	7.086768E-18
5.064677E+03	1.456025E-16	7.118906E-18
5.074627E+03	1.464658E-16	7.151411E-18
5.084577E+03	1.473198E-16	7.183403E-18
5.094527E+03	1.481989E-16	7.216559E-18
5.104478E+03	1.490676E-16	7.249146E-18
5.114428E+03	1.499606E-16	7.282857E-18
5.124378E+03	1.508419E-16	7.315939E-18
5.134328E+03	1.517290E-16	7.349236E-18
5.144279E+03	1.526393E-16	7.383596E-18
5.154229E+03	1.535365E-16	7.417254E-18
5.164179E+03	1.544381E-16	7.451060E-18
5.174129E+03	1.553437E-16	7.484995E-18
5.184080E+03	1.562529E-16	7.519035E-18
5.194030E+03	1.571655E-16	7.553171E-18
5.203980E+03	1.580623E-16	7.586484E-18
5.213930E+03	1.589803E-16	7.620746E-18
5.223881E+03	1.599007E-16	7.655053E-18
5.233831E+03	1.608042E-16	7.688483E-18
5.243781E+03	1.617284E-16	7.722831E-18
5.253731E+03	1.626349E-16	7.756267E-18
5.263682E+03	1.635424E-16	7.789683E-18
5.273632E+03	1.644702E-16	7.823991E-18
5.283582E+03	1.653793E-16	7.857342E-18
5.293532E+03	1.662888E-16	7.890642E-18
5.303483E+03	1.671985E-16	7.923879E-18
5.313433E+03	1.681082E-16	7.957045E-18
5.323383E+03	1.690177E-16	7.990130E-18
5.333333E+03	1.699269E-16	8.023130E-18
5.343284E+03	1.708155E-16	8.055085E-18
5.353234E+03	1.717233E-16	8.087878E-18
5.363184E+03	1.726303E-16	8.120559E-18
5.373134E+03	1.735158E-16	8.152160E-18
5.383085E+03	1.744205E-16	8.184589E-18
5.393035E+03	1.753033E-16	8.215922E-18
5.402985E+03	1.761844E-16	8.247107E-18
5.412935E+03	1.770846E-16	8.279108E-18
5.422886E+03	1.779620E-16	8.309979E-18
5.432836E+03	1.788375E-16	8.340686E-18
5.442786E+03	1.797107E-16	8.371218E-18
5.452736E+03	1.805815E-16	8.401568E-18
5.462687E+03	1.814498E-16	8.431734E-18
5.472637E+03	1.823155E-16	8.461710E-18
5.482587E+03	1.831784E-16	8.491485E-18
5.492537E+03	1.840170E-16	8.520064E-18
5.502488E+03	1.848738E-16	8.549424E-18
5.512438E+03	1.857276E-16	8.578571E-18
5.522388E+03	1.865561E-16	8.606485E-18
5.532338E+03	1.874029E-16	8.635178E-18
5.542289E+03	1.882240E-16	8.662624E-18
5.552239E+03	1.890411E-16	8.689821E-18
5.562189E+03	1.898764E-16	8.717787E-18
5.572139E+03	1.906853E-16	8.744479E-18
5.582090E+03	1.914898E-16	8.770907E-18
5.592040E+03	1.922897E-16	8.797067E-18
5.601990E+03	1.930849E-16	8.822946E-18
5.611940E+03	1.938753E-16	8.848551E-18
5.621891E+03	1.946606E-16	8.873864E-18
5.631841E+03	1.954408E-16	8.898886E-18
5.641791E+03	1.962156E-16	8.923609E-18
5.651741E+03	1.969620E-16	8.946986E-18
5.661692E+03	1.977257E-16	8.971095E-18
5.671642E+03	1.984837E-16	8.994891E-18
5.681592E+03	1.992126E-16	9.017321E-18
5.691542E+03	1.999585E-16	9.040470E-18
5.701493E+03	2.006751E-16	9.062244E-18
5.711443E+03	2.014085E-16	9.084735E-18
5.721393E+03	2.021121E-16	9.105838E-18
5.731343E+03	2.028091E-16	9.126598E-18
5.741294E+03	2.034993E-16	9.147018E-18
5.751244E+03	2.042064E-16	9.168154E-18
5.761194E+03	2.048829E-16	9.187881E-18
5.771144E+03	2.055526E-16	9.207263E-18
5.781095E+03	2.062151E-16	9.226295E-18
5.791045E+03	2.068706E-16	9.244983E-18
5.800995E+03	2.074949E-16	9.262247E-18
5.810945E+03	2.081361E-16	9.280243E-18
5.820896E+03	2.087702E-16	9.297896E-18
5.830846E+03	2.093972E-16	9.315213E-18
5.840796E+03	2.099929E-16	9.331113E-18
5.850746E+03	2.106059E-16	9.347768E-18
5.860697E+03	2.112119E-16	9.364101E-18
5.870647E+03	2.117865E-16	9.379026E-18
5.880597E+03	2.123791E-16	9.394736E-18
5.890547E+03	2.129403E-16	9.409053E-18
5.900498E+03	2.134950E-16	9.423080E-18
5.910448E+03	2.140683E-16	9.437923E-18
5.920398E+03	2.146105E-16	9.451399E-18
5.930348E+03	2.151468E-16	9.464618E-18
5.940299E+03	2.156775E-16	9.477596E-18
5.950249E+03	2.162277E-16	9.491443E-18
5.960199E+03	2.167478E-16	9.503974E-18
5.970149E+03	2.172629E-16	9.516306E-18
5.980100E+03	2.177733E-16	9.528449E-18
5.990050E+03	2.182795E-16	9.540428E-18
6.000000E+03	2.187817E-16	9.552257E-18
6.009950E+03	2.192547E-16	9.562835E-18
6.019900E+03	2.197497E-16	9.574404E-18
6.029851E+03	2.202415E-16	9.585870E-18
6.039801E+03	2.207306E-16	9.597248E-18
6.049751E+03	2.211915E-16	9.607441E-18
6.059701E+03	2.216757E-16	9.618692E-18
6.069652E+03	2.221580E-16	9.629897E-18
6.079602E+03	2.226124E-16	9.639949E-18
6.089552E+03	2.230912E-16	9.651104E-18
6.099502E+03	2.235425E-16	9.661125E-18
6.109453E+03	2.240183E-16	9.672263E-18
6.119403E+03	2.244667E-16	9.682278E-18
6.129353E+03	2.249135E-16	9.692293E-18
6.139303E+03	2.253851E-16	9.703441E-18
6.149254E+03	2.258287E-16	9.713458E-18
6.159204E+03	2.262705E-16	9.723472E-18
6.169154E+03	2.267364E-16	9.734598E-18
6.179104E+03	2.271734E-16	9.744571E-18
6.189055E+03	2.276076E-16	9.754506E-18
6.199005E+03	2.280387E-16	9.764398E-18
6.208955E+03	2.284663E-16	9.774239E-18
6.218905E+03	2.288902E-16	9.784020E-18
6.228856E+03	2.293100E-16	9.793723E-18
6.238806E+03	2.297252E-16	9.803341E-18
6.248756E+03	2.301355E-16	9.812855E-18
6.258706E+03	2.305403E-16	9.822246E-18
6.268657E+03	2.309388E-16	9.831487E-18
6.278607E+03	2.313034E-16	9.839402E-18
6.288557E+03	2.316871E-16	9.848257E-18
6.298507E+03	2.320623E-16	9.856875E-18
6.308458E+03	2.324278E-16	9.865213E-18
6.318408E+03	2.327556E-16	9.872086E-18
6.328358E+03	2.330989E-16	9.879759E-18
6.338308E+03	2.334295E-16	9.887034E-18
6.348259E+03	2.337192E-16	9.892721E-18
6.358209E+03	2.340210E-16	9.899077E-18
6.368159E+03	2.342796E-16	9.903759E-18
6.378109E+03	2.345484E-16	9.909034E-18
6.388060E+03	2.347717E-16	9.912549E-18
6.398010E+03	2.350033E-16	9.916586E-18
6.407960E+03	2.351880E-16	9.918813E-18
6.417910E+03	2.353525E-16	9.920371E-18
6.427861E+03	2.355246E-16	9.922423E-18
6.437811E+03	2.356491E-16	9.922649E-18
6.447761E+03	2.357540E-16	9.922229E-18
6.457711E+03	2.358673E-16	9.922336E-18
6.467662E+03	2.359343E-16	9.920667E-18
6.477612E+03	2.359834E-16	9.918413E-18
6.487562E+03	2.360150E-16	9.915591E-18
6.497512E+03	2.360296E-16	9.912225E-18
6.507463E+03	2.360557E-16	9.909499E-18
6.517413E+03	2.360385E-16	9.905119E-18
6.527363E+03	2.360064E-16	9.900271E-18
6.537313E+03	2.359600E-16	9.894977E-18
6.547264E+03	2.358998E-16	9.889258E-18
6.557214E+03	2.358267E-16	9.883144E-18
6.567164E+03	2.357410E-16	9.876653E-18
6.577114E+03	2.356433E-16	9.869806E-18
6.587065E+03	2.355344E-16	9.862630E-18
6.597015E+03	2.353873E-16	9.853991E-18
6.606965E+03	2.352575E-16	9.846215E-18
6.616915E+03	2.351182E-16	9.838174E-18
6.626866E+03	2.349697E-16	9.829881E-18
6.636816E+03	2.348127E-16	9.821358E-18
6.646766E+03	2.346201E-16	9.811472E-18
6.656716E+03	2.344476E-16	9.802550E-18
6.666667E+03	2.342680E-16	9.793451E-18
6.676617E+03	2.340819E-16	9.784197E-18
6.686567E+03	2.338622E-16	9.773653E-18
6.696517E+03	2.336644E-16	9.764138E-18
6.706468E+03	2.334341E-16	9.753372E-18
6.716418E+03	2.332264E-16	9.743659E-18
6.726368E+03	2.330144E-16	9.733872E-18
6.736318E+03	2.327713E-16	9.722888E-18
6.746269E+03	2.325521E-16	9.712999E-18
6.756219E+03	2.323026E-16	9.701945E-18
6.766169E+03	2.320778E-16	9.692019E-18
6.776119E+03	2.318236E-16	9.680955E-18
6.786070E+03	2.315948E-16	9.671045E-18
6.796020E+03	2.313375E-16	9.660033E-18
6.805970E+03	2.310792E-16	9.649064E-18
6.815920E+03	2.308476E-16	9.639295E-18
6.825871E+03	2.305885E-16	9.628462E-18
6.835821E+03	2.303296E-16	9.617720E-18
6.845771E+03	2.300985E-16	9.608216E-18
6.855721E+03	2.298412E-16	9.597695E-18
6.865672E+03	2.295853E-16	9.587310E-18
6.875622E+03	2.293311E-16	9.577069E-18
6.885572E+03	2.290791E-16	9.566990E-18
6.895522E+03	2.288566E-16	9.558216E-18
6.905473E+03	2.286099E-16	9.548502E-18
6.915423E+03	2.283666E-16	9.538993E-18
6.925373E+03	2.281270E-16	9.529710E-18
6.935323E+03	2.278913E-16	9.520659E-18
6.945274E+03	2.276602E-16	9.511861E-18
6.955224E+03	2.274339E-16	9.503327E-18
6.965174E+03	2.272131E-16	9.495083E-18
6.975124E+03	2.269978E-16	9.487135E-18
6.985075E+03	2.267887E-16	9.479505E-18
6.995025E+03	2.265863E-16	9.472214E-18
7.004975E+03	2.263907E-16	9.465269E-18
7.014925E+03	2.262026E-16	9.458696E-18
7.024876E+03	2.260225E-16	9.452516E-18
7.034826E+03	2.258239E-16	9.445619E-18
7.044776E+03	2.256609E-16	9.440271E-18
7.054726E+03	2.255074E-16	9.435375E-18
7.064677E+03	2.253636E-16	9.430946E-18
7.074627E+03	2.252301E-16	9.427003E-18
7.084577E+03	2.250808E-16	9.422454E-18
7.094527E+03	2.249697E-16	9.419560E-18
7.104478E+03	2.248705E-16	9.417225E-18
7.114428E+03	2.247571E-16	9.414351E-18
7.124378E+03	2.246835E-16	9.413202E-18
7.134328E+03	2.245968E-16	9.411562E-18
7.144279E+03	2.245512E-16	9.411703E-18
7.154229E+03	2.245204E-16	9.412524E-18
7.164179E+03	2.244785E-16	9.412937E-18
7.174129E+03	2.244794E-16	9.415206E-18
7.184080E+03	2.244704E-16	9.417122E-18
7.194030E+03	2.244788E-16	9.419830E-18
7.203980E+03	2.245322E-16	9.424490E-18
7.213930E+03	2.245775E-16	9.428872E-18
7.223881E+03	2.246692E-16	9.435269E-18
7.233831E+03	2.247541E-16	9.441448E-18
7.243781E+03	2.248600E-16	9.448574E-18
7.253731E+03	2.250141E-16	9.457799E-18
7.263682E+03	2.251637E-16	9.466903E-18
7.273632E+03	2.253359E-16	9.477033E-18
7.283582E+03	2.255317E-16	9.488227E-18
7.293532E+03	2.257515E-16	9.500510E-18
7.303483E+03	2.260231E-16	9.515051E-18
7.313433E+03	2.262927E-16	9.529590E-18
7.323383E+03	2.265882E-16	9.545299E-18
7.333333E+03	2.269097E-16	9.562191E-18
7.343284E+03	2.272576E-16	9.580285E-18
7.353234E+03	2.276323E-16	9.599601E-18
7.363184E+03	2.280341E-16	9.620149E-18
7.373134E+03	2.284629E-16	9.641934E-18
7.383085E+03	2.289187E-16	9.664957E-18
7.393035E+03	2.294014E-16	9.689217E-18
7.402985E+03	2.299107E-16	9.714709E-18
7.412935E+03	2.304183E-16	9.740237E-18
7.422886E+03	2.309791E-16	9.768125E-18
7.432836E+03	2.315647E-16	9.797177E-18
7.442786E+03	2.321740E-16	9.827349E-18
7.452736E+03	2.327779E-16	9.857417E-18
7.462687E+03	2.334314E-16	9.889709E-18
7.472637E+03	2.341052E-16	9.922993E-18
7.482587E+03	2.347697E-16	9.956014E-18
7.492537E+03	2.354805E-16	9.991138E-18
7.502488E+03	2.362086E-16	1.002713E-17
7.512438E+03	2.369248E-16	1.006277E-17
7.522388E+03	2.376865E-16	1.010049E-17
7.532338E+03	2.384367E-16	1.013787E-17
7.542289E+03	2.392340E-16	1.017742E-17
7.552239E+03	2.400217E-16	1.021671E-17
7.562189E+03	2.408300E-16	1.025705E-17
7.572139E+03	2.416900E-16	1.029975E-17
7.582090E+03	2.425440E-16	1.034236E-17
7.592040E+03	2.434228E-16	1.038620E-17
7.601990E+03	2.443574E-16	1.043258E-17
7.611940E+03	2.452894E-16	1.047902E-17
7.621891E+03	2.462491E-16	1.052682E-17
7.631841E+03	2.472375E-16	1.057600E-17
7.641791E+03	2.482552E-16	1.062661E-17
7.651741E+03	2.493023E-16	1.067866E-17
7.661692E+03	2.504102E-16	1.073348E-17
7.671642E+03	2.515174E-16	1.078844E-17
7.681592E+03	2.526549E-16	1.084489E-17
7.691542E+03	2.538223E-16	1.090279E-17
7.701493E+03	2.549884E-16	1.096082E-17
7.711443E+03	2.562151E-16	1.102163E-17
7.721393E+03	2.574710E-16	1.108389E-17
