#wls	flux	fluxerr
1.592040E+03	1.376712E-17	1.791392E-18
1.631841E+03	1.399068E-17	1.816758E-18
1.671642E+03	1.420892E-17	1.841218E-18
1.711443E+03	1.442380E-17	1.865019E-18
1.751244E+03	1.463174E-17	1.887698E-18
1.791045E+03	1.482662E-17	1.908467E-18
1.830846E+03	1.501139E-17	1.927707E-18
1.870647E+03	1.517211E-17	1.943636E-18
1.910448E+03	1.530737E-17	1.956090E-18
1.950249E+03	1.540897E-17	1.964041E-18
1.990050E+03	1.547666E-17	1.967485E-18
2.029851E+03	1.552508E-17	1.968309E-18
2.069652E+03	1.558003E-17	1.969792E-18
2.109453E+03	1.569944E-17	1.979222E-18
2.149254E+03	1.592658E-17	2.001963E-18
2.189055E+03	1.629404E-17	2.041973E-18
2.228856E+03	1.678903E-17	2.097479E-18
2.268657E+03	1.737595E-17	2.163882E-18
2.308458E+03	1.801838E-17	2.236530E-18
2.348259E+03	1.868397E-17	2.311331E-18
2.388060E+03	1.935951E-17	2.386604E-18
2.427861E+03	2.003183E-17	2.460693E-18
2.467662E+03	2.070698E-17	2.534317E-18
2.507463E+03	2.138757E-17	2.607765E-18
2.547264E+03	2.207366E-17	2.681010E-18
2.587065E+03	2.276906E-17	2.754475E-18
2.626866E+03	2.347749E-17	2.828570E-18
2.666667E+03	2.420654E-17	2.904154E-18
2.706468E+03	2.495556E-17	2.981088E-18
2.746269E+03	2.572754E-17	3.059662E-18
2.786070E+03	2.652971E-17	3.140665E-18
2.825871E+03	2.736052E-17	3.223826E-18
2.865672E+03	2.822721E-17	3.309911E-18
2.905473E+03	2.912783E-17	3.398589E-18
2.945274E+03	3.006480E-17	3.490043E-18
2.985075E+03	3.104056E-17	3.584442E-18
2.995025E+03	3.129084E-17	3.608521E-18
3.004975E+03	3.154374E-17	3.632798E-18
3.014925E+03	3.180456E-17	3.657879E-18
3.024876E+03	3.206291E-17	3.682567E-18
3.034826E+03	3.232444E-17	3.707512E-18
3.044776E+03	3.258925E-17	3.732721E-18
3.054726E+03	3.285804E-17	3.758271E-18
3.064677E+03	3.313615E-17	3.784773E-18
3.074627E+03	3.341259E-17	3.810965E-18
3.084577E+03	3.369269E-17	3.837454E-18
3.094527E+03	3.398197E-17	3.864867E-18
3.104478E+03	3.426920E-17	3.891921E-18
3.114428E+03	3.455987E-17	3.919241E-18
3.124378E+03	3.485966E-17	3.947466E-18
3.134328E+03	3.515711E-17	3.975296E-18
3.144279E+03	3.546369E-17	4.004025E-18
3.154229E+03	3.576779E-17	4.032339E-18
3.164179E+03	3.608106E-17	4.061550E-18
3.174129E+03	3.639170E-17	4.090326E-18
3.184080E+03	3.671159E-17	4.120000E-18
3.194030E+03	3.702875E-17	4.149225E-18
3.203980E+03	3.735526E-17	4.179351E-18
3.213930E+03	3.767894E-17	4.209013E-18
3.223881E+03	3.801208E-17	4.239583E-18
3.233831E+03	3.834234E-17	4.269679E-18
3.243781E+03	3.868218E-17	4.300689E-18
3.253731E+03	3.901909E-17	4.331215E-18
3.263682E+03	3.936573E-17	4.362663E-18
3.273632E+03	3.971586E-17	4.394334E-18
3.283582E+03	4.006297E-17	4.425509E-18
3.293532E+03	4.042008E-17	4.457622E-18
3.303483E+03	4.078077E-17	4.489961E-18
3.313433E+03	4.113842E-17	4.521793E-18
3.323383E+03	4.150635E-17	4.554583E-18
3.333333E+03	4.187800E-17	4.587602E-18
3.343284E+03	4.224656E-17	4.620106E-18
3.353234E+03	4.262572E-17	4.653588E-18
3.363184E+03	4.300874E-17	4.687305E-18
3.373134E+03	4.339567E-17	4.721261E-18
3.383085E+03	4.378655E-17	4.755458E-18
3.393035E+03	4.417435E-17	4.789126E-18
3.402985E+03	4.457328E-17	4.823806E-18
3.412935E+03	4.497634E-17	4.858735E-18
3.422886E+03	4.538359E-17	4.893914E-18
3.432836E+03	4.579508E-17	4.929345E-18
3.442786E+03	4.620347E-17	4.964235E-18
3.452736E+03	4.662356E-17	5.000174E-18
3.462687E+03	4.704808E-17	5.036372E-18
3.472637E+03	4.747708E-17	5.072833E-18
3.482587E+03	4.791062E-17	5.109557E-18
3.492537E+03	4.834877E-17	5.146549E-18
3.502488E+03	4.879156E-17	5.183808E-18
3.512438E+03	4.923908E-17	5.221338E-18
3.522388E+03	4.969137E-17	5.259140E-18
3.532338E+03	5.014851E-17	5.297216E-18
3.542289E+03	5.061053E-17	5.335567E-18
3.552239E+03	5.107751E-17	5.374196E-18
3.562189E+03	5.154131E-17	5.412243E-18
3.572139E+03	5.201830E-17	5.451424E-18
3.582090E+03	5.250042E-17	5.490888E-18
3.592040E+03	5.298772E-17	5.530632E-18
3.601990E+03	5.348027E-17	5.570659E-18
3.611940E+03	5.397811E-17	5.610970E-18
3.621891E+03	5.448129E-17	5.651565E-18
3.631841E+03	5.498988E-17	5.692444E-18
3.641791E+03	5.550393E-17	5.733609E-18
3.651741E+03	5.602348E-17	5.775058E-18
3.661692E+03	5.654860E-17	5.816791E-18
3.671642E+03	5.708833E-17	5.859733E-18
3.681592E+03	5.762478E-17	5.902040E-18
3.691542E+03	5.816695E-17	5.944630E-18
3.701493E+03	5.871489E-17	5.987503E-18
3.711443E+03	5.926861E-17	6.030656E-18
3.721393E+03	5.982819E-17	6.074090E-18
3.731343E+03	6.039366E-17	6.117802E-18
3.741294E+03	6.096506E-17	6.161790E-18
3.751244E+03	6.154244E-17	6.206053E-18
3.761194E+03	6.212583E-17	6.250589E-18
3.771144E+03	6.271527E-17	6.295394E-18
3.781095E+03	6.331080E-17	6.340467E-18
3.791045E+03	6.391246E-17	6.385805E-18
3.800995E+03	6.452027E-17	6.431404E-18
3.810945E+03	6.513428E-17	6.477262E-18
3.820896E+03	6.575452E-17	6.523375E-18
3.830846E+03	6.638099E-17	6.569739E-18
3.840796E+03	6.701375E-17	6.616350E-18
3.850746E+03	6.766333E-17	6.664240E-18
3.860697E+03	6.830882E-17	6.711340E-18
3.870647E+03	6.896065E-17	6.758672E-18
3.880597E+03	6.961885E-17	6.806234E-18
3.890547E+03	7.028346E-17	6.854021E-18
3.900498E+03	7.095446E-17	6.902025E-18
3.910448E+03	7.163189E-17	6.950242E-18
3.920398E+03	7.231575E-17	6.998666E-18
3.930348E+03	7.300606E-17	7.047290E-18
3.940299E+03	7.370282E-17	7.096109E-18
3.950249E+03	7.440605E-17	7.145115E-18
3.960199E+03	7.511575E-17	7.194302E-18
3.970149E+03	7.583191E-17	7.243663E-18
3.980100E+03	7.655454E-17	7.293190E-18
3.990050E+03	7.728365E-17	7.342875E-18
4.000000E+03	7.801922E-17	7.392711E-18
4.009950E+03	7.876125E-17	7.442689E-18
4.019900E+03	7.950973E-17	7.492802E-18
4.029851E+03	8.026466E-17	7.543040E-18
4.039801E+03	8.102601E-17	7.593395E-18
4.049751E+03	8.179376E-17	7.643856E-18
4.059701E+03	8.256796E-17	7.694420E-18
4.069652E+03	8.334852E-17	7.745070E-18
4.079602E+03	8.413543E-17	7.795799E-18
4.089552E+03	8.492871E-17	7.846601E-18
4.099502E+03	8.572829E-17	7.897460E-18
4.109453E+03	8.653409E-17	7.948361E-18
4.119403E+03	8.733293E-17	7.998090E-18
4.129353E+03	8.815110E-17	8.049051E-18
4.139303E+03	8.897552E-17	8.100034E-18
4.149254E+03	8.980611E-17	8.151023E-18
4.159204E+03	9.064280E-17	8.202003E-18
4.169154E+03	9.148550E-17	8.252961E-18
4.179104E+03	9.233430E-17	8.303895E-18
4.189055E+03	9.317488E-17	8.353514E-18
4.199005E+03	9.403548E-17	8.404345E-18
4.208955E+03	9.490196E-17	8.455109E-18
4.218905E+03	9.577422E-17	8.505790E-18
4.228856E+03	9.665220E-17	8.556374E-18
4.238806E+03	9.752126E-17	8.605560E-18
4.248756E+03	9.841058E-17	8.655922E-18
4.258706E+03	9.930545E-17	8.706148E-18
4.268657E+03	1.002059E-16	8.756231E-18
4.278607E+03	1.010965E-16	8.804829E-18
4.288557E+03	1.020076E-16	8.854571E-18
4.298507E+03	1.029240E-16	8.904126E-18
4.308458E+03	1.038301E-16	8.952140E-18
4.318408E+03	1.047568E-16	9.001273E-18
4.328358E+03	1.056727E-16	9.048813E-18
4.338308E+03	1.066093E-16	9.097465E-18
4.348259E+03	1.075507E-16	9.145848E-18
4.358209E+03	1.084808E-16	9.192585E-18
4.368159E+03	1.094316E-16	9.240399E-18
4.378109E+03	1.103705E-16	9.286511E-18
4.388060E+03	1.113302E-16	9.333685E-18
4.398010E+03	1.122775E-16	9.379114E-18
4.407960E+03	1.132456E-16	9.425576E-18
4.417910E+03	1.142009E-16	9.470252E-18
4.427861E+03	1.151598E-16	9.514527E-18
4.437811E+03	1.161396E-16	9.559799E-18
4.447761E+03	1.171058E-16	9.603217E-18
4.457711E+03	1.180927E-16	9.647610E-18
4.467662E+03	1.190653E-16	9.690096E-18
4.477612E+03	1.200409E-16	9.732083E-18
4.487562E+03	1.210194E-16	9.773560E-18
4.497512E+03	1.220184E-16	9.815949E-18
4.507463E+03	1.230020E-16	9.856341E-18
4.517413E+03	1.239878E-16	9.896150E-18
4.527363E+03	1.249757E-16	9.935370E-18
4.537313E+03	1.259840E-16	9.975440E-18
4.547264E+03	1.269755E-16	1.001341E-17
4.557214E+03	1.279684E-16	1.005072E-17
4.567164E+03	1.289626E-16	1.008736E-17
4.577114E+03	1.299577E-16	1.012329E-17
4.587065E+03	1.309537E-16	1.015851E-17
4.597015E+03	1.319503E-16	1.019298E-17
4.606965E+03	1.329471E-16	1.022670E-17
4.616915E+03	1.339443E-16	1.025964E-17
4.626866E+03	1.349413E-16	1.029179E-17
4.636816E+03	1.359382E-16	1.032313E-17
4.646766E+03	1.369346E-16	1.035364E-17
4.656716E+03	1.379306E-16	1.038331E-17
4.666667E+03	1.389258E-16	1.041214E-17
4.676617E+03	1.399203E-16	1.044010E-17
4.686567E+03	1.408932E-16	1.046565E-17
4.696517E+03	1.418857E-16	1.049187E-17
4.706468E+03	1.428771E-16	1.051719E-17
4.716418E+03	1.438675E-16	1.054164E-17
4.726368E+03	1.448357E-16	1.056366E-17
4.736318E+03	1.458239E-16	1.058633E-17
4.746269E+03	1.468112E-16	1.060813E-17
4.756219E+03	1.477758E-16	1.062748E-17
4.766169E+03	1.487611E-16	1.064751E-17
4.776119E+03	1.497236E-16	1.066511E-17
4.786070E+03	1.507070E-16	1.068338E-17
4.796020E+03	1.516673E-16	1.069922E-17
4.805970E+03	1.526486E-16	1.071572E-17
4.815920E+03	1.536061E-16	1.072974E-17
4.825871E+03	1.545844E-16	1.074441E-17
4.835821E+03	1.555382E-16	1.075656E-17
4.845771E+03	1.565125E-16	1.076932E-17
4.855721E+03	1.574616E-16	1.077954E-17
4.865672E+03	1.584085E-16	1.078880E-17
4.875622E+03	1.593761E-16	1.079867E-17
4.885572E+03	1.603185E-16	1.080602E-17
4.895522E+03	1.612588E-16	1.081243E-17
4.905473E+03	1.621970E-16	1.081790E-17
4.915423E+03	1.631333E-16	1.082244E-17
4.925373E+03	1.640913E-16	1.082762E-17
4.935323E+03	1.650238E-16	1.083030E-17
4.945274E+03	1.659545E-16	1.083207E-17
4.955224E+03	1.668836E-16	1.083293E-17
4.965174E+03	1.678110E-16	1.083287E-17
4.975124E+03	1.687370E-16	1.083192E-17
4.985075E+03	1.696617E-16	1.083007E-17
4.995025E+03	1.705853E-16	1.082734E-17
5.004975E+03	1.715077E-16	1.082372E-17
5.014925E+03	1.724044E-16	1.081767E-17
5.024876E+03	1.733252E-16	1.081231E-17
5.034826E+03	1.742454E-16	1.080609E-17
5.044776E+03	1.751650E-16	1.079901E-17
5.054726E+03	1.760844E-16	1.079108E-17
5.064677E+03	1.769781E-16	1.078075E-17
5.074627E+03	1.778972E-16	1.077113E-17
5.084577E+03	1.788162E-16	1.076068E-17
5.094527E+03	1.797096E-16	1.074784E-17
5.104478E+03	1.806291E-16	1.073572E-17
5.114428E+03	1.815227E-16	1.072122E-17
5.124378E+03	1.824429E-16	1.070744E-17
5.134328E+03	1.833372E-16	1.069129E-17
5.144279E+03	1.842583E-16	1.067585E-17
5.154229E+03	1.851535E-16	1.065805E-17
5.164179E+03	1.860758E-16	1.064095E-17
5.174129E+03	1.869721E-16	1.062150E-17
5.184080E+03	1.878957E-16	1.060273E-17
5.194030E+03	1.887931E-16	1.058161E-17
5.203980E+03	1.896908E-16	1.055965E-17
5.213930E+03	1.905891E-16	1.053685E-17
5.223881E+03	1.915153E-16	1.051471E-17
5.233831E+03	1.924146E-16	1.049021E-17
5.243781E+03	1.933142E-16	1.046486E-17
5.253731E+03	1.942141E-16	1.043864E-17
5.263682E+03	1.951144E-16	1.041157E-17
5.273632E+03	1.960148E-16	1.038362E-17
5.283582E+03	1.969152E-16	1.035479E-17
5.293532E+03	1.978156E-16	1.032507E-17
5.303483E+03	1.987161E-16	1.029447E-17
5.313433E+03	1.996162E-16	1.026297E-17
5.323383E+03	2.005160E-16	1.023056E-17
5.333333E+03	2.014154E-16	1.019724E-17
5.343284E+03	2.023141E-16	1.016301E-17
5.353234E+03	2.032122E-16	1.012785E-17
5.363184E+03	2.041094E-16	1.009176E-17
5.373134E+03	2.049763E-16	1.005331E-17
5.383085E+03	2.058712E-16	1.001535E-17
5.393035E+03	2.067647E-16	9.976438E-18
5.402985E+03	2.076568E-16	9.936579E-18
5.412935E+03	2.085174E-16	9.894348E-18
5.422886E+03	2.094058E-16	9.852575E-18
5.432836E+03	2.102921E-16	9.809831E-18
5.442786E+03	2.111460E-16	9.764725E-18
5.452736E+03	2.120275E-16	9.720042E-18
5.462687E+03	2.128760E-16	9.672999E-18
5.472637E+03	2.137519E-16	9.626364E-18
5.482587E+03	2.145942E-16	9.577380E-18
5.492537E+03	2.154635E-16	9.528780E-18
5.502488E+03	2.162986E-16	9.477844E-18
5.512438E+03	2.171297E-16	9.425939E-18
5.522388E+03	2.179876E-16	9.374393E-18
5.532338E+03	2.188103E-16	9.320540E-18
5.542289E+03	2.196282E-16	9.265717E-18
5.552239E+03	2.204725E-16	9.211238E-18
5.562189E+03	2.212805E-16	9.154478E-18
5.572139E+03	2.220830E-16	9.096762E-18
5.582090E+03	2.228800E-16	9.038096E-18
5.592040E+03	2.236709E-16	8.978480E-18
5.601990E+03	2.244876E-16	8.919194E-18
5.611940E+03	2.252660E-16	8.857702E-18
5.621891E+03	2.260377E-16	8.795287E-18
5.631841E+03	2.268024E-16	8.731960E-18
5.641791E+03	2.275600E-16	8.667737E-18
5.651741E+03	2.283099E-16	8.602623E-18
5.661692E+03	2.290520E-16	8.536636E-18
5.671642E+03	2.297860E-16	8.469791E-18
5.681592E+03	2.305116E-16	8.402103E-18
5.691542E+03	2.312286E-16	8.333593E-18
5.701493E+03	2.319037E-16	8.263104E-18
5.711443E+03	2.326024E-16	8.193011E-18
5.721393E+03	2.332915E-16	8.122157E-18
5.731343E+03	2.339709E-16	8.050567E-18
5.741294E+03	2.346400E-16	7.978260E-18
5.751244E+03	2.352655E-16	7.904151E-18
5.761194E+03	2.359134E-16	7.830510E-18
5.771144E+03	2.365504E-16	7.756246E-18
5.781095E+03	2.371426E-16	7.680301E-18
5.791045E+03	2.377566E-16	7.604894E-18
5.800995E+03	2.383588E-16	7.528966E-18
5.810945E+03	2.389151E-16	7.451500E-18
5.820896E+03	2.394927E-16	7.374657E-18
5.830846E+03	2.400235E-16	7.296381E-18
5.840796E+03	2.405754E-16	7.218796E-18
5.850746E+03	2.410798E-16	7.139893E-18
5.860697E+03	2.416049E-16	7.061761E-18
5.870647E+03	2.420819E-16	6.982437E-18
5.880597E+03	2.425791E-16	6.903967E-18
5.890547E+03	2.430278E-16	6.824446E-18
5.900498E+03	2.434620E-16	6.744921E-18
5.910448E+03	2.439160E-16	6.666402E-18
5.920398E+03	2.443207E-16	6.587061E-18
5.930348E+03	2.447104E-16	6.507917E-18
5.940299E+03	2.451196E-16	6.429959E-18
5.950249E+03	2.454791E-16	6.351433E-18
5.960199E+03	2.458232E-16	6.273339E-18
5.970149E+03	2.461522E-16	6.195766E-18
5.980100E+03	2.465007E-16	6.119660E-18
5.990050E+03	2.467994E-16	6.043378E-18
6.000000E+03	2.470830E-16	5.967887E-18
6.009950E+03	2.473519E-16	5.893287E-18
6.019900E+03	2.476064E-16	5.819685E-18
6.029851E+03	2.478466E-16	5.747182E-18
6.039801E+03	2.480735E-16	5.675895E-18
6.049751E+03	2.482872E-16	5.605935E-18
6.059701E+03	2.484886E-16	5.537421E-18
6.069652E+03	2.486787E-16	5.470481E-18
6.079602E+03	2.488584E-16	5.405236E-18
6.089552E+03	2.490289E-16	5.341822E-18
6.099502E+03	2.491917E-16	5.280373E-18
6.109453E+03	2.493484E-16	5.221030E-18
6.119403E+03	2.495010E-16	5.163935E-18
6.129353E+03	2.496517E-16	5.109240E-18
6.139303E+03	2.498030E-16	5.057094E-18
6.149254E+03	2.499580E-16	5.007658E-18
6.159204E+03	2.500845E-16	4.960388E-18
6.169154E+03	2.502570E-16	4.916862E-18
6.179104E+03	2.504444E-16	4.876540E-18
6.189055E+03	2.506512E-16	4.839593E-18
6.199005E+03	2.508773E-16	4.806093E-18
6.208955E+03	2.510828E-16	4.775318E-18
6.218905E+03	2.513345E-16	4.748519E-18
6.228856E+03	2.515935E-16	4.724919E-18
6.238806E+03	2.518205E-16	4.703757E-18
6.248756E+03	2.520841E-16	4.686273E-18
6.258706E+03	2.523460E-16	4.671712E-18
6.268657E+03	2.525684E-16	4.659327E-18
6.278607E+03	2.528205E-16	4.650347E-18
6.288557E+03	2.530292E-16	4.643372E-18
6.298507E+03	2.532647E-16	4.639629E-18
6.308458E+03	2.534897E-16	4.638372E-18
6.318408E+03	2.536676E-16	4.638860E-18
6.328358E+03	2.538688E-16	4.642315E-18
6.338308E+03	2.540210E-16	4.647336E-18
6.348259E+03	2.541955E-16	4.655153E-18
6.358209E+03	2.543197E-16	4.664359E-18
6.368159E+03	2.544293E-16	4.675522E-18
6.378109E+03	2.545601E-16	4.689223E-18
6.388060E+03	2.546402E-16	4.704050E-18
6.398010E+03	2.547413E-16	4.721246E-18
6.407960E+03	2.547917E-16	4.739396E-18
6.417910E+03	2.548274E-16	4.759069E-18
6.427861E+03	2.548846E-16	4.780817E-18
6.437811E+03	2.548911E-16	4.803161E-18
6.447761E+03	2.548831E-16	4.826652E-18
6.457711E+03	2.548969E-16	4.851856E-18
6.467662E+03	2.548606E-16	4.877287E-18
6.477612E+03	2.548107E-16	4.903517E-18
6.487562E+03	2.547836E-16	4.931134E-18
6.497512E+03	2.547075E-16	4.958641E-18
6.507463E+03	2.546191E-16	4.986633E-18
6.517413E+03	2.545188E-16	5.015013E-18
6.527363E+03	2.544070E-16	5.043688E-18
6.537313E+03	2.543205E-16	5.073291E-18
6.547264E+03	2.541874E-16	5.102302E-18
6.557214E+03	2.540446E-16	5.131358E-18
6.567164E+03	2.538923E-16	5.160381E-18
6.577114E+03	2.537311E-16	5.189300E-18
6.587065E+03	2.535616E-16	5.218048E-18
6.597015E+03	2.533843E-16	5.246560E-18
6.606965E+03	2.531996E-16	5.274777E-18
6.616915E+03	2.530080E-16	5.302638E-18
6.626866E+03	2.528099E-16	5.330093E-18
6.636816E+03	2.526060E-16	5.357092E-18
6.646766E+03	2.523964E-16	5.383586E-18
6.656716E+03	2.521819E-16	5.409535E-18
6.666667E+03	2.519627E-16	5.434896E-18
6.676617E+03	2.517393E-16	5.459633E-18
6.686567E+03	2.515122E-16	5.483711E-18
6.696517E+03	2.512816E-16	5.507097E-18
6.706468E+03	2.510481E-16	5.529762E-18
6.716418E+03	2.508121E-16	5.551682E-18
6.726368E+03	2.505738E-16	5.572831E-18
6.736318E+03	2.503337E-16	5.593187E-18
6.746269E+03	2.500923E-16	5.612733E-18
6.756219E+03	2.498497E-16	5.631447E-18
6.766169E+03	2.495709E-16	5.648514E-18
6.776119E+03	2.493272E-16	5.665523E-18
6.786070E+03	2.490837E-16	5.681665E-18
6.796020E+03	2.488403E-16	5.696926E-18
6.805970E+03	2.485978E-16	5.711304E-18
6.815920E+03	2.483209E-16	5.723974E-18
6.825871E+03	2.480806E-16	5.736558E-18
6.835821E+03	2.478420E-16	5.748245E-18
6.845771E+03	2.476054E-16	5.759032E-18
6.855721E+03	2.473359E-16	5.768097E-18
6.865672E+03	2.471043E-16	5.777084E-18
6.875622E+03	2.468755E-16	5.785174E-18
6.885572E+03	2.466148E-16	5.791549E-18
6.895522E+03	2.463928E-16	5.797862E-18
6.905473E+03	2.461747E-16	5.803298E-18
6.915423E+03	2.459256E-16	5.807033E-18
6.925373E+03	2.457159E-16	5.810735E-18
6.935323E+03	2.454759E-16	5.812754E-18
6.945274E+03	2.452760E-16	5.814763E-18
6.955224E+03	2.450814E-16	5.815946E-18
6.965174E+03	2.448573E-16	5.815483E-18
6.975124E+03	2.446741E-16	5.815052E-18
6.985075E+03	2.444620E-16	5.813003E-18
6.995025E+03	2.442913E-16	5.811020E-18
7.004975E+03	2.440924E-16	5.807454E-18
7.014925E+03	2.439353E-16	5.803988E-18
7.024876E+03	2.437506E-16	5.798980E-18
7.034826E+03	2.436082E-16	5.794107E-18
7.044776E+03	2.434387E-16	5.787734E-18
7.054726E+03	2.433121E-16	5.781541E-18
7.064677E+03	2.431590E-16	5.773893E-18
7.074627E+03	2.430143E-16	5.765644E-18
7.084577E+03	2.429134E-16	5.757644E-18
7.094527E+03	2.427867E-16	5.748266E-18
7.104478E+03	2.427042E-16	5.739187E-18
7.114428E+03	2.425964E-16	5.728787E-18
7.124378E+03	2.424985E-16	5.717920E-18
7.134328E+03	2.424455E-16	5.707432E-18
7.144279E+03	2.423681E-16	5.695717E-18
7.154229E+03	2.423014E-16	5.683624E-18
7.164179E+03	2.422803E-16	5.672002E-18
7.174129E+03	2.422357E-16	5.659254E-18
7.184080E+03	2.422024E-16	5.646230E-18
7.194030E+03	2.421810E-16	5.632968E-18
7.203980E+03	2.422064E-16	5.620311E-18
7.213930E+03	2.422093E-16	5.606679E-18
7.223881E+03	2.422249E-16	5.592924E-18
7.233831E+03	2.422534E-16	5.579085E-18
7.243781E+03	2.422951E-16	5.565205E-18
7.253731E+03	2.423854E-16	5.552125E-18
7.263682E+03	2.424548E-16	5.538294E-18
7.273632E+03	2.425387E-16	5.524559E-18
7.283582E+03	2.426375E-16	5.510969E-18
7.293532E+03	2.427515E-16	5.497573E-18
7.303483E+03	2.428813E-16	5.484425E-18
7.313433E+03	2.430274E-16	5.471577E-18
7.323383E+03	2.431904E-16	5.459086E-18
7.333333E+03	2.433708E-16	5.447012E-18
7.343284E+03	2.435693E-16	5.435413E-18
7.353234E+03	2.437867E-16	5.424352E-18
7.363184E+03	2.440234E-16	5.413891E-18
7.373134E+03	2.442806E-16	5.404099E-18
7.383085E+03	2.445587E-16	5.395039E-18
7.393035E+03	2.448587E-16	5.386783E-18
7.402985E+03	2.451813E-16	5.379399E-18
7.412935E+03	2.455274E-16	5.372956E-18
7.422886E+03	2.458977E-16	5.367526E-18
7.432836E+03	2.462929E-16	5.363174E-18
7.442786E+03	2.467134E-16	5.359968E-18
7.452736E+03	2.471597E-16	5.357973E-18
7.462687E+03	2.476317E-16	5.357242E-18
7.472637E+03	2.481295E-16	5.357834E-18
7.482587E+03	2.486162E-16	5.359012E-18
7.492537E+03	2.491630E-16	5.362366E-18
7.502488E+03	2.497321E-16	5.367145E-18
7.512438E+03	2.503219E-16	5.373363E-18
7.522388E+03	2.509324E-16	5.381085E-18
7.532338E+03	2.515293E-16	5.389630E-18
7.542289E+03	2.521870E-16	5.400649E-18
7.552239E+03	2.528705E-16	5.413383E-18
7.562189E+03	2.535802E-16	5.427808E-18
7.572139E+03	2.542795E-16	5.443096E-18
7.582090E+03	2.550419E-16	5.460779E-18
7.592040E+03	2.558304E-16	5.480020E-18
7.601990E+03	2.566073E-16	5.499966E-18
7.611940E+03	2.574461E-16	5.522146E-18
7.621891E+03	2.583091E-16	5.545706E-18
7.631841E+03	2.591577E-16	5.569768E-18
7.641791E+03	2.600664E-16	5.595882E-18
7.651741E+03	2.609586E-16	5.622354E-18
7.661692E+03	2.619094E-16	5.650750E-18
7.671642E+03	2.628800E-16	5.680185E-18
7.681592E+03	2.638313E-16	5.709761E-18
7.691542E+03	2.648390E-16	5.741066E-18
7.701493E+03	2.658253E-16	5.772365E-18
7.711443E+03	2.668670E-16	5.805269E-18
7.721393E+03	2.678854E-16	5.838021E-18
