#wls	flux	fluxerr
1.592040E+03	1.726395E-17	3.682997E-19
1.631841E+03	1.752638E-17	3.736966E-19
1.671642E+03	1.778075E-17	3.789096E-19
1.711443E+03	1.802626E-17	3.839211E-19
1.751244E+03	1.826150E-17	3.887014E-19
1.791045E+03	1.848204E-17	3.931561E-19
1.830846E+03	1.868175E-17	3.971551E-19
1.870647E+03	1.885647E-17	4.006102E-19
1.910448E+03	1.899116E-17	4.032028E-19
1.950249E+03	1.908238E-17	4.048615E-19
1.990050E+03	1.913342E-17	4.056572E-19
2.029851E+03	1.915231E-17	4.057620E-19
2.069652E+03	1.918447E-17	4.061383E-19
2.109453E+03	1.928744E-17	4.080027E-19
2.149254E+03	1.952375E-17	4.126729E-19
2.189055E+03	1.992547E-17	4.208188E-19
2.228856E+03	2.047894E-17	4.321429E-19
2.268657E+03	2.113945E-17	4.456935E-19
2.308458E+03	2.185793E-17	4.604295E-19
2.348259E+03	2.259798E-17	4.755801E-19
2.388060E+03	2.333912E-17	4.907124E-19
2.427861E+03	2.407304E-17	5.056497E-19
2.467662E+03	2.480300E-17	5.204597E-19
2.507463E+03	2.552274E-17	5.350099E-19
2.547264E+03	2.624505E-17	5.495667E-19
2.587065E+03	2.696487E-17	5.640225E-19
2.626866E+03	2.769559E-17	5.786561E-19
2.666667E+03	2.843615E-17	5.934422E-19
2.706468E+03	2.918458E-17	6.083374E-19
2.746269E+03	2.995391E-17	6.236104E-19
2.786070E+03	3.074165E-17	6.392058E-19
2.825871E+03	3.155006E-17	6.551672E-19
2.865672E+03	3.238123E-17	6.715340E-19
2.905473E+03	3.323707E-17	6.883415E-19
2.945274E+03	3.411940E-17	7.056229E-19
2.985075E+03	3.502992E-17	7.234087E-19
2.995025E+03	3.526215E-17	7.279372E-19
3.004975E+03	3.549627E-17	7.324996E-19
3.014925E+03	3.573231E-17	7.370961E-19
3.024876E+03	3.597669E-17	7.418594E-19
3.034826E+03	3.621725E-17	7.465384E-19
3.044776E+03	3.646038E-17	7.512647E-19
3.054726E+03	3.670682E-17	7.560535E-19
3.064677E+03	3.695643E-17	7.609018E-19
3.074627E+03	3.720904E-17	7.658061E-19
3.084577E+03	3.746455E-17	7.707641E-19
3.094527E+03	3.772283E-17	7.757730E-19
3.104478E+03	3.798379E-17	7.808309E-19
3.114428E+03	3.824733E-17	7.859356E-19
3.124378E+03	3.851337E-17	7.910855E-19
3.134328E+03	3.878184E-17	7.962786E-19
3.144279E+03	3.905954E-17	8.016548E-19
3.154229E+03	3.933274E-17	8.069319E-19
3.164179E+03	3.960821E-17	8.122490E-19
3.174129E+03	3.988591E-17	8.176050E-19
3.184080E+03	4.016581E-17	8.229992E-19
3.194030E+03	4.044788E-17	8.284309E-19
3.203980E+03	4.073211E-17	8.338997E-19
3.213930E+03	4.101848E-17	8.394052E-19
3.223881E+03	4.130698E-17	8.449472E-19
3.233831E+03	4.159761E-17	8.505253E-19
3.243781E+03	4.189771E-17	8.562895E-19
3.253731E+03	4.219266E-17	8.619409E-19
3.263682E+03	4.248975E-17	8.676283E-19
3.273632E+03	4.278898E-17	8.733517E-19
3.283582E+03	4.309039E-17	8.791118E-19
3.293532E+03	4.339398E-17	8.849084E-19
3.303483E+03	4.369979E-17	8.907421E-19
3.313433E+03	4.401551E-17	8.967699E-19
3.323383E+03	4.432585E-17	9.026796E-19
3.333333E+03	4.463846E-17	9.086271E-19
3.343284E+03	4.495339E-17	9.146133E-19
3.353234E+03	4.527065E-17	9.206385E-19
3.363184E+03	4.559027E-17	9.267031E-19
3.373134E+03	4.591231E-17	9.328079E-19
3.383085E+03	4.623678E-17	9.389534E-19
3.393035E+03	4.657187E-17	9.453052E-19
3.402985E+03	4.690138E-17	9.515346E-19
3.412935E+03	4.723344E-17	9.578064E-19
3.422886E+03	4.756807E-17	9.641212E-19
3.432836E+03	4.790534E-17	9.704798E-19
3.442786E+03	4.824526E-17	9.768825E-19
3.452736E+03	4.859637E-17	9.835019E-19
3.462687E+03	4.894180E-17	9.899963E-19
3.472637E+03	4.928999E-17	9.965367E-19
3.482587E+03	4.964101E-17	1.003124E-18
3.492537E+03	4.999489E-17	1.009759E-18
3.502488E+03	5.035168E-17	1.016442E-18
3.512438E+03	5.072023E-17	1.023352E-18
3.522388E+03	5.108299E-17	1.030134E-18
3.532338E+03	5.144877E-17	1.036967E-18
3.542289E+03	5.181760E-17	1.043850E-18
3.552239E+03	5.218953E-17	1.050784E-18
3.562189E+03	5.256460E-17	1.057770E-18
3.572139E+03	5.294285E-17	1.064809E-18
3.582090E+03	5.333359E-17	1.072087E-18
3.592040E+03	5.371837E-17	1.079234E-18
3.601990E+03	5.410644E-17	1.086434E-18
3.611940E+03	5.449783E-17	1.093690E-18
3.621891E+03	5.489259E-17	1.101001E-18
3.631841E+03	5.529075E-17	1.108367E-18
3.641791E+03	5.570204E-17	1.115984E-18
3.651741E+03	5.610718E-17	1.123465E-18
3.661692E+03	5.651583E-17	1.131004E-18
3.671642E+03	5.692802E-17	1.138600E-18
3.681592E+03	5.734380E-17	1.146255E-18
3.691542E+03	5.776319E-17	1.153968E-18
3.701493E+03	5.819632E-17	1.161943E-18
3.711443E+03	5.862310E-17	1.169776E-18
3.721393E+03	5.905359E-17	1.177670E-18
3.731343E+03	5.948782E-17	1.185624E-18
3.741294E+03	5.992582E-17	1.193638E-18
3.751244E+03	6.037809E-17	1.201923E-18
3.761194E+03	6.082380E-17	1.210062E-18
3.771144E+03	6.127336E-17	1.218263E-18
3.781095E+03	6.172682E-17	1.226525E-18
3.791045E+03	6.218419E-17	1.234851E-18
3.800995E+03	6.264550E-17	1.243239E-18
3.810945E+03	6.311078E-17	1.251690E-18
3.820896E+03	6.359108E-17	1.260423E-18
3.830846E+03	6.406446E-17	1.269003E-18
3.840796E+03	6.454189E-17	1.277646E-18
3.850746E+03	6.502338E-17	1.286353E-18
3.860697E+03	6.550895E-17	1.295124E-18
3.870647E+03	6.599865E-17	1.303959E-18
3.880597E+03	6.650399E-17	1.313087E-18
3.890547E+03	6.700205E-17	1.322053E-18
3.900498E+03	6.750430E-17	1.331083E-18
3.910448E+03	6.801074E-17	1.340179E-18
3.920398E+03	6.852139E-17	1.349339E-18
3.930348E+03	6.903628E-17	1.358565E-18
3.940299E+03	6.955541E-17	1.367855E-18
3.950249E+03	7.009092E-17	1.377448E-18
3.960199E+03	7.061868E-17	1.386870E-18
3.970149E+03	7.115074E-17	1.396357E-18
3.980100E+03	7.168711E-17	1.405909E-18
3.990050E+03	7.222780E-17	1.415525E-18
4.000000E+03	7.277282E-17	1.425207E-18
4.009950E+03	7.332219E-17	1.434954E-18
4.019900E+03	7.388867E-17	1.445014E-18
4.029851E+03	7.444685E-17	1.454891E-18
4.039801E+03	7.500940E-17	1.464833E-18
4.049751E+03	7.557633E-17	1.474838E-18
4.059701E+03	7.614766E-17	1.484908E-18
4.069652E+03	7.672337E-17	1.495042E-18
4.079602E+03	7.730348E-17	1.505238E-18
4.089552E+03	7.788799E-17	1.515499E-18
4.099502E+03	7.849043E-17	1.526085E-18
4.109453E+03	7.908384E-17	1.536473E-18
4.119403E+03	7.968165E-17	1.546923E-18
4.129353E+03	8.028388E-17	1.557435E-18
4.139303E+03	8.089050E-17	1.568008E-18
4.149254E+03	8.150152E-17	1.578643E-18
4.159204E+03	8.211694E-17	1.589339E-18
4.169154E+03	8.273674E-17	1.600095E-18
4.179104E+03	8.336093E-17	1.610911E-18
4.189055E+03	8.398948E-17	1.621786E-18
4.199005E+03	8.463696E-17	1.633001E-18
4.208955E+03	8.527435E-17	1.643995E-18
4.218905E+03	8.591607E-17	1.655047E-18
4.228856E+03	8.656214E-17	1.666157E-18
4.238806E+03	8.721252E-17	1.677322E-18
4.248756E+03	8.786720E-17	1.688544E-18
4.258706E+03	8.852616E-17	1.699821E-18
4.268657E+03	8.918940E-17	1.711152E-18
4.278607E+03	8.985689E-17	1.722537E-18
4.288557E+03	9.052862E-17	1.733975E-18
4.298507E+03	9.120459E-17	1.745467E-18
4.308458E+03	9.188465E-17	1.757008E-18
4.318408E+03	9.256900E-17	1.768602E-18
4.328358E+03	9.325746E-17	1.780245E-18
4.338308E+03	9.395003E-17	1.791937E-18
4.348259E+03	9.464670E-17	1.803678E-18
4.358209E+03	9.534737E-17	1.815465E-18
4.368159E+03	9.605223E-17	1.827301E-18
4.378109E+03	9.676109E-17	1.839183E-18
4.388060E+03	9.749065E-17	1.851427E-18
4.398010E+03	9.820758E-17	1.863400E-18
4.407960E+03	9.892850E-17	1.875416E-18
4.417910E+03	9.965340E-17	1.887476E-18
4.427861E+03	1.003822E-16	1.899578E-18
4.437811E+03	1.011148E-16	1.911720E-18
4.447761E+03	1.018515E-16	1.923905E-18
4.457711E+03	1.025920E-16	1.936129E-18
4.467662E+03	1.033187E-16	1.948060E-18
4.477612E+03	1.040668E-16	1.960362E-18
4.487562E+03	1.048188E-16	1.972704E-18
4.497512E+03	1.055747E-16	1.985083E-18
4.507463E+03	1.063345E-16	1.997502E-18
4.517413E+03	1.070982E-16	2.009959E-18
4.527363E+03	1.078658E-16	2.022454E-18
4.537313E+03	1.086373E-16	2.034987E-18
4.547264E+03	1.094129E-16	2.047560E-18
4.557214E+03	1.101925E-16	2.060173E-18
4.567164E+03	1.109762E-16	2.072825E-18
4.577114E+03	1.117640E-16	2.085518E-18
4.587065E+03	1.125561E-16	2.098254E-18
4.597015E+03	1.133524E-16	2.111031E-18
4.606965E+03	1.141533E-16	2.123854E-18
4.616915E+03	1.149585E-16	2.136722E-18
4.626866E+03	1.157683E-16	2.149635E-18
4.636816E+03	1.165829E-16	2.162598E-18
4.646766E+03	1.173822E-16	2.175240E-18
4.656716E+03	1.182063E-16	2.188303E-18
4.666667E+03	1.190355E-16	2.201421E-18
4.676617E+03	1.198699E-16	2.214592E-18
4.686567E+03	1.207096E-16	2.227822E-18
4.696517E+03	1.215546E-16	2.241110E-18
4.706468E+03	1.224051E-16	2.254458E-18
4.716418E+03	1.232612E-16	2.267867E-18
4.726368E+03	1.241018E-16	2.280949E-18
4.736318E+03	1.249690E-16	2.294480E-18
4.746269E+03	1.258420E-16	2.308073E-18
4.756219E+03	1.267207E-16	2.321727E-18
4.766169E+03	1.276049E-16	2.335439E-18
4.776119E+03	1.284947E-16	2.349211E-18
4.786070E+03	1.293680E-16	2.362637E-18
4.796020E+03	1.302686E-16	2.376516E-18
4.805970E+03	1.311744E-16	2.390446E-18
4.815920E+03	1.320852E-16	2.404421E-18
4.825871E+03	1.330009E-16	2.418441E-18
4.835821E+03	1.338986E-16	2.432087E-18
4.845771E+03	1.348233E-16	2.446178E-18
4.855721E+03	1.357522E-16	2.460299E-18
4.865672E+03	1.366850E-16	2.474444E-18
4.875622E+03	1.376215E-16	2.488609E-18
4.885572E+03	1.385378E-16	2.502362E-18
4.895522E+03	1.394806E-16	2.516545E-18
4.905473E+03	1.404262E-16	2.530731E-18
4.915423E+03	1.413743E-16	2.544914E-18
4.925373E+03	1.423003E-16	2.558651E-18
4.935323E+03	1.432522E-16	2.572805E-18
4.945274E+03	1.442056E-16	2.586939E-18
4.955224E+03	1.451603E-16	2.601047E-18
4.965174E+03	1.460911E-16	2.614676E-18
4.975124E+03	1.470473E-16	2.628711E-18
4.985075E+03	1.480037E-16	2.642702E-18
4.995025E+03	1.489351E-16	2.656197E-18
5.004975E+03	1.498914E-16	2.670086E-18
5.014925E+03	1.508474E-16	2.683921E-18
5.024876E+03	1.517771E-16	2.697238E-18
5.034826E+03	1.527316E-16	2.710946E-18
5.044776E+03	1.536852E-16	2.724588E-18
5.054726E+03	1.546114E-16	2.737695E-18
5.064677E+03	1.555624E-16	2.751192E-18
5.074627E+03	1.565119E-16	2.764614E-18
5.084577E+03	1.574333E-16	2.777487E-18
5.094527E+03	1.583795E-16	2.790750E-18
5.104478E+03	1.593239E-16	2.803931E-18
5.114428E+03	1.602393E-16	2.816551E-18
5.124378E+03	1.611797E-16	2.829564E-18
5.134328E+03	1.621182E-16	2.842491E-18
5.144279E+03	1.630269E-16	2.854847E-18
5.154229E+03	1.639611E-16	2.867599E-18
5.164179E+03	1.648650E-16	2.879774E-18
5.174129E+03	1.657945E-16	2.892346E-18
5.184080E+03	1.667219E-16	2.904831E-18
5.194030E+03	1.676184E-16	2.916731E-18
5.203980E+03	1.685410E-16	2.929034E-18
5.213930E+03	1.694325E-16	2.940748E-18
5.223881E+03	1.703503E-16	2.952870E-18
5.233831E+03	1.712367E-16	2.964401E-18
5.243781E+03	1.721496E-16	2.976341E-18
5.253731E+03	1.730601E-16	2.988191E-18
5.263682E+03	1.739388E-16	2.999444E-18
5.273632E+03	1.748444E-16	3.011113E-18
5.283582E+03	1.757178E-16	3.022180E-18
5.293532E+03	1.766185E-16	3.033668E-18
5.303483E+03	1.774867E-16	3.044550E-18
5.313433E+03	1.783824E-16	3.055857E-18
5.323383E+03	1.792452E-16	3.066555E-18
5.333333E+03	1.801359E-16	3.077681E-18
5.343284E+03	1.809933E-16	3.088193E-18
5.353234E+03	1.818789E-16	3.099140E-18
5.363184E+03	1.827310E-16	3.109469E-18
5.373134E+03	1.836113E-16	3.120232E-18
5.383085E+03	1.844577E-16	3.130375E-18
5.393035E+03	1.853014E-16	3.140425E-18
5.402985E+03	1.861736E-16	3.150914E-18
5.412935E+03	1.870115E-16	3.160777E-18
5.422886E+03	1.878781E-16	3.171081E-18
5.432836E+03	1.887100E-16	3.180756E-18
5.442786E+03	1.895709E-16	3.190873E-18
5.452736E+03	1.903966E-16	3.200356E-18
5.462687E+03	1.912191E-16	3.209743E-18
5.472637E+03	1.920708E-16	3.219575E-18
5.482587E+03	1.928867E-16	3.228765E-18
5.492537E+03	1.937318E-16	3.238403E-18
5.502488E+03	1.945408E-16	3.247393E-18
5.512438E+03	1.953461E-16	3.256282E-18
5.522388E+03	1.961808E-16	3.265620E-18
5.532338E+03	1.969785E-16	3.274301E-18
5.542289E+03	1.978058E-16	3.283434E-18
5.552239E+03	1.985956E-16	3.291904E-18
5.562189E+03	1.993811E-16	3.300265E-18
5.572139E+03	2.001961E-16	3.309075E-18
5.582090E+03	2.009729E-16	3.317215E-18
5.592040E+03	2.017451E-16	3.325241E-18
5.601990E+03	2.025466E-16	3.333714E-18
5.611940E+03	2.033090E-16	3.341507E-18
5.621891E+03	2.040664E-16	3.349180E-18
5.631841E+03	2.048529E-16	3.357297E-18
5.641791E+03	2.055995E-16	3.364724E-18
5.651741E+03	2.063404E-16	3.372023E-18
5.661692E+03	2.070753E-16	3.379193E-18
5.671642E+03	2.078392E-16	3.386802E-18
5.681592E+03	2.085619E-16	3.393707E-18
5.691542E+03	2.092780E-16	3.400473E-18
5.701493E+03	2.100228E-16	3.407675E-18
5.711443E+03	2.107252E-16	3.414160E-18
5.721393E+03	2.114205E-16	3.420499E-18
5.731343E+03	2.121082E-16	3.426687E-18
5.741294E+03	2.128240E-16	3.433303E-18
5.751244E+03	2.134962E-16	3.439185E-18
5.761194E+03	2.141600E-16	3.444909E-18
5.771144E+03	2.148152E-16	3.450469E-18
5.781095E+03	2.154617E-16	3.455864E-18
5.791045E+03	2.161355E-16	3.461676E-18
5.800995E+03	2.167636E-16	3.466731E-18
5.810945E+03	2.173821E-16	3.471611E-18
5.820896E+03	2.179906E-16	3.476311E-18
5.830846E+03	2.185888E-16	3.480830E-18
5.840796E+03	2.192136E-16	3.485751E-18
5.850746E+03	2.197906E-16	3.489896E-18
5.860697E+03	2.203565E-16	3.493847E-18
5.870647E+03	2.209109E-16	3.497602E-18
5.880597E+03	2.214538E-16	3.501160E-18
5.890547E+03	2.220222E-16	3.505108E-18
5.900498E+03	2.225410E-16	3.508259E-18
5.910448E+03	2.230472E-16	3.511204E-18
5.920398E+03	2.235408E-16	3.513938E-18
5.930348E+03	2.240214E-16	3.516461E-18
5.940299E+03	2.244890E-16	3.518772E-18
5.950249E+03	2.249431E-16	3.520867E-18
5.960199E+03	2.253836E-16	3.522744E-18
5.970149E+03	2.258487E-16	3.525000E-18
5.980100E+03	2.262618E-16	3.526443E-18
5.990050E+03	2.266611E-16	3.527668E-18
6.000000E+03	2.270463E-16	3.528677E-18
6.009950E+03	2.274177E-16	3.529470E-18
6.019900E+03	2.277750E-16	3.530048E-18
6.029851E+03	2.281183E-16	3.530414E-18
6.039801E+03	2.284479E-16	3.530573E-18
6.049751E+03	2.287637E-16	3.530525E-18
6.059701E+03	2.290661E-16	3.530278E-18
6.069652E+03	2.293552E-16	3.529834E-18
6.079602E+03	2.296313E-16	3.529203E-18
6.089552E+03	2.299337E-16	3.528985E-18
6.099502E+03	2.301852E-16	3.527996E-18
6.109453E+03	2.304249E-16	3.526843E-18
6.119403E+03	2.306535E-16	3.525533E-18
6.129353E+03	2.308715E-16	3.524078E-18
6.139303E+03	2.310795E-16	3.522487E-18
6.149254E+03	2.312781E-16	3.520770E-18
6.159204E+03	2.314680E-16	3.518941E-18
6.169154E+03	2.316499E-16	3.517011E-18
6.179104E+03	2.318243E-16	3.514988E-18
6.189055E+03	2.319919E-16	3.512882E-18
6.199005E+03	2.321531E-16	3.510704E-18
6.208955E+03	2.323082E-16	3.508457E-18
6.218905E+03	2.324576E-16	3.506149E-18
6.228856E+03	2.326017E-16	3.503784E-18
6.238806E+03	2.327405E-16	3.501365E-18
6.248756E+03	2.328745E-16	3.498897E-18
6.258706E+03	2.330039E-16	3.496383E-18
6.268657E+03	2.331290E-16	3.493827E-18
6.278607E+03	2.332106E-16	3.490645E-18
6.288557E+03	2.333280E-16	3.488022E-18
6.298507E+03	2.334421E-16	3.485372E-18
6.308458E+03	2.335533E-16	3.482702E-18
6.318408E+03	2.336622E-16	3.480019E-18
6.328358E+03	2.337691E-16	3.477330E-18
6.338308E+03	2.338746E-16	3.474641E-18
6.348259E+03	2.339792E-16	3.471959E-18
6.358209E+03	2.340833E-16	3.469291E-18
6.368159E+03	2.341875E-16	3.466646E-18
6.378109E+03	2.342924E-16	3.464029E-18
6.388060E+03	2.343984E-16	3.461450E-18
6.398010E+03	2.345061E-16	3.458915E-18
6.407960E+03	2.345763E-16	3.455848E-18
6.417910E+03	2.346890E-16	3.453424E-18
6.427861E+03	2.348049E-16	3.451066E-18
6.437811E+03	2.349245E-16	3.448781E-18
6.447761E+03	2.350484E-16	3.446574E-18
6.457711E+03	2.351772E-16	3.444454E-18
6.467662E+03	2.353111E-16	3.442424E-18
6.477612E+03	2.354506E-16	3.440490E-18
6.487562E+03	2.355565E-16	3.438078E-18
6.497512E+03	2.357087E-16	3.436354E-18
6.507463E+03	2.358677E-16	3.434740E-18
6.517413E+03	2.360339E-16	3.433241E-18
6.527363E+03	2.362077E-16	3.431860E-18
6.537313E+03	2.363893E-16	3.430600E-18
6.547264E+03	2.365391E-16	3.428886E-18
6.557214E+03	2.367372E-16	3.427879E-18
6.567164E+03	2.369441E-16	3.427003E-18
6.577114E+03	2.371597E-16	3.426257E-18
6.587065E+03	2.373844E-16	3.425644E-18
6.597015E+03	2.375781E-16	3.424587E-18
6.606965E+03	2.378213E-16	3.424244E-18
6.616915E+03	2.380741E-16	3.424038E-18
6.626866E+03	2.383365E-16	3.423968E-18
6.636816E+03	2.386087E-16	3.424037E-18
6.646766E+03	2.388504E-16	3.423664E-18
6.656716E+03	2.391424E-16	3.424008E-18
6.666667E+03	2.394443E-16	3.424489E-18
6.676617E+03	2.397564E-16	3.425107E-18
6.686567E+03	2.400785E-16	3.425861E-18
6.696517E+03	2.403704E-16	3.426175E-18
6.706468E+03	2.407128E-16	3.427200E-18
6.716418E+03	2.410655E-16	3.428360E-18
6.726368E+03	2.414284E-16	3.429654E-18
6.736318E+03	2.417607E-16	3.430499E-18
6.746269E+03	2.421441E-16	3.432057E-18
6.756219E+03	2.425376E-16	3.433743E-18
6.766169E+03	2.429003E-16	3.434977E-18
6.776119E+03	2.433142E-16	3.436919E-18
6.786070E+03	2.437383E-16	3.438987E-18
6.796020E+03	2.441725E-16	3.441178E-18
6.805970E+03	2.445756E-16	3.442910E-18
6.815920E+03	2.450299E-16	3.445344E-18
6.825871E+03	2.454943E-16	3.447896E-18
6.835821E+03	2.459270E-16	3.449983E-18
6.845771E+03	2.464113E-16	3.452770E-18
6.855721E+03	2.469054E-16	3.455668E-18
6.865672E+03	2.474094E-16	3.458679E-18
6.875622E+03	2.478813E-16	3.461215E-18
6.885572E+03	2.484047E-16	3.464443E-18
6.895522E+03	2.489377E-16	3.467777E-18
6.905473E+03	2.494382E-16	3.470628E-18
6.915423E+03	2.499902E-16	3.474167E-18
6.925373E+03	2.505517E-16	3.477805E-18
6.935323E+03	2.510800E-16	3.480953E-18
6.945274E+03	2.516599E-16	3.484782E-18
6.955224E+03	2.522490E-16	3.488704E-18
6.965174E+03	2.528045E-16	3.492127E-18
6.975124E+03	2.534115E-16	3.496228E-18
6.985075E+03	2.539844E-16	3.499820E-18
6.995025E+03	2.546089E-16	3.504087E-18
7.004975E+03	2.552419E-16	3.508434E-18
7.014925E+03	2.558402E-16	3.512265E-18
7.024876E+03	2.564899E-16	3.516761E-18
7.034826E+03	2.571479E-16	3.521331E-18
7.044776E+03	2.577703E-16	3.525372E-18
7.054726E+03	2.584441E-16	3.530074E-18
7.064677E+03	2.590816E-16	3.534239E-18
7.074627E+03	2.597705E-16	3.539060E-18
7.084577E+03	2.604666E-16	3.543935E-18
7.094527E+03	2.611257E-16	3.548263E-18
7.104478E+03	2.618357E-16	3.553237E-18
7.114428E+03	2.625079E-16	3.557651E-18
7.124378E+03	2.632309E-16	3.562707E-18
7.134328E+03	2.639600E-16	3.567798E-18
7.144279E+03	2.646502E-16	3.572315E-18
7.154229E+03	2.653907E-16	3.577462E-18
7.164179E+03	2.660913E-16	3.582024E-18
7.174129E+03	2.668420E-16	3.587208E-18
7.184080E+03	2.675518E-16	3.591793E-18
7.194030E+03	2.683112E-16	3.596993E-18
7.203980E+03	2.690744E-16	3.602192E-18
7.213930E+03	2.697955E-16	3.606776E-18
7.223881E+03	2.705652E-16	3.611958E-18
7.233831E+03	2.712917E-16	3.616510E-18
7.243781E+03	2.720663E-16	3.621649E-18
7.253731E+03	2.727963E-16	3.626143E-18
7.263682E+03	2.735738E-16	3.631214E-18
7.273632E+03	2.743055E-16	3.635625E-18
7.283582E+03	2.750840E-16	3.640600E-18
7.293532E+03	2.758154E-16	3.644899E-18
7.303483E+03	2.765926E-16	3.649749E-18
7.313433E+03	2.773215E-16	3.653907E-18
7.323383E+03	2.780955E-16	3.658604E-18
7.333333E+03	2.788196E-16	3.662591E-18
7.343284E+03	2.795879E-16	3.667103E-18
7.353234E+03	2.803049E-16	3.670890E-18
7.363184E+03	2.810652E-16	3.675188E-18
7.373134E+03	2.817729E-16	3.678745E-18
7.383085E+03	2.825229E-16	3.682800E-18
7.393035E+03	2.832188E-16	3.686097E-18
7.402985E+03	2.839562E-16	3.689881E-18
7.412935E+03	2.846382E-16	3.692892E-18
7.422886E+03	2.853609E-16	3.696378E-18
7.432836E+03	2.860270E-16	3.699080E-18
7.442786E+03	2.867329E-16	3.702245E-18
7.452736E+03	2.873811E-16	3.704613E-18
7.462687E+03	2.880686E-16	3.707438E-18
7.472637E+03	2.886972E-16	3.709456E-18
7.482587E+03	2.893647E-16	3.711925E-18
7.492537E+03	2.899724E-16	3.713579E-18
7.502488E+03	2.905693E-16	3.715049E-18
7.512438E+03	2.912047E-16	3.716963E-18
7.522388E+03	2.917794E-16	3.718058E-18
7.532338E+03	2.923925E-16	3.719597E-18
7.542289E+03	2.929446E-16	3.720317E-18
7.552239E+03	2.935352E-16	3.721483E-18
7.562189E+03	2.940646E-16	3.721831E-18
7.572139E+03	2.945826E-16	3.721997E-18
7.582090E+03	2.951396E-16	3.722614E-18
7.592040E+03	2.956354E-16	3.722423E-18
7.601990E+03	2.961708E-16	3.722693E-18
7.611940E+03	2.966452E-16	3.722159E-18
7.621891E+03	2.971092E-16	3.721462E-18
7.631841E+03	2.976137E-16	3.721239E-18
7.641791E+03	2.980578E-16	3.720228E-18
7.651741E+03	2.985432E-16	3.719702E-18
7.661692E+03	2.989687E-16	3.718400E-18
7.671642E+03	2.993855E-16	3.716962E-18
7.681592E+03	2.998448E-16	3.716025E-18
7.691542E+03	3.002451E-16	3.714332E-18
7.701493E+03	3.006377E-16	3.712521E-18
7.711443E+03	3.010742E-16	3.711228E-18
7.721393E+03	3.014526E-16	3.709199E-18
