#wls	flux	fluxerr
1.600000E+03	2.450446E-17	7.836163E-19
1.640000E+03	2.511532E-17	8.024727E-19
1.680000E+03	2.577076E-17	8.227012E-19
1.720000E+03	2.647172E-17	8.443263E-19
1.760000E+03	2.722138E-17	8.674439E-19
1.800000E+03	2.802511E-17	8.922180E-19
1.840000E+03	2.887868E-17	9.185077E-19
1.880000E+03	2.978948E-17	9.465402E-19
1.920000E+03	3.075764E-17	9.763119E-19
1.960000E+03	3.178319E-17	1.007815E-18
2.000000E+03	3.286373E-17	1.040966E-18
2.040000E+03	3.399909E-17	1.075750E-18
2.080000E+03	3.518449E-17	1.112006E-18
2.120000E+03	3.641074E-17	1.149436E-18
2.160000E+03	3.767540E-17	1.187955E-18
2.200000E+03	3.896732E-17	1.227203E-18
2.240000E+03	4.027775E-17	1.266897E-18
2.280000E+03	4.160241E-17	1.306897E-18
2.320000E+03	4.294127E-17	1.347196E-18
2.360000E+03	4.430044E-17	1.387978E-18
2.400000E+03	4.568777E-17	1.429483E-18
2.440000E+03	4.711061E-17	1.471931E-18
2.480000E+03	4.858190E-17	1.515717E-18
2.520000E+03	5.010789E-17	1.561022E-18
2.560000E+03	5.169824E-17	1.608136E-18
2.600000E+03	5.335608E-17	1.657140E-18
2.640000E+03	5.508606E-17	1.708163E-18
2.680000E+03	5.688849E-17	1.761196E-18
2.720000E+03	5.876333E-17	1.816222E-18
2.760000E+03	6.071025E-17	1.873212E-18
2.800000E+03	6.272671E-17	1.932069E-18
2.840000E+03	6.480999E-17	1.992690E-18
2.880000E+03	6.696070E-17	2.055076E-18
2.920000E+03	6.917554E-17	2.119105E-18
2.960000E+03	7.145970E-17	2.184917E-18
3.000000E+03	7.381255E-17	2.252472E-18
3.010000E+03	7.441388E-17	2.269703E-18
3.020000E+03	7.501868E-17	2.287016E-18
3.030000E+03	7.562683E-17	2.304408E-18
3.040000E+03	7.624158E-17	2.321976E-18
3.050000E+03	7.686107E-17	2.339664E-18
3.060000E+03	7.748522E-17	2.357469E-18
3.070000E+03	7.811550E-17	2.375435E-18
3.080000E+03	7.875014E-17	2.393508E-18
3.090000E+03	7.938897E-17	2.411682E-18
3.100000E+03	8.003517E-17	2.430055E-18
3.110000E+03	8.068526E-17	2.448518E-18
3.120000E+03	8.134079E-17	2.467121E-18
3.130000E+03	8.199996E-17	2.485806E-18
3.140000E+03	8.266747E-17	2.504716E-18
3.150000E+03	8.333837E-17	2.523702E-18
3.160000E+03	8.401404E-17	2.542804E-18
3.170000E+03	8.469600E-17	2.562068E-18
3.180000E+03	8.538405E-17	2.581487E-18
3.190000E+03	8.607483E-17	2.600959E-18
3.200000E+03	8.677303E-17	2.620627E-18
3.210000E+03	8.747522E-17	2.640385E-18
3.220000E+03	8.818283E-17	2.660276E-18
3.230000E+03	8.889424E-17	2.680251E-18
3.240000E+03	8.961077E-17	2.700351E-18
3.250000E+03	9.033224E-17	2.720567E-18
3.260000E+03	9.105853E-17	2.740898E-18
3.270000E+03	9.178795E-17	2.761291E-18
3.280000E+03	9.252187E-17	2.781787E-18
3.290000E+03	9.326013E-17	2.802381E-18
3.300000E+03	9.400102E-17	2.823021E-18
3.310000E+03	9.474599E-17	2.843751E-18
3.320000E+03	9.549329E-17	2.864518E-18
3.330000E+03	9.624437E-17	2.885364E-18
3.340000E+03	9.699753E-17	2.906239E-18
3.350000E+03	9.775259E-17	2.927137E-18
3.360000E+03	9.850949E-17	2.948056E-18
3.370000E+03	9.926811E-17	2.968991E-18
3.380000E+03	1.000283E-16	2.989937E-18
3.390000E+03	1.007884E-16	3.010847E-18
3.400000E+03	1.015498E-16	3.031762E-18
3.410000E+03	1.023095E-16	3.052588E-18
3.420000E+03	1.030703E-16	3.073413E-18
3.430000E+03	1.038291E-16	3.094143E-18
3.440000E+03	1.045860E-16	3.114778E-18
3.450000E+03	1.053408E-16	3.135317E-18
3.460000E+03	1.060920E-16	3.155712E-18
3.470000E+03	1.068409E-16	3.176003E-18
3.480000E+03	1.075862E-16	3.196150E-18
3.490000E+03	1.083263E-16	3.216105E-18
3.500000E+03	1.090612E-16	3.235870E-18
3.510000E+03	1.097894E-16	3.255402E-18
3.520000E+03	1.105123E-16	3.274742E-18
3.530000E+03	1.112259E-16	3.293767E-18
3.540000E+03	1.119314E-16	3.312519E-18
3.550000E+03	1.126276E-16	3.330959E-18
3.560000E+03	1.133143E-16	3.349084E-18
3.570000E+03	1.139891E-16	3.366821E-18
3.580000E+03	1.146505E-16	3.384129E-18
3.590000E+03	1.153001E-16	3.401054E-18
3.600000E+03	1.159339E-16	3.417478E-18
3.610000E+03	1.165534E-16	3.433447E-18
3.620000E+03	1.171574E-16	3.448926E-18
3.630000E+03	1.177433E-16	3.463841E-18
3.640000E+03	1.183100E-16	3.478160E-18
3.650000E+03	1.188578E-16	3.491890E-18
3.660000E+03	1.193842E-16	3.504962E-18
3.670000E+03	1.198908E-16	3.517422E-18
3.680000E+03	1.203738E-16	3.529164E-18
3.690000E+03	1.208337E-16	3.540197E-18
3.700000E+03	1.212694E-16	3.550494E-18
3.710000E+03	1.216811E-16	3.560066E-18
3.720000E+03	1.220667E-16	3.568845E-18
3.730000E+03	1.224265E-16	3.576846E-18
3.740000E+03	1.227595E-16	3.584042E-18
3.750000E+03	1.230662E-16	3.590447E-18
3.760000E+03	1.233455E-16	3.596032E-18
3.770000E+03	1.235979E-16	3.600813E-18
3.780000E+03	1.238226E-16	3.604766E-18
3.790000E+03	1.240186E-16	3.607868E-18
3.800000E+03	1.241888E-16	3.610203E-18
3.810000E+03	1.243300E-16	3.611676E-18
3.820000E+03	1.244437E-16	3.612338E-18
3.830000E+03	1.245315E-16	3.612237E-18
3.840000E+03	1.245914E-16	3.611313E-18
3.850000E+03	1.246239E-16	3.609583E-18
3.860000E+03	1.246304E-16	3.607093E-18
3.870000E+03	1.246115E-16	3.603857E-18
3.880000E+03	1.245674E-16	3.599886E-18
3.890000E+03	1.244974E-16	3.595160E-18
3.900000E+03	1.244030E-16	3.589726E-18
3.910000E+03	1.242846E-16	3.583596E-18
3.920000E+03	1.241426E-16	3.576780E-18
3.930000E+03	1.239773E-16	3.569294E-18
3.940000E+03	1.237892E-16	3.561147E-18
3.950000E+03	1.235795E-16	3.552383E-18
3.960000E+03	1.233488E-16	3.543016E-18
3.970000E+03	1.230962E-16	3.533023E-18
3.980000E+03	1.228244E-16	3.522482E-18
3.990000E+03	1.225325E-16	3.511368E-18
4.000000E+03	1.222218E-16	3.499725E-18
4.010000E+03	1.218929E-16	3.487562E-18
4.020000E+03	1.215448E-16	3.474860E-18
4.030000E+03	1.211800E-16	3.461689E-18
4.040000E+03	1.207977E-16	3.448030E-18
4.050000E+03	1.203994E-16	3.433922E-18
4.060000E+03	1.199852E-16	3.419372E-18
4.070000E+03	1.195554E-16	3.404392E-18
4.080000E+03	1.191104E-16	3.388988E-18
4.090000E+03	1.186514E-16	3.373201E-18
4.100000E+03	1.181775E-16	3.357007E-18
4.110000E+03	1.176891E-16	3.340416E-18
4.120000E+03	1.171886E-16	3.323495E-18
4.130000E+03	1.166739E-16	3.306191E-18
4.140000E+03	1.161465E-16	3.288545E-18
4.150000E+03	1.156065E-16	3.270560E-18
4.160000E+03	1.150542E-16	3.252245E-18
4.170000E+03	1.144897E-16	3.233607E-18
4.180000E+03	1.139133E-16	3.214655E-18
4.190000E+03	1.133253E-16	3.195394E-18
4.200000E+03	1.127258E-16	3.175834E-18
4.210000E+03	1.121150E-16	3.155978E-18
4.220000E+03	1.114932E-16	3.135833E-18
4.230000E+03	1.108595E-16	3.115381E-18
4.240000E+03	1.102143E-16	3.094629E-18
4.250000E+03	1.095587E-16	3.073611E-18
4.260000E+03	1.088927E-16	3.052330E-18
4.270000E+03	1.082150E-16	3.030746E-18
4.280000E+03	1.075264E-16	3.008887E-18
4.290000E+03	1.068273E-16	2.986761E-18
4.300000E+03	1.061179E-16	2.964377E-18
4.310000E+03	1.053984E-16	2.941740E-18
4.320000E+03	1.046681E-16	2.918834E-18
4.330000E+03	1.039290E-16	2.895713E-18
4.340000E+03	1.031795E-16	2.872334E-18
4.350000E+03	1.024217E-16	2.848757E-18
4.360000E+03	1.016558E-16	2.824988E-18
4.370000E+03	1.008828E-16	2.801055E-18
4.380000E+03	1.001030E-16	2.776967E-18
4.390000E+03	9.931732E-17	2.752754E-18
4.400000E+03	9.852617E-17	2.728422E-18
4.410000E+03	9.773129E-17	2.704023E-18
4.420000E+03	9.693295E-17	2.679565E-18
4.430000E+03	9.613126E-17	2.655050E-18
4.440000E+03	9.532822E-17	2.630535E-18
4.450000E+03	9.452389E-17	2.606021E-18
4.460000E+03	9.371922E-17	2.581535E-18
4.470000E+03	9.291622E-17	2.557132E-18
4.480000E+03	9.211404E-17	2.532789E-18
4.490000E+03	9.131455E-17	2.508558E-18
4.500000E+03	9.051873E-17	2.484465E-18
4.510000E+03	8.972670E-17	2.460514E-18
4.520000E+03	8.893943E-17	2.436730E-18
4.530000E+03	8.815789E-17	2.413141E-18
4.540000E+03	8.738299E-17	2.389771E-18
4.550000E+03	8.661576E-17	2.366648E-18
4.560000E+03	8.585622E-17	2.343772E-18
4.570000E+03	8.510461E-17	2.321148E-18
4.580000E+03	8.436342E-17	2.298845E-18
4.590000E+03	8.363212E-17	2.276847E-18
4.600000E+03	8.291072E-17	2.255155E-18
4.610000E+03	8.220111E-17	2.233818E-18
4.620000E+03	8.150420E-17	2.212861E-18
4.630000E+03	8.081864E-17	2.192246E-18
4.640000E+03	8.014775E-17	2.172063E-18
4.650000E+03	7.948947E-17	2.152254E-18
4.660000E+03	7.884639E-17	2.132890E-18
4.670000E+03	7.821866E-17	2.113973E-18
4.680000E+03	7.760669E-17	2.095512E-18
4.690000E+03	7.701074E-17	2.077515E-18
4.700000E+03	7.643122E-17	2.059991E-18
4.710000E+03	7.586983E-17	2.042985E-18
4.720000E+03	7.532640E-17	2.026491E-18
4.730000E+03	7.480127E-17	2.010516E-18
4.740000E+03	7.429569E-17	1.995094E-18
4.750000E+03	7.380857E-17	1.980193E-18
4.760000E+03	7.334265E-17	1.965886E-18
4.770000E+03	7.289627E-17	1.952126E-18
4.780000E+03	7.247139E-17	1.938964E-18
4.790000E+03	7.206855E-17	1.926414E-18
4.800000E+03	7.168667E-17	1.914445E-18
4.810000E+03	7.132674E-17	1.903081E-18
4.820000E+03	7.098923E-17	1.892333E-18
4.830000E+03	7.067195E-17	1.882142E-18
4.840000E+03	7.037471E-17	1.872502E-18
4.850000E+03	7.009657E-17	1.863384E-18
4.860000E+03	6.983589E-17	1.854745E-18
4.870000E+03	6.959186E-17	1.846561E-18
4.880000E+03	6.936421E-17	1.838826E-18
4.890000E+03	6.915160E-17	1.831500E-18
4.900000E+03	6.895383E-17	1.824579E-18
4.910000E+03	6.876883E-17	1.818006E-18
4.920000E+03	6.859674E-17	1.811784E-18
4.930000E+03	6.843692E-17	1.805896E-18
4.940000E+03	6.828813E-17	1.800307E-18
4.950000E+03	6.815058E-17	1.795023E-18
4.960000E+03	6.802303E-17	1.790010E-18
4.970000E+03	6.790588E-17	1.785278E-18
4.980000E+03	6.779796E-17	1.780795E-18
4.990000E+03	6.769889E-17	1.776551E-18
5.000000E+03	6.760776E-17	1.772521E-18
5.010000E+03	6.752562E-17	1.768732E-18
5.020000E+03	6.745083E-17	1.765141E-18
5.030000E+03	6.738314E-17	1.761741E-18
5.040000E+03	6.732302E-17	1.758543E-18
5.050000E+03	6.726961E-17	1.755525E-18
5.060000E+03	6.722273E-17	1.752680E-18
5.070000E+03	6.718224E-17	1.750007E-18
5.080000E+03	6.714796E-17	1.747498E-18
5.090000E+03	6.711923E-17	1.745136E-18
5.100000E+03	6.709579E-17	1.742916E-18
5.110000E+03	6.707838E-17	1.740854E-18
5.120000E+03	6.706540E-17	1.738910E-18
5.130000E+03	6.705832E-17	1.737121E-18
5.140000E+03	6.705496E-17	1.735431E-18
5.150000E+03	6.705665E-17	1.733873E-18
5.160000E+03	6.706273E-17	1.732430E-18
5.170000E+03	6.707313E-17	1.731101E-18
5.180000E+03	6.708786E-17	1.729885E-18
5.190000E+03	6.710626E-17	1.728765E-18
5.200000E+03	6.712833E-17	1.727741E-18
5.210000E+03	6.715335E-17	1.726794E-18
5.220000E+03	6.718277E-17	1.725961E-18
5.230000E+03	6.721454E-17	1.725190E-18
5.240000E+03	6.724932E-17	1.724497E-18
5.250000E+03	6.728719E-17	1.723883E-18
5.260000E+03	6.732821E-17	1.723352E-18
5.270000E+03	6.737099E-17	1.722866E-18
5.280000E+03	6.741633E-17	1.722447E-18
5.290000E+03	6.746348E-17	1.722075E-18
5.300000E+03	6.751260E-17	1.721754E-18
5.310000E+03	6.756301E-17	1.721467E-18
5.320000E+03	6.761537E-17	1.721230E-18
5.330000E+03	6.766850E-17	1.721014E-18
5.340000E+03	6.772238E-17	1.720818E-18
5.350000E+03	6.777635E-17	1.720625E-18
5.360000E+03	6.783121E-17	1.720457E-18
5.370000E+03	6.788489E-17	1.720260E-18
5.380000E+03	6.793812E-17	1.720052E-18
5.390000E+03	6.799036E-17	1.719822E-18
5.400000E+03	6.804094E-17	1.719552E-18
5.410000E+03	6.808779E-17	1.719189E-18
5.420000E+03	6.813029E-17	1.718719E-18
5.430000E+03	6.816785E-17	1.718128E-18
5.440000E+03	6.819710E-17	1.717330E-18
5.450000E+03	6.821724E-17	1.716307E-18
5.460000E+03	6.822577E-17	1.714996E-18
5.470000E+03	6.822114E-17	1.713359E-18
5.480000E+03	6.820554E-17	1.711453E-18
5.490000E+03	6.817828E-17	1.709261E-18
5.500000E+03	6.814143E-17	1.706836E-18
5.510000E+03	6.809564E-17	1.704194E-18
5.520000E+03	6.804372E-17	1.701407E-18
5.530000E+03	6.798498E-17	1.698459E-18
5.540000E+03	6.792077E-17	1.695382E-18
5.550000E+03	6.785106E-17	1.692178E-18
5.560000E+03	6.777800E-17	1.688900E-18
5.570000E+03	6.770079E-17	1.685529E-18
5.580000E+03	6.762021E-17	1.682085E-18
5.590000E+03	6.753619E-17	1.678565E-18
5.600000E+03	6.745015E-17	1.675007E-18
5.610000E+03	6.736133E-17	1.671391E-18
5.620000E+03	6.727040E-17	1.667734E-18
5.630000E+03	6.717810E-17	1.664055E-18
5.640000E+03	6.708437E-17	1.660352E-18
5.650000E+03	6.698990E-17	1.656644E-18
5.660000E+03	6.689396E-17	1.652911E-18
5.670000E+03	6.679723E-17	1.649172E-18
5.680000E+03	6.670037E-17	1.645443E-18
5.690000E+03	6.660337E-17	1.641723E-18
5.700000E+03	6.650619E-17	1.638012E-18
5.710000E+03	6.640881E-17	1.634310E-18
5.720000E+03	6.631259E-17	1.630650E-18
5.730000E+03	6.621611E-17	1.626997E-18
5.740000E+03	6.612072E-17	1.623385E-18
5.750000E+03	6.602641E-17	1.619814E-18
5.760000E+03	6.593243E-17	1.616265E-18
5.770000E+03	6.583945E-17	1.612755E-18
5.780000E+03	6.574815E-17	1.609301E-18
5.790000E+03	6.565778E-17	1.605885E-18
5.800000E+03	6.556829E-17	1.602505E-18
5.810000E+03	6.548108E-17	1.599196E-18
5.820000E+03	6.539467E-17	1.595922E-18
5.830000E+03	6.530974E-17	1.592699E-18
5.840000E+03	6.522625E-17	1.589528E-18
5.850000E+03	6.514415E-17	1.586405E-18
5.860000E+03	6.506413E-17	1.583350E-18
5.870000E+03	6.498469E-17	1.580324E-18
5.880000E+03	6.490723E-17	1.577364E-18
5.890000E+03	6.483098E-17	1.574449E-18
5.900000E+03	6.475590E-17	1.571579E-18
5.910000E+03	6.468194E-17	1.568753E-18
5.920000E+03	6.460904E-17	1.565971E-18
5.930000E+03	6.453789E-17	1.563247E-18
5.940000E+03	6.446697E-17	1.560547E-18
5.950000E+03	6.439623E-17	1.557869E-18
5.960000E+03	6.432634E-17	1.555230E-18
5.970000E+03	6.425725E-17	1.552628E-18
5.980000E+03	6.418743E-17	1.550027E-18
5.990000E+03	6.411830E-17	1.547462E-18
6.000000E+03	6.404758E-17	1.544877E-18
6.010000E+03	6.397743E-17	1.542324E-18
6.020000E+03	6.390555E-17	1.539750E-18
6.030000E+03	6.383188E-17	1.537153E-18
6.040000E+03	6.375711E-17	1.534549E-18
6.050000E+03	6.368041E-17	1.531919E-18
6.060000E+03	6.360172E-17	1.529262E-18
6.070000E+03	6.351947E-17	1.526540E-18
6.080000E+03	6.343508E-17	1.523789E-18
6.090000E+03	6.334624E-17	1.520952E-18
6.100000E+03	6.325438E-17	1.518064E-18
6.110000E+03	6.315868E-17	1.515107E-18
6.120000E+03	6.305831E-17	1.512060E-18
6.130000E+03	6.295321E-17	1.508923E-18
6.140000E+03	6.284409E-17	1.505713E-18
6.150000E+03	6.273014E-17	1.502411E-18
6.160000E+03	6.261131E-17	1.499016E-18
6.170000E+03	6.248913E-17	1.495565E-18
6.180000E+03	6.236202E-17	1.492020E-18
6.190000E+03	6.223075E-17	1.488400E-18
6.200000E+03	6.209611E-17	1.484725E-18
6.210000E+03	6.195892E-17	1.481015E-18
6.220000E+03	6.181845E-17	1.477251E-18
6.230000E+03	6.167472E-17	1.473435E-18
6.240000E+03	6.152862E-17	1.469588E-18
6.250000E+03	6.137946E-17	1.465695E-18
6.260000E+03	6.122815E-17	1.461776E-18
6.270000E+03	6.107485E-17	1.457837E-18
6.280000E+03	6.092055E-17	1.453900E-18
6.290000E+03	6.076546E-17	1.449971E-18
6.300000E+03	6.060985E-17	1.446057E-18
6.310000E+03	6.045484E-17	1.442184E-18
6.320000E+03	6.030159E-17	1.438381E-18
6.330000E+03	6.014970E-17	1.434637E-18
6.340000E+03	6.000046E-17	1.430983E-18
6.350000E+03	5.985523E-17	1.427454E-18
6.360000E+03	5.971380E-17	1.424042E-18
6.370000E+03	5.957855E-17	1.420806E-18
6.380000E+03	5.945031E-17	1.417765E-18
6.390000E+03	5.933001E-17	1.414942E-18
6.400000E+03	5.921872E-17	1.412362E-18
6.410000E+03	5.911940E-17	1.410096E-18
6.420000E+03	5.903263E-17	1.408158E-18
6.430000E+03	5.896173E-17	1.406628E-18
6.440000E+03	5.890826E-17	1.405543E-18
6.450000E+03	5.887256E-17	1.404911E-18
6.460000E+03	5.885414E-17	1.404723E-18
6.470000E+03	5.885131E-17	1.404935E-18
6.480000E+03	5.886339E-17	1.405534E-18
6.490000E+03	5.888723E-17	1.406444E-18
6.500000E+03	5.892346E-17	1.407678E-18
6.510000E+03	5.897105E-17	1.409213E-18
6.520000E+03	5.902820E-17	1.411006E-18
6.530000E+03	5.909506E-17	1.413059E-18
6.540000E+03	5.917096E-17	1.415358E-18
6.550000E+03	5.925533E-17	1.417888E-18
6.560000E+03	5.934766E-17	1.420638E-18
6.570000E+03	5.944849E-17	1.423619E-18
6.580000E+03	5.955648E-17	1.426800E-18
6.590000E+03	5.967131E-17	1.430174E-18
6.600000E+03	5.979370E-17	1.433757E-18
6.610000E+03	5.992343E-17	1.437544E-18
6.620000E+03	6.005933E-17	1.441508E-18
6.630000E+03	6.020224E-17	1.445668E-18
6.640000E+03	6.035103E-17	1.449998E-18
6.650000E+03	6.050766E-17	1.454545E-18
6.660000E+03	6.067003E-17	1.459257E-18
6.670000E+03	6.083808E-17	1.464135E-18
6.680000E+03	6.101281E-17	1.469201E-18
6.690000E+03	6.119425E-17	1.474458E-18
6.700000E+03	6.138135E-17	1.479879E-18
6.710000E+03	6.157413E-17	1.485465E-18
6.720000E+03	6.177369E-17	1.491243E-18
6.730000E+03	6.197902E-17	1.497189E-18
6.740000E+03	6.219127E-17	1.503330E-18
6.750000E+03	6.240831E-17	1.509616E-18
6.760000E+03	6.263243E-17	1.516102E-18
6.770000E+03	6.286148E-17	1.522736E-18
6.780000E+03	6.309782E-17	1.529575E-18
6.790000E+03	6.333926E-17	1.536566E-18
6.800000E+03	6.358705E-17	1.543741E-18
6.810000E+03	6.384131E-17	1.551101E-18
6.820000E+03	6.410098E-17	1.558622E-18
6.830000E+03	6.436734E-17	1.566335E-18
6.840000E+03	6.463935E-17	1.574215E-18
6.850000E+03	6.491831E-17	1.582294E-18
6.860000E+03	6.520193E-17	1.590515E-18
6.870000E+03	6.549276E-17	1.598943E-18
6.880000E+03	6.578971E-17	1.607550E-18
6.890000E+03	6.609291E-17	1.616339E-18
6.900000E+03	6.640124E-17	1.625284E-18
6.910000E+03	6.671734E-17	1.634450E-18
6.920000E+03	6.703754E-17	1.643746E-18
6.930000E+03	6.736578E-17	1.653271E-18
6.940000E+03	6.769965E-17	1.662964E-18
6.950000E+03	6.803925E-17	1.672829E-18
6.960000E+03	6.838604E-17	1.682902E-18
6.970000E+03	6.873882E-17	1.693154E-18
6.980000E+03	6.909773E-17	1.703588E-18
6.990000E+03	6.946286E-17	1.714207E-18
7.000000E+03	6.983438E-17	1.725016E-18
7.010000E+03	7.021244E-17	1.736019E-18
7.020000E+03	7.059571E-17	1.747183E-18
7.030000E+03	7.098711E-17	1.758580E-18
7.040000E+03	7.138262E-17	1.770112E-18
7.050000E+03	7.178652E-17	1.781885E-18
7.060000E+03	7.219473E-17	1.793798E-18
7.070000E+03	7.261022E-17	1.805925E-18
7.080000E+03	7.303162E-17	1.818232E-18
7.090000E+03	7.345904E-17	1.830723E-18
7.100000E+03	7.389408E-17	1.843438E-18
7.110000E+03	7.433398E-17	1.856309E-18
7.120000E+03	7.478018E-17	1.869371E-18
7.130000E+03	7.523136E-17	1.882592E-18
7.140000E+03	7.568918E-17	1.896013E-18
7.150000E+03	7.615365E-17	1.909636E-18
7.160000E+03	7.662336E-17	1.923426E-18
7.170000E+03	7.709998E-17	1.937425E-18
7.180000E+03	7.758040E-17	1.951554E-18
7.190000E+03	7.806800E-17	1.965900E-18
7.200000E+03	7.856112E-17	1.980420E-18
7.210000E+03	7.905830E-17	1.995079E-18
7.220000E+03	7.956127E-17	2.009920E-18
7.230000E+03	8.007002E-17	2.024943E-18
7.240000E+03	8.058304E-17	2.040111E-18
7.250000E+03	8.110032E-17	2.055423E-18
7.260000E+03	8.162193E-17	2.070881E-18
7.270000E+03	8.214786E-17	2.086486E-18
7.280000E+03	8.267825E-17	2.102240E-18
7.290000E+03	8.320965E-17	2.118058E-18
7.300000E+03	8.374551E-17	2.134025E-18
7.310000E+03	8.428410E-17	2.150099E-18
7.320000E+03	8.482362E-17	2.166234E-18
7.330000E+03	8.536587E-17	2.182475E-18
7.340000E+03	8.590719E-17	2.198729E-18
7.350000E+03	8.644758E-17	2.214995E-18
7.360000E+03	8.698683E-17	2.231269E-18
7.370000E+03	8.752309E-17	2.247502E-18
7.380000E+03	8.805808E-17	2.263737E-18
7.390000E+03	8.858608E-17	2.279829E-18
7.400000E+03	8.911061E-17	2.295865E-18
7.410000E+03	8.962774E-17	2.311746E-18
7.420000E+03	9.013919E-17	2.327513E-18
7.430000E+03	9.064271E-17	2.343109E-18
7.440000E+03	9.113814E-17	2.358528E-18
7.450000E+03	9.162723E-17	2.373815E-18
7.460000E+03	9.210769E-17	2.388909E-18
7.470000E+03	9.258531E-17	2.403961E-18
7.480000E+03	9.305596E-17	2.418862E-18
7.490000E+03	9.352343E-17	2.433710E-18
7.500000E+03	9.398559E-17	2.448448E-18
7.510000E+03	9.444842E-17	2.463233E-18
7.520000E+03	9.490978E-17	2.478009E-18
7.530000E+03	9.536968E-17	2.492775E-18
7.540000E+03	9.583004E-17	2.507581E-18
7.550000E+03	9.629093E-17	2.522428E-18
7.560000E+03	9.675654E-17	2.537427E-18
7.570000E+03	9.722260E-17	2.552466E-18
7.580000E+03	9.769132E-17	2.567603E-18
7.590000E+03	9.816481E-17	2.582892E-18
7.600000E+03	9.864096E-17	2.598279E-18
7.610000E+03	9.912208E-17	2.613825E-18
7.620000E+03	9.960592E-17	2.629470E-18
7.630000E+03	1.000971E-16	2.645336E-18
7.640000E+03	1.005911E-16	2.661304E-18
7.650000E+03	1.010925E-16	2.677498E-18
7.660000E+03	1.015970E-16	2.693800E-18
7.670000E+03	1.021090E-16	2.710330E-18
7.680000E+03	1.026241E-16	2.726970E-18
7.690000E+03	1.031471E-16	2.743848E-18
7.700000E+03	1.036756E-16	2.760902E-18
7.710000E+03	1.042098E-16	2.778135E-18
7.720000E+03	1.047497E-16	2.795549E-18
7.730000E+03	1.052955E-16	2.813149E-18
7.740000E+03	1.058471E-16	2.830933E-18
7.750000E+03	1.064023E-16	2.848842E-18
7.760000E+03	1.069659E-16	2.867007E-18
