#wls	flux	fluxerr
1.600000E+03	1.569343E-17	3.130885E-19
1.640000E+03	1.580962E-17	3.150524E-19
1.680000E+03	1.592805E-17	3.170475E-19
1.720000E+03	1.605440E-17	3.191867E-19
1.760000E+03	1.618567E-17	3.214091E-19
1.800000E+03	1.632169E-17	3.237111E-19
1.840000E+03	1.646531E-17	3.261480E-19
1.880000E+03	1.661340E-17	3.286572E-19
1.920000E+03	1.677171E-17	3.313516E-19
1.960000E+03	1.693712E-17	3.341684E-19
2.000000E+03	1.710942E-17	3.371023E-19
2.040000E+03	1.729137E-17	3.402068E-19
2.080000E+03	1.748274E-17	3.434759E-19
2.120000E+03	1.768324E-17	3.469028E-19
2.160000E+03	1.789256E-17	3.504802E-19
2.200000E+03	1.811644E-17	3.543187E-19
2.240000E+03	1.835145E-17	3.583499E-19
2.280000E+03	1.859716E-17	3.625634E-19
2.320000E+03	1.885922E-17	3.670675E-19
2.360000E+03	1.913402E-17	3.717902E-19
2.400000E+03	1.942402E-17	3.767771E-19
2.440000E+03	1.973164E-17	3.820728E-19
2.480000E+03	2.005610E-17	3.876594E-19
2.520000E+03	2.039964E-17	3.935780E-19
2.560000E+03	2.076130E-17	3.998069E-19
2.600000E+03	2.114616E-17	4.064410E-19
2.640000E+03	2.155301E-17	4.134536E-19
2.680000E+03	2.198357E-17	4.208742E-19
2.720000E+03	2.244242E-17	4.287863E-19
2.760000E+03	2.292785E-17	4.371531E-19
2.800000E+03	2.344102E-17	4.459921E-19
2.840000E+03	2.398882E-17	4.554297E-19
2.880000E+03	2.457183E-17	4.654712E-19
2.920000E+03	2.519032E-17	4.761158E-19
2.960000E+03	2.584721E-17	4.874125E-19
3.000000E+03	2.654503E-17	4.994024E-19
3.010000E+03	2.672910E-17	5.025679E-19
3.020000E+03	2.691395E-17	5.057428E-19
3.030000E+03	2.709955E-17	5.089263E-19
3.040000E+03	2.729164E-17	5.122260E-19
3.050000E+03	2.748433E-17	5.155315E-19
3.060000E+03	2.768046E-17	5.188957E-19
3.070000E+03	2.787996E-17	5.223173E-19
3.080000E+03	2.808274E-17	5.257943E-19
3.090000E+03	2.828873E-17	5.293255E-19
3.100000E+03	2.849785E-17	5.329091E-19
3.110000E+03	2.871002E-17	5.365434E-19
3.120000E+03	2.892514E-17	5.402267E-19
3.130000E+03	2.914599E-17	5.440104E-19
3.140000E+03	2.936678E-17	5.477864E-19
3.150000E+03	2.959312E-17	5.516592E-19
3.160000E+03	2.982487E-17	5.556262E-19
3.170000E+03	3.005632E-17	5.595805E-19
3.180000E+03	3.029300E-17	5.636253E-19
3.190000E+03	3.053481E-17	5.677582E-19
3.200000E+03	3.077882E-17	5.719247E-19
3.210000E+03	3.102773E-17	5.761750E-19
3.220000E+03	3.127866E-17	5.804550E-19
3.230000E+03	3.153702E-17	5.848654E-19
3.240000E+03	3.179717E-17	5.893012E-19
3.250000E+03	3.206175E-17	5.938110E-19
3.260000E+03	3.232791E-17	5.983420E-19
3.270000E+03	3.260098E-17	6.029928E-19
3.280000E+03	3.287812E-17	6.077103E-19
3.290000E+03	3.315917E-17	6.124917E-19
3.300000E+03	3.344672E-17	6.173844E-19
3.310000E+03	3.373524E-17	6.222862E-19
3.320000E+03	3.402996E-17	6.272933E-19
3.330000E+03	3.432806E-17	6.323537E-19
3.340000E+03	3.463208E-17	6.375138E-19
3.350000E+03	3.494183E-17	6.427700E-19
3.360000E+03	3.525453E-17	6.480707E-19
3.370000E+03	3.557266E-17	6.534615E-19
3.380000E+03	3.589606E-17	6.589390E-19
3.390000E+03	3.622194E-17	6.644522E-19
3.400000E+03	3.655537E-17	6.700934E-19
3.410000E+03	3.689357E-17	6.758115E-19
3.420000E+03	3.723634E-17	6.816028E-19
3.430000E+03	3.758611E-17	6.875113E-19
3.440000E+03	3.793755E-17	6.934393E-19
3.450000E+03	3.829816E-17	6.995236E-19
3.460000E+03	3.866262E-17	7.056671E-19
3.470000E+03	3.903078E-17	7.118663E-19
3.480000E+03	3.940748E-17	7.182095E-19
3.490000E+03	3.978749E-17	7.246010E-19
3.500000E+03	4.017312E-17	7.310828E-19
3.510000E+03	4.056418E-17	7.376507E-19
3.520000E+03	4.096291E-17	7.443458E-19
3.530000E+03	4.136665E-17	7.511190E-19
3.540000E+03	4.177517E-17	7.579661E-19
3.550000E+03	4.219073E-17	7.649274E-19
3.560000E+03	4.261306E-17	7.719982E-19
3.570000E+03	4.303955E-17	7.791307E-19
3.580000E+03	4.347478E-17	7.864074E-19
3.590000E+03	4.391374E-17	7.937374E-19
3.600000E+03	4.435861E-17	8.011599E-19
3.610000E+03	4.481149E-17	8.087125E-19
3.620000E+03	4.526981E-17	8.163486E-19
3.630000E+03	4.573569E-17	8.241057E-19
3.640000E+03	4.620654E-17	8.319372E-19
3.650000E+03	4.668447E-17	8.398806E-19
3.660000E+03	4.716922E-17	8.479310E-19
3.670000E+03	4.766059E-17	8.560843E-19
3.680000E+03	4.816058E-17	8.643760E-19
3.690000E+03	4.866445E-17	8.727209E-19
3.700000E+03	4.917647E-17	8.811952E-19
3.710000E+03	4.969639E-17	8.897940E-19
3.720000E+03	5.022178E-17	8.984733E-19
3.730000E+03	5.075462E-17	9.072683E-19
3.740000E+03	5.129469E-17	9.161748E-19
3.750000E+03	5.184175E-17	9.251880E-19
3.760000E+03	5.239562E-17	9.343042E-19
3.770000E+03	5.295608E-17	9.435195E-19
3.780000E+03	5.352507E-17	9.528676E-19
3.790000E+03	5.410237E-17	9.623445E-19
3.800000E+03	5.468567E-17	9.719087E-19
3.810000E+03	5.527899E-17	9.816312E-19
3.820000E+03	5.587797E-17	9.914339E-19
3.830000E+03	5.648453E-17	1.001351E-18
3.840000E+03	5.709854E-17	1.011379E-18
3.850000E+03	5.772186E-17	1.021551E-18
3.860000E+03	5.835233E-17	1.031829E-18
3.868758E+03	1.816866E-17	3.210309E-19
3.869942E+03	1.819270E-17	3.214231E-19
3.871126E+03	1.812255E-17	3.201512E-19
3.872310E+03	1.801975E-17	3.183028E-19
3.873494E+03	1.792284E-17	3.165588E-19
3.874677E+03	1.808957E-17	3.194711E-19
3.875861E+03	1.832656E-17	3.236235E-19
3.877045E+03	1.853589E-17	3.272868E-19
3.878229E+03	1.845888E-17	3.258938E-19
3.879413E+03	1.833306E-17	3.236395E-19
3.880597E+03	1.838974E-17	3.246070E-19
3.882964E+03	1.831095E-17	3.231503E-19
3.884148E+03	1.830387E-17	3.229926E-19
3.885332E+03	1.834501E-17	3.236855E-19
3.886516E+03	1.838893E-17	3.244273E-19
3.887700E+03	1.845557E-17	3.255696E-19
3.888884E+03	1.861207E-17	3.282968E-19
3.890068E+03	1.859193E-17	3.279082E-19
3.891251E+03	1.872637E-17	3.302454E-19
3.892435E+03	1.899048E-17	3.348689E-19
3.893619E+03	1.923656E-17	3.391734E-19
3.894803E+03	1.936447E-17	3.413937E-19
3.895987E+03	1.967930E-17	3.469086E-19
3.897171E+03	1.981096E-17	3.491937E-19
3.898354E+03	2.005022E-17	3.533749E-19
3.899538E+03	2.019277E-17	3.558507E-19
3.900722E+03	2.037576E-17	3.590387E-19
3.901906E+03	2.075284E-17	3.656456E-19
3.903090E+03	2.102170E-17	3.703446E-19
3.904274E+03	2.118543E-17	3.731907E-19
3.905458E+03	2.146456E-17	3.780688E-19
3.906641E+03	2.168211E-17	3.818614E-19
3.907825E+03	2.200046E-17	3.874283E-19
3.909009E+03	2.231135E-17	3.928626E-19
3.910193E+03	2.246080E-17	3.954535E-19
3.911377E+03	2.269549E-17	3.995444E-19
3.912561E+03	2.280016E-17	4.013457E-19
3.913745E+03	2.310237E-17	4.066235E-19
3.914928E+03	2.340055E-17	4.118293E-19
3.916112E+03	2.372332E-17	4.174667E-19
3.917296E+03	2.403334E-17	4.228786E-19
3.918480E+03	2.418780E-17	4.255525E-19
3.919664E+03	2.430774E-17	4.276185E-19
3.920848E+03	2.438631E-17	4.289563E-19
3.922031E+03	2.444309E-17	4.299107E-19
3.923215E+03	2.436950E-17	4.285721E-19
3.924399E+03	2.466431E-17	4.337119E-19
3.925583E+03	2.487356E-17	4.373462E-19
3.926767E+03	2.493003E-17	4.382937E-19
3.927951E+03	2.532631E-17	4.452145E-19
3.929135E+03	2.575122E-17	4.526371E-19
3.930318E+03	2.608652E-17	4.584834E-19
3.931502E+03	2.662162E-17	4.678395E-19
3.932686E+03	2.699213E-17	4.743014E-19
3.933870E+03	2.723628E-17	4.785419E-19
3.935054E+03	2.760151E-17	4.849087E-19
3.936238E+03	2.789299E-17	4.899785E-19
3.937422E+03	2.836965E-17	4.983000E-19
3.938605E+03	2.859672E-17	5.022362E-19
3.939789E+03	2.884807E-17	5.065979E-19
3.940973E+03	2.909695E-17	5.109152E-19
3.942157E+03	2.929043E-17	5.142592E-19
3.943341E+03	2.961214E-17	5.198533E-19
3.944525E+03	3.016638E-17	5.295279E-19
3.945708E+03	3.078473E-17	5.403261E-19
3.946892E+03	3.108842E-17	5.455995E-19
3.948076E+03	3.146248E-17	5.521066E-19
3.949260E+03	3.186767E-17	5.591585E-19
3.950444E+03	3.231333E-17	5.669190E-19
3.951628E+03	3.265318E-17	5.728216E-19
3.952812E+03	3.312999E-17	5.811255E-19
3.953995E+03	3.363483E-17	5.899191E-19
3.955179E+03	3.422685E-17	6.002398E-19
3.956363E+03	3.447646E-17	6.045540E-19
3.957547E+03	3.499379E-17	6.135614E-19
3.958731E+03	3.540530E-17	6.207115E-19
3.959915E+03	3.593199E-17	6.298794E-19
3.961099E+03	3.659258E-17	6.413921E-19
3.962282E+03	3.728742E-17	6.535028E-19
3.963466E+03	3.789200E-17	6.640290E-19
3.964650E+03	3.871142E-17	6.783176E-19
3.965834E+03	3.959313E-17	6.936945E-19
3.967018E+03	4.040636E-17	7.078686E-19
3.968202E+03	4.125076E-17	7.225853E-19
3.969385E+03	4.201421E-17	7.358814E-19
3.970569E+03	4.267183E-17	7.473212E-19
3.971753E+03	4.354742E-17	7.625754E-19
3.972937E+03	4.433274E-17	7.762458E-19
3.974121E+03	4.512742E-17	7.900771E-19
3.975305E+03	4.594080E-17	8.042329E-19
3.976489E+03	4.689121E-17	8.207841E-19
3.977672E+03	4.775445E-17	8.358065E-19
3.978856E+03	4.861772E-17	8.508257E-19
3.980040E+03	4.950903E-17	8.663327E-19
3.981224E+03	5.042839E-17	8.823271E-19
3.982408E+03	5.131352E-17	8.977191E-19
3.983592E+03	5.223915E-17	9.138164E-19
3.984776E+03	5.326134E-17	9.315992E-19
3.985959E+03	5.425865E-17	9.489430E-19
3.987143E+03	5.506289E-17	9.629068E-19
3.988327E+03	5.597926E-17	9.788284E-19
3.989511E+03	5.696730E-17	9.959993E-19
3.990695E+03	5.784634E-17	1.011261E-18
3.991879E+03	5.880015E-17	1.027827E-18
3.993062E+03	5.981626E-17	1.045478E-18
3.994246E+03	6.066734E-17	1.060241E-18
3.995430E+03	6.159629E-17	1.076362E-18
3.996614E+03	6.245051E-17	1.091173E-18
3.997798E+03	6.338885E-17	1.107451E-18
3.998982E+03	6.450162E-17	1.126772E-18
4.000166E+03	6.529361E-17	1.140486E-18
4.001349E+03	6.611363E-17	1.154687E-18
4.002533E+03	6.700532E-17	1.170136E-18
4.003717E+03	6.786276E-17	1.184984E-18
4.004901E+03	6.879185E-17	1.201080E-18
4.006085E+03	6.997327E-17	1.221577E-18
4.007269E+03	7.092109E-17	1.237992E-18
4.008452E+03	7.189074E-17	1.254785E-18
4.009636E+03	7.277940E-17	1.270160E-18
4.010820E+03	7.380827E-17	1.287979E-18
4.012004E+03	7.479041E-17	1.304979E-18
4.013188E+03	7.589720E-17	1.324150E-18
4.014372E+03	7.696661E-17	1.342664E-18
4.015556E+03	7.778370E-17	1.356773E-18
4.016739E+03	7.867246E-17	1.372130E-18
4.017923E+03	7.951450E-17	1.386668E-18
4.019107E+03	8.034099E-17	1.400931E-18
4.020291E+03	8.113321E-17	1.414594E-18
4.021475E+03	8.191297E-17	1.428037E-18
4.022659E+03	8.251206E-17	1.438328E-18
4.023843E+03	8.327626E-17	1.451494E-18
4.025026E+03	8.407787E-17	1.465309E-18
4.026210E+03	8.491687E-17	1.479773E-18
4.027394E+03	8.577145E-17	1.494505E-18
4.028578E+03	8.639861E-17	1.505272E-18
4.029762E+03	8.718467E-17	1.518804E-18
4.030946E+03	8.788350E-17	1.530814E-18
4.032129E+03	8.863529E-17	1.543744E-18
4.033313E+03	8.942450E-17	1.557322E-18
4.034497E+03	9.007349E-17	1.568456E-18
4.035681E+03	9.077857E-17	1.580564E-18
4.036865E+03	9.158647E-17	1.594459E-18
4.038049E+03	9.225418E-17	1.605911E-18
4.039233E+03	9.290319E-17	1.617035E-18
4.040416E+03	9.336836E-17	1.624957E-18
4.041600E+03	9.397687E-17	1.635371E-18
4.042784E+03	9.435168E-17	1.641717E-18
4.043968E+03	9.485736E-17	1.650338E-18
4.045152E+03	9.544717E-17	1.660421E-18
4.046336E+03	9.581574E-17	1.666654E-18
4.047520E+03	9.625287E-17	1.674077E-18
4.048703E+03	9.669934E-17	1.681661E-18
4.049887E+03	9.714892E-17	1.689297E-18
4.051071E+03	9.759539E-17	1.696878E-18
4.052255E+03	9.812599E-17	1.705919E-18
4.053439E+03	9.875007E-17	1.716584E-18
4.054623E+03	9.919030E-17	1.724050E-18
4.055806E+03	9.975206E-17	1.733627E-18
4.056990E+03	1.002203E-16	1.741577E-18
4.058174E+03	1.005982E-16	1.747955E-18
4.059358E+03	1.010821E-16	1.756172E-18
4.060542E+03	1.014942E-16	1.763142E-18
4.061726E+03	1.017381E-16	1.767187E-18
4.062910E+03	1.019851E-16	1.771286E-18
4.064093E+03	1.022975E-16	1.776519E-18
4.065277E+03	1.027034E-16	1.783375E-18
4.066461E+03	1.032621E-16	1.792882E-18
4.067645E+03	1.035620E-16	1.797894E-18
4.068829E+03	1.039430E-16	1.804312E-18
4.070013E+03	1.041556E-16	1.807808E-18
4.071197E+03	1.043495E-16	1.810976E-18
4.072380E+03	1.046993E-16	1.816850E-18
4.073564E+03	1.049057E-16	1.820234E-18
4.074748E+03	1.050498E-16	1.822537E-18
4.075932E+03	1.050723E-16	1.822729E-18
4.077116E+03	1.053565E-16	1.827461E-18
4.078300E+03	1.056190E-16	1.831814E-18
4.079483E+03	1.057662E-16	1.834167E-18
4.080667E+03	1.060442E-16	1.838788E-18
4.081851E+03	1.062443E-16	1.842057E-18
4.083035E+03	1.063852E-16	1.844299E-18
4.084219E+03	1.065510E-16	1.846973E-18
4.085403E+03	1.067417E-16	1.850077E-18
4.086587E+03	1.069200E-16	1.852965E-18
4.087770E+03	1.073538E-16	1.860280E-18
4.088954E+03	1.075757E-16	1.863921E-18
4.090138E+03	1.076417E-16	1.864861E-18
4.091322E+03	1.079820E-16	1.870552E-18
4.092506E+03	1.083783E-16	1.877213E-18
4.093690E+03	1.087405E-16	1.883280E-18
4.094874E+03	1.093831E-16	1.894202E-18
4.096057E+03	1.098448E-16	1.901990E-18
4.097241E+03	1.100916E-16	1.906055E-18
4.098425E+03	1.101668E-16	1.907149E-18
4.099609E+03	1.103107E-16	1.909431E-18
4.100793E+03	1.104546E-16	1.911712E-18
4.101977E+03	1.106888E-16	1.915556E-18
4.103160E+03	1.107796E-16	1.916918E-18
4.104344E+03	1.111166E-16	1.922539E-18
4.105528E+03	1.112729E-16	1.925031E-18
4.106712E+03	1.113731E-16	1.926553E-18
4.107896E+03	1.116103E-16	1.930445E-18
4.109080E+03	1.118071E-16	1.933637E-18
4.110264E+03	1.121067E-16	1.938605E-18
4.111447E+03	1.122504E-16	1.940877E-18
4.112631E+03	1.123942E-16	1.943150E-18
4.113815E+03	1.125598E-16	1.945798E-18
4.114999E+03	1.126691E-16	1.947475E-18
4.116183E+03	1.128346E-16	1.950120E-18
4.117367E+03	1.130095E-16	1.952927E-18
4.118551E+03	1.131562E-16	1.955248E-18
4.119734E+03	1.134059E-16	1.959347E-18
4.120918E+03	1.135557E-16	1.961719E-18
4.122102E+03	1.136713E-16	1.963500E-18
4.123286E+03	1.138493E-16	1.966357E-18
4.124470E+03	1.139149E-16	1.967273E-18
4.125654E+03	1.139338E-16	1.967383E-18
4.126837E+03	1.138529E-16	1.965770E-18
4.128021E+03	1.136536E-16	1.962112E-18
4.129205E+03	1.135228E-16	1.959638E-18
4.130389E+03	1.132518E-16	1.954743E-18
4.131573E+03	1.131739E-16	1.953183E-18
4.132757E+03	1.128249E-16	1.946945E-18
4.133941E+03	1.125382E-16	1.941782E-18
4.135124E+03	1.122110E-16	1.935923E-18
4.136308E+03	1.120271E-16	1.932537E-18
4.137492E+03	1.117716E-16	1.927916E-18
4.138676E+03	1.116034E-16	1.924800E-18
4.139860E+03	1.113540E-16	1.920287E-18
4.141044E+03	1.110952E-16	1.915612E-18
4.142228E+03	1.106027E-16	1.906908E-18
4.143411E+03	1.100042E-16	1.896380E-18
4.144595E+03	1.095055E-16	1.887572E-18
4.145779E+03	1.089474E-16	1.877744E-18
4.146963E+03	1.083676E-16	1.867543E-18
4.148147E+03	1.078158E-16	1.857828E-18
4.149331E+03	1.072109E-16	1.847200E-18
4.150514E+03	1.065562E-16	1.835715E-18
4.151698E+03	1.060199E-16	1.826274E-18
4.152882E+03	1.055148E-16	1.817371E-18
4.154066E+03	1.053121E-16	1.813678E-18
4.155250E+03	1.049970E-16	1.808050E-18
4.156434E+03	1.046073E-16	1.801138E-18
4.157618E+03	1.041302E-16	1.792725E-18
4.158801E+03	1.035814E-16	1.783077E-18
4.159985E+03	1.030294E-16	1.773379E-18
4.161169E+03	1.025398E-16	1.764755E-18
4.162353E+03	1.021219E-16	1.757366E-18
4.163537E+03	1.015388E-16	1.747136E-18
4.164721E+03	1.007468E-16	1.733315E-18
4.165904E+03	1.002041E-16	1.723787E-18
4.167088E+03	9.968018E-17	1.714582E-18
4.168272E+03	9.928715E-17	1.707631E-18
4.169456E+03	9.857927E-17	1.695267E-18
4.170640E+03	9.795866E-17	1.684406E-18
4.171824E+03	9.730376E-17	1.672958E-18
4.173008E+03	9.678912E-17	1.663924E-18
4.174191E+03	9.621525E-17	1.653874E-18
4.175375E+03	9.555408E-17	1.642325E-18
4.176559E+03	9.499890E-17	1.632600E-18
4.177743E+03	9.439694E-17	1.622074E-18
4.178927E+03	9.388538E-17	1.613102E-18
4.180111E+03	9.337069E-17	1.604080E-18
4.181295E+03	9.286534E-17	1.595219E-18
4.182478E+03	9.225712E-17	1.584594E-18
4.183662E+03	9.161462E-17	1.573382E-18
4.184846E+03	9.118405E-17	1.565812E-18
4.186030E+03	9.072854E-17	1.557815E-18
4.187214E+03	9.020446E-17	1.548642E-18
4.188398E+03	8.986426E-17	1.542629E-18
4.189581E+03	8.955211E-17	1.537098E-18
4.190765E+03	8.903736E-17	1.528091E-18
4.191949E+03	8.865039E-17	1.521278E-18
4.193133E+03	8.822289E-17	1.513772E-18
4.194317E+03	8.784526E-17	1.507123E-18
4.195501E+03	8.740527E-17	1.499406E-18
4.196685E+03	8.681879E-17	1.489177E-18
4.197868E+03	8.644737E-17	1.482640E-18
4.199052E+03	8.618814E-17	1.478027E-18
4.200236E+03	8.600994E-17	1.474805E-18
4.201420E+03	8.576629E-17	1.470462E-18
4.202604E+03	8.542288E-17	1.464409E-18
4.203788E+03	8.493299E-17	1.455847E-18
4.204972E+03	8.464879E-17	1.450811E-18
4.206155E+03	8.427420E-17	1.444228E-18
4.207339E+03	8.397753E-17	1.438982E-18
4.208523E+03	8.373693E-17	1.434697E-18
4.209707E+03	8.363970E-17	1.432870E-18
4.210891E+03	8.339286E-17	1.428479E-18
4.212075E+03	8.308680E-17	1.423076E-18
4.213258E+03	8.297396E-17	1.420983E-18
4.214442E+03	8.267412E-17	1.415688E-18
4.215626E+03	8.245529E-17	1.411781E-18
4.216810E+03	8.227698E-17	1.408569E-18
4.217994E+03	8.217657E-17	1.406690E-18
4.219178E+03	8.197642E-17	1.403105E-18
4.220362E+03	8.189780E-17	1.401601E-18
4.221545E+03	8.178490E-17	1.399510E-18
4.222729E+03	8.166574E-17	1.397313E-18
4.223913E+03	8.155905E-17	1.395329E-18
4.225097E+03	8.133705E-17	1.391374E-18
4.226281E+03	8.120541E-17	1.388964E-18
4.227465E+03	8.109869E-17	1.386982E-18
4.228649E+03	8.093275E-17	1.383987E-18
4.229832E+03	8.081355E-17	1.381791E-18
4.231016E+03	8.062891E-17	1.378478E-18
4.232200E+03	8.048787E-17	1.375910E-18
4.233384E+03	8.035929E-17	1.373556E-18
4.234568E+03	8.014657E-17	1.369765E-18
4.235752E+03	7.991515E-17	1.365654E-18
4.236935E+03	7.984264E-17	1.364260E-18
4.238119E+03	7.985113E-17	1.364250E-18
4.239303E+03	7.983156E-17	1.363760E-18
4.240487E+03	7.992727E-17	1.365240E-18
4.241671E+03	7.990768E-17	1.364750E-18
4.242855E+03	7.981641E-17	1.363036E-18
4.244039E+03	7.983731E-17	1.363237E-18
4.245222E+03	7.970864E-17	1.360885E-18
4.246406E+03	7.968900E-17	1.360395E-18
4.247590E+03	7.967871E-17	1.360064E-18
4.248774E+03	7.968086E-17	1.359946E-18
4.249958E+03	7.959889E-17	1.358392E-18
4.251142E+03	7.932374E-17	1.353542E-18
4.252326E+03	7.919813E-17	1.351244E-18
4.253509E+03	7.902267E-17	1.348097E-18
4.254693E+03	7.868519E-17	1.342186E-18
4.255877E+03	7.845363E-17	1.338083E-18
4.257061E+03	7.816288E-17	1.332972E-18
4.258245E+03	7.799675E-17	1.329987E-18
4.259429E+03	7.791159E-17	1.328383E-18
4.260612E+03	7.784200E-17	1.327044E-18
4.261796E+03	7.762600E-17	1.323211E-18
4.262980E+03	7.739128E-17	1.319059E-18
4.264164E+03	7.702886E-17	1.312731E-18
4.265348E+03	7.691563E-17	1.310651E-18
4.266532E+03	7.655008E-17	1.304273E-18
4.267716E+03	7.629667E-17	1.299806E-18
4.268899E+03	7.605883E-17	1.295606E-18
4.270083E+03	7.573376E-17	1.289921E-18
4.271267E+03	7.545542E-17	1.285033E-18
4.272451E+03	7.514904E-17	1.279668E-18
4.273635E+03	7.490185E-17	1.275312E-18
4.274819E+03	7.454563E-17	1.269101E-18
4.276003E+03	7.434202E-17	1.265490E-18
4.277186E+03	7.412907E-17	1.261720E-18
4.278370E+03	7.383826E-17	1.256626E-18
4.279554E+03	7.373742E-17	1.254765E-18
4.280738E+03	7.366459E-17	1.253382E-18
4.281922E+03	7.351080E-17	1.250622E-18
4.283106E+03	7.333519E-17	1.247490E-18
4.284289E+03	7.318138E-17	1.244731E-18
4.285473E+03	7.295594E-17	1.240754E-18
4.286657E+03	7.283325E-17	1.238524E-18
4.287841E+03	7.275104E-17	1.236984E-18
4.289025E+03	7.256918E-17	1.233750E-18
4.290209E+03	7.239043E-17	1.230569E-18
4.291393E+03	7.213693E-17	1.226118E-18
4.292576E+03	7.181493E-17	1.220505E-18
4.293760E+03	7.152407E-17	1.215421E-18
4.294944E+03	7.149165E-17	1.214730E-18
4.296128E+03	7.148413E-17	1.214462E-18
4.297312E+03	7.146102E-17	1.213930E-18
4.298496E+03	7.140988E-17	1.212921E-18
4.299680E+03	7.136497E-17	1.212018E-18
4.300863E+03	7.142279E-17	1.212860E-18
4.302047E+03	7.132803E-17	1.211111E-18
4.303231E+03	7.119903E-17	1.208781E-18
4.304415E+03	7.111982E-17	1.207297E-18
4.305599E+03	7.123363E-17	1.209089E-18
4.306783E+03	7.124781E-17	1.209189E-18
4.307966E+03	7.128999E-17	1.209765E-18
4.309150E+03	7.135706E-17	1.210763E-18
4.310334E+03	7.127158E-17	1.209173E-18
4.311518E+03	7.133551E-17	1.210118E-18
4.312702E+03	7.128426E-17	1.209108E-18
4.313886E+03	7.134816E-17	1.210052E-18
4.315070E+03	7.138404E-17	1.210520E-18
4.316253E+03	7.153818E-17	1.212993E-18
4.317437E+03	7.159894E-17	1.213883E-18
4.318621E+03	7.174994E-17	1.216302E-18
4.319805E+03	7.189158E-17	1.218561E-18
4.320989E+03	7.189937E-17	1.218552E-18
4.322173E+03	7.210011E-17	1.221812E-18
4.323357E+03	7.210788E-17	1.221802E-18
4.324540E+03	7.203782E-17	1.220473E-18
4.325724E+03	7.198955E-17	1.219514E-18
4.326908E+03	7.191014E-17	1.218027E-18
4.328092E+03	7.204234E-17	1.220124E-18
4.329276E+03	7.209050E-17	1.220798E-18
4.330460E+03	7.224755E-17	1.223315E-18
