#wls	flux	fluxerr
1.600000E+03	2.045056E-16	6.689215E-17
1.640000E+03	2.053539E-16	6.666169E-17
1.680000E+03	2.061914E-16	6.641216E-17
1.720000E+03	2.070169E-16	6.614315E-17
1.760000E+03	2.078292E-16	6.585428E-17
1.800000E+03	2.086270E-16	6.554518E-17
1.840000E+03	2.094089E-16	6.521557E-17
1.880000E+03	2.101739E-16	6.486519E-17
1.920000E+03	2.109206E-16	6.449383E-17
1.960000E+03	2.116477E-16	6.410136E-17
2.000000E+03	2.123540E-16	6.368770E-17
2.040000E+03	2.130384E-16	6.325286E-17
2.080000E+03	2.136998E-16	6.279690E-17
2.120000E+03	2.143369E-16	6.232000E-17
2.160000E+03	2.149489E-16	6.182239E-17
2.200000E+03	2.155348E-16	6.130444E-17
2.240000E+03	2.160938E-16	6.076659E-17
2.280000E+03	2.166253E-16	6.020941E-17
2.320000E+03	2.171288E-16	5.963358E-17
2.360000E+03	2.176040E-16	5.903989E-17
2.400000E+03	2.180507E-16	5.842927E-17
2.440000E+03	2.184690E-16	5.780278E-17
2.480000E+03	2.188594E-16	5.716162E-17
2.520000E+03	2.192225E-16	5.650710E-17
2.560000E+03	2.195592E-16	5.584069E-17
2.600000E+03	2.198710E-16	5.516402E-17
2.640000E+03	2.201596E-16	5.447883E-17
2.680000E+03	2.204272E-16	5.378701E-17
2.720000E+03	2.206764E-16	5.309059E-17
2.760000E+03	2.209104E-16	5.239173E-17
2.800000E+03	2.211328E-16	5.169272E-17
2.840000E+03	2.213480E-16	5.099597E-17
2.880000E+03	2.215607E-16	5.030399E-17
2.920000E+03	2.217766E-16	4.961939E-17
2.960000E+03	2.220017E-16	4.894487E-17
3.000000E+03	2.222430E-16	4.828318E-17
3.010000E+03	2.223067E-16	4.812010E-17
3.020000E+03	2.223720E-16	4.795804E-17
3.030000E+03	2.224390E-16	4.779704E-17
3.040000E+03	2.225079E-16	4.763716E-17
3.050000E+03	2.225788E-16	4.747843E-17
3.060000E+03	2.226518E-16	4.732090E-17
3.070000E+03	2.227271E-16	4.716462E-17
3.080000E+03	2.228048E-16	4.700963E-17
3.090000E+03	2.228850E-16	4.685598E-17
3.100000E+03	2.229679E-16	4.670370E-17
3.110000E+03	2.230537E-16	4.655285E-17
3.120000E+03	2.231425E-16	4.640347E-17
3.130000E+03	2.232344E-16	4.625560E-17
3.140000E+03	2.233297E-16	4.610928E-17
3.150000E+03	2.234284E-16	4.596457E-17
3.160000E+03	2.235308E-16	4.582150E-17
3.170000E+03	2.236369E-16	4.568013E-17
3.180000E+03	2.237470E-16	4.554048E-17
3.190000E+03	2.238613E-16	4.540261E-17
3.200000E+03	2.239798E-16	4.526656E-17
3.210000E+03	2.241028E-16	4.513238E-17
3.220000E+03	2.242305E-16	4.500009E-17
3.230000E+03	2.243630E-16	4.486975E-17
3.240000E+03	2.245006E-16	4.474140E-17
3.250000E+03	2.246433E-16	4.461508E-17
3.260000E+03	2.247914E-16	4.449083E-17
3.270000E+03	2.249451E-16	4.436869E-17
3.280000E+03	2.251045E-16	4.424871E-17
3.290000E+03	2.252699E-16	4.413091E-17
3.300000E+03	2.254414E-16	4.401534E-17
3.310000E+03	2.256193E-16	4.390204E-17
3.320000E+03	2.258036E-16	4.379105E-17
3.330000E+03	2.259947E-16	4.368240E-17
3.340000E+03	2.261927E-16	4.357613E-17
3.350000E+03	2.263978E-16	4.347228E-17
3.360000E+03	2.266102E-16	4.337088E-17
3.370000E+03	2.268301E-16	4.327197E-17
3.380000E+03	2.270578E-16	4.317559E-17
3.390000E+03	2.272933E-16	4.308176E-17
3.400000E+03	2.275370E-16	4.299052E-17
3.410000E+03	2.277889E-16	4.290191E-17
3.420000E+03	2.280494E-16	4.281594E-17
3.430000E+03	2.283185E-16	4.273267E-17
3.440000E+03	2.285966E-16	4.265210E-17
3.450000E+03	2.288838E-16	4.257429E-17
3.460000E+03	2.291803E-16	4.249924E-17
3.470000E+03	2.294863E-16	4.242700E-17
3.480000E+03	2.298020E-16	4.235758E-17
3.490000E+03	2.301276E-16	4.229102E-17
3.500000E+03	2.304633E-16	4.222734E-17
3.510000E+03	2.308092E-16	4.216656E-17
3.520000E+03	2.311657E-16	4.210870E-17
3.530000E+03	2.315328E-16	4.205380E-17
3.540000E+03	2.319107E-16	4.200187E-17
3.550000E+03	2.322997E-16	4.195292E-17
3.560000E+03	2.326999E-16	4.190699E-17
3.570000E+03	2.331115E-16	4.186409E-17
3.580000E+03	2.335347E-16	4.182423E-17
3.590000E+03	2.339696E-16	4.178743E-17
3.600000E+03	2.344164E-16	4.175372E-17
3.610000E+03	2.348753E-16	4.172310E-17
3.620000E+03	2.353464E-16	4.169558E-17
3.630000E+03	2.358299E-16	4.167118E-17
3.640000E+03	2.363260E-16	4.164991E-17
3.650000E+03	2.368347E-16	4.163178E-17
3.660000E+03	2.373563E-16	4.161679E-17
3.670000E+03	2.378908E-16	4.160497E-17
3.680000E+03	2.384384E-16	4.159630E-17
3.690000E+03	2.389992E-16	4.159080E-17
3.700000E+03	2.395734E-16	4.158847E-17
3.710000E+03	2.401610E-16	4.158931E-17
3.720000E+03	2.407621E-16	4.159333E-17
3.730000E+03	2.413769E-16	4.160053E-17
3.740000E+03	2.420054E-16	4.161089E-17
3.750000E+03	2.426477E-16	4.162443E-17
3.760000E+03	2.433039E-16	4.164113E-17
3.770000E+03	2.439741E-16	4.166100E-17
3.780000E+03	2.446582E-16	4.168401E-17
3.790000E+03	2.453564E-16	4.171018E-17
3.800000E+03	2.460687E-16	4.173948E-17
3.810000E+03	2.467951E-16	4.177190E-17
3.820000E+03	2.475357E-16	4.180744E-17
3.830000E+03	2.482903E-16	4.184607E-17
3.840000E+03	2.490591E-16	4.188778E-17
3.850000E+03	2.498421E-16	4.193256E-17
3.860000E+03	2.506391E-16	4.198038E-17
3.870000E+03	2.514502E-16	4.203123E-17
3.880000E+03	2.522752E-16	4.208508E-17
3.890000E+03	2.531143E-16	4.214190E-17
3.900000E+03	2.539672E-16	4.220167E-17
3.910000E+03	2.548339E-16	4.226436E-17
3.920000E+03	2.557142E-16	4.232995E-17
3.930000E+03	2.566082E-16	4.239839E-17
3.940000E+03	2.575156E-16	4.246966E-17
3.950000E+03	2.584362E-16	4.254372E-17
3.960000E+03	2.593701E-16	4.262054E-17
3.970000E+03	2.603169E-16	4.270007E-17
3.980000E+03	2.612765E-16	4.278227E-17
3.990000E+03	2.622487E-16	4.286710E-17
4.000000E+03	2.632333E-16	4.295451E-17
4.010000E+03	2.642301E-16	4.304446E-17
4.020000E+03	2.652387E-16	4.313689E-17
4.030000E+03	2.662590E-16	4.323175E-17
4.040000E+03	2.672906E-16	4.332899E-17
4.050000E+03	2.683333E-16	4.342856E-17
4.060000E+03	2.693868E-16	4.353039E-17
4.070000E+03	2.704507E-16	4.363442E-17
4.080000E+03	2.715247E-16	4.374059E-17
4.090000E+03	2.726084E-16	4.384883E-17
4.100000E+03	2.737014E-16	4.395908E-17
4.110000E+03	2.748034E-16	4.407127E-17
4.120000E+03	2.759139E-16	4.418532E-17
4.130000E+03	2.770325E-16	4.430116E-17
4.140000E+03	2.781588E-16	4.441871E-17
4.150000E+03	2.792922E-16	4.453790E-17
4.160000E+03	2.804324E-16	4.465863E-17
4.170000E+03	2.815788E-16	4.478084E-17
4.180000E+03	2.827308E-16	4.490443E-17
4.190000E+03	2.838881E-16	4.502932E-17
4.200000E+03	2.850499E-16	4.515542E-17
4.210000E+03	2.862159E-16	4.528262E-17
4.220000E+03	2.873853E-16	4.541085E-17
4.230000E+03	2.885575E-16	4.554000E-17
4.240000E+03	2.897321E-16	4.566998E-17
4.250000E+03	2.909083E-16	4.580069E-17
4.260000E+03	2.920855E-16	4.593202E-17
4.270000E+03	2.932630E-16	4.606387E-17
4.280000E+03	2.944403E-16	4.619614E-17
4.290000E+03	2.956166E-16	4.632872E-17
4.300000E+03	2.967912E-16	4.646150E-17
4.310000E+03	2.979634E-16	4.659437E-17
4.320000E+03	2.991325E-16	4.672723E-17
4.330000E+03	3.002979E-16	4.685996E-17
4.340000E+03	3.014587E-16	4.699244E-17
4.350000E+03	3.026142E-16	4.712457E-17
4.360000E+03	3.037637E-16	4.725623E-17
4.370000E+03	3.049064E-16	4.738731E-17
4.380000E+03	3.060416E-16	4.751768E-17
4.390000E+03	3.071685E-16	4.764724E-17
4.400000E+03	3.082863E-16	4.777586E-17
4.410000E+03	3.093944E-16	4.790343E-17
4.420000E+03	3.104918E-16	4.802984E-17
4.430000E+03	3.115779E-16	4.815496E-17
4.440000E+03	3.126518E-16	4.827869E-17
4.450000E+03	3.137128E-16	4.840091E-17
4.460000E+03	3.147602E-16	4.852149E-17
4.470000E+03	3.157932E-16	4.864034E-17
4.480000E+03	3.168109E-16	4.875733E-17
4.490000E+03	3.178128E-16	4.887235E-17
4.500000E+03	3.187980E-16	4.898530E-17
4.510000E+03	3.197658E-16	4.909607E-17
4.520000E+03	3.207155E-16	4.920454E-17
4.530000E+03	3.216463E-16	4.931062E-17
4.540000E+03	3.225577E-16	4.941420E-17
4.550000E+03	3.234488E-16	4.951518E-17
4.560000E+03	3.243190E-16	4.961346E-17
4.570000E+03	3.251678E-16	4.970894E-17
4.580000E+03	3.259943E-16	4.980154E-17
4.590000E+03	3.267981E-16	4.989115E-17
4.600000E+03	3.275785E-16	4.997770E-17
4.610000E+03	3.283349E-16	5.006109E-17
4.620000E+03	3.290668E-16	5.014124E-17
4.630000E+03	3.297735E-16	5.021808E-17
4.640000E+03	3.304547E-16	5.029152E-17
4.650000E+03	3.311098E-16	5.036150E-17
4.660000E+03	3.317383E-16	5.042795E-17
4.670000E+03	3.323398E-16	5.049079E-17
4.680000E+03	3.329139E-16	5.054998E-17
4.690000E+03	3.334601E-16	5.060544E-17
4.700000E+03	3.339780E-16	5.065712E-17
4.710000E+03	3.344673E-16	5.070497E-17
4.720000E+03	3.349278E-16	5.074895E-17
4.730000E+03	3.353590E-16	5.078900E-17
4.740000E+03	3.357607E-16	5.082509E-17
4.750000E+03	3.361326E-16	5.085719E-17
4.760000E+03	3.364746E-16	5.088524E-17
4.770000E+03	3.367863E-16	5.090924E-17
4.780000E+03	3.370677E-16	5.092914E-17
4.790000E+03	3.373186E-16	5.094494E-17
4.800000E+03	3.375388E-16	5.095660E-17
4.810000E+03	3.377283E-16	5.096411E-17
4.820000E+03	3.378870E-16	5.096746E-17
4.830000E+03	3.380148E-16	5.096664E-17
4.840000E+03	3.381116E-16	5.096164E-17
4.850000E+03	3.381776E-16	5.095247E-17
4.860000E+03	3.382126E-16	5.093911E-17
4.870000E+03	3.382168E-16	5.092158E-17
4.880000E+03	3.381901E-16	5.089988E-17
4.890000E+03	3.381327E-16	5.087401E-17
4.900000E+03	3.380446E-16	5.084400E-17
4.910000E+03	3.379260E-16	5.080984E-17
4.920000E+03	3.377770E-16	5.077157E-17
4.930000E+03	3.375977E-16	5.072920E-17
4.940000E+03	3.373884E-16	5.068274E-17
4.950000E+03	3.371491E-16	5.063223E-17
4.960000E+03	3.368801E-16	5.057769E-17
4.970000E+03	3.365816E-16	5.051914E-17
4.980000E+03	3.362539E-16	5.045661E-17
4.990000E+03	3.358971E-16	5.039014E-17
5.000000E+03	3.355116E-16	5.031976E-17
5.010000E+03	3.350976E-16	5.024549E-17
5.020000E+03	3.346553E-16	5.016739E-17
5.030000E+03	3.341851E-16	5.008548E-17
5.040000E+03	3.336872E-16	4.999980E-17
5.050000E+03	3.331620E-16	4.991039E-17
5.060000E+03	3.326098E-16	4.981730E-17
5.070000E+03	3.320308E-16	4.972056E-17
5.080000E+03	3.314255E-16	4.962021E-17
5.090000E+03	3.307942E-16	4.951631E-17
5.100000E+03	3.301372E-16	4.940890E-17
5.110000E+03	3.294549E-16	4.929801E-17
5.120000E+03	3.287476E-16	4.918371E-17
5.130000E+03	3.280157E-16	4.906603E-17
5.140000E+03	3.272596E-16	4.894502E-17
5.150000E+03	3.264796E-16	4.882074E-17
5.160000E+03	3.256761E-16	4.869322E-17
5.170000E+03	3.248495E-16	4.856253E-17
5.180000E+03	3.240002E-16	4.842871E-17
5.190000E+03	3.231286E-16	4.829181E-17
5.200000E+03	3.222351E-16	4.815188E-17
5.210000E+03	3.213201E-16	4.800898E-17
5.220000E+03	3.203839E-16	4.786316E-17
5.230000E+03	3.194270E-16	4.771446E-17
5.240000E+03	3.184498E-16	4.756295E-17
5.250000E+03	3.174527E-16	4.740868E-17
5.260000E+03	3.164361E-16	4.725170E-17
5.270000E+03	3.154004E-16	4.709207E-17
5.280000E+03	3.143461E-16	4.692984E-17
5.290000E+03	3.132735E-16	4.676506E-17
5.300000E+03	3.121831E-16	4.659780E-17
5.310000E+03	3.110753E-16	4.642811E-17
5.320000E+03	3.099505E-16	4.625604E-17
5.330000E+03	3.088092E-16	4.608166E-17
5.340000E+03	3.076518E-16	4.590502E-17
5.350000E+03	3.064787E-16	4.572617E-17
5.360000E+03	3.052903E-16	4.554519E-17
5.370000E+03	3.040871E-16	4.536211E-17
5.380000E+03	3.028695E-16	4.517702E-17
5.390000E+03	3.016380E-16	4.498995E-17
5.400000E+03	3.003929E-16	4.480098E-17
5.410000E+03	2.991348E-16	4.461017E-17
5.420000E+03	2.978640E-16	4.441757E-17
5.430000E+03	2.965811E-16	4.422324E-17
5.440000E+03	2.952864E-16	4.402725E-17
5.450000E+03	2.939804E-16	4.382966E-17
5.460000E+03	2.926635E-16	4.363053E-17
5.470000E+03	2.913362E-16	4.342992E-17
5.480000E+03	2.899990E-16	4.322790E-17
5.490000E+03	2.886523E-16	4.302452E-17
5.500000E+03	2.872964E-16	4.281986E-17
5.510000E+03	2.859320E-16	4.261397E-17
5.520000E+03	2.845594E-16	4.240692E-17
5.530000E+03	2.831791E-16	4.219877E-17
5.540000E+03	2.817915E-16	4.198959E-17
5.550000E+03	2.803970E-16	4.177943E-17
5.560000E+03	2.789962E-16	4.156838E-17
5.570000E+03	2.775895E-16	4.135648E-17
5.580000E+03	2.761773E-16	4.114380E-17
5.590000E+03	2.747600E-16	4.093042E-17
5.600000E+03	2.733382E-16	4.071639E-17
5.610000E+03	2.719122E-16	4.050177E-17
5.620000E+03	2.704825E-16	4.028664E-17
5.630000E+03	2.690496E-16	4.007106E-17
5.640000E+03	2.676139E-16	3.985508E-17
5.650000E+03	2.661757E-16	3.963879E-17
5.660000E+03	2.647357E-16	3.942223E-17
5.670000E+03	2.632941E-16	3.920548E-17
5.680000E+03	2.618515E-16	3.898860E-17
5.690000E+03	2.604082E-16	3.877166E-17
5.700000E+03	2.589647E-16	3.855471E-17
5.710000E+03	2.575213E-16	3.833782E-17
5.720000E+03	2.560787E-16	3.812105E-17
5.730000E+03	2.546370E-16	3.790446E-17
5.740000E+03	2.531968E-16	3.768813E-17
5.750000E+03	2.517585E-16	3.747210E-17
5.760000E+03	2.503225E-16	3.725644E-17
5.770000E+03	2.488891E-16	3.704121E-17
5.780000E+03	2.474588E-16	3.682647E-17
5.790000E+03	2.460319E-16	3.661229E-17
5.800000E+03	2.446089E-16	3.639871E-17
5.810000E+03	2.431901E-16	3.618579E-17
5.820000E+03	2.417758E-16	3.597360E-17
5.830000E+03	2.403666E-16	3.576219E-17
5.840000E+03	2.389627E-16	3.555162E-17
5.850000E+03	2.375645E-16	3.534194E-17
5.860000E+03	2.361723E-16	3.513321E-17
5.870000E+03	2.347866E-16	3.492548E-17
5.880000E+03	2.334075E-16	3.471880E-17
5.890000E+03	2.320356E-16	3.451322E-17
5.900000E+03	2.306710E-16	3.430880E-17
5.910000E+03	2.293142E-16	3.410559E-17
5.920000E+03	2.279654E-16	3.390363E-17
5.930000E+03	2.266249E-16	3.370297E-17
5.940000E+03	2.252931E-16	3.350367E-17
5.950000E+03	2.239702E-16	3.330575E-17
5.960000E+03	2.226565E-16	3.310928E-17
5.970000E+03	2.213524E-16	3.291430E-17
5.980000E+03	2.200580E-16	3.272084E-17
5.990000E+03	2.187736E-16	3.252895E-17
6.000000E+03	2.174996E-16	3.233867E-17
6.010000E+03	2.162361E-16	3.215004E-17
6.020000E+03	2.149833E-16	3.196309E-17
6.030000E+03	2.137416E-16	3.177787E-17
6.040000E+03	2.125112E-16	3.159442E-17
6.050000E+03	2.112922E-16	3.141276E-17
6.060000E+03	2.100849E-16	3.123292E-17
6.070000E+03	2.088895E-16	3.105496E-17
6.080000E+03	2.077062E-16	3.087888E-17
6.090000E+03	2.065351E-16	3.070473E-17
6.100000E+03	2.053765E-16	3.053253E-17
6.110000E+03	2.042306E-16	3.036232E-17
6.120000E+03	2.030974E-16	3.019412E-17
6.130000E+03	2.019772E-16	3.002795E-17
6.140000E+03	2.008701E-16	2.986383E-17
6.150000E+03	1.997762E-16	2.970181E-17
6.160000E+03	1.986957E-16	2.954188E-17
6.170000E+03	1.976288E-16	2.938409E-17
6.180000E+03	1.965755E-16	2.922844E-17
6.190000E+03	1.955359E-16	2.907496E-17
6.200000E+03	1.945103E-16	2.892366E-17
6.210000E+03	1.934986E-16	2.877456E-17
6.220000E+03	1.925009E-16	2.862768E-17
6.230000E+03	1.915175E-16	2.848303E-17
6.240000E+03	1.905483E-16	2.834063E-17
6.250000E+03	1.895934E-16	2.820048E-17
6.260000E+03	1.886529E-16	2.806261E-17
6.270000E+03	1.877268E-16	2.792702E-17
6.280000E+03	1.868153E-16	2.779372E-17
6.290000E+03	1.859184E-16	2.766272E-17
6.300000E+03	1.850360E-16	2.753403E-17
6.310000E+03	1.841684E-16	2.740765E-17
6.320000E+03	1.833154E-16	2.728360E-17
6.330000E+03	1.824772E-16	2.716187E-17
6.340000E+03	1.816537E-16	2.704248E-17
6.350000E+03	1.808450E-16	2.692542E-17
6.360000E+03	1.800512E-16	2.681070E-17
6.370000E+03	1.792721E-16	2.669832E-17
6.380000E+03	1.785078E-16	2.658829E-17
6.390000E+03	1.777584E-16	2.648060E-17
6.400000E+03	1.770238E-16	2.637525E-17
6.410000E+03	1.763040E-16	2.627224E-17
6.420000E+03	1.755990E-16	2.617158E-17
6.430000E+03	1.749088E-16	2.607326E-17
6.440000E+03	1.742334E-16	2.597727E-17
6.450000E+03	1.735727E-16	2.588362E-17
6.460000E+03	1.729268E-16	2.579230E-17
6.470000E+03	1.722955E-16	2.570330E-17
6.480000E+03	1.716790E-16	2.561662E-17
6.490000E+03	1.710771E-16	2.553226E-17
6.500000E+03	1.704898E-16	2.545021E-17
6.510000E+03	1.699170E-16	2.537046E-17
6.520000E+03	1.693588E-16	2.529301E-17
6.530000E+03	1.688150E-16	2.521784E-17
6.540000E+03	1.682857E-16	2.514496E-17
6.550000E+03	1.677707E-16	2.507434E-17
6.560000E+03	1.672701E-16	2.500599E-17
6.570000E+03	1.667837E-16	2.493990E-17
6.580000E+03	1.663116E-16	2.487605E-17
6.590000E+03	1.658535E-16	2.481443E-17
6.600000E+03	1.654096E-16	2.475504E-17
6.610000E+03	1.649797E-16	2.469786E-17
6.620000E+03	1.645637E-16	2.464288E-17
6.630000E+03	1.641616E-16	2.459010E-17
6.640000E+03	1.637733E-16	2.453949E-17
6.650000E+03	1.633987E-16	2.449105E-17
6.660000E+03	1.630378E-16	2.444477E-17
6.670000E+03	1.626904E-16	2.440063E-17
6.680000E+03	1.623566E-16	2.435862E-17
6.690000E+03	1.620361E-16	2.431872E-17
6.700000E+03	1.617290E-16	2.428093E-17
6.710000E+03	1.614352E-16	2.424523E-17
6.720000E+03	1.611545E-16	2.421160E-17
6.730000E+03	1.608869E-16	2.418003E-17
6.740000E+03	1.606322E-16	2.415051E-17
6.750000E+03	1.603905E-16	2.412302E-17
6.760000E+03	1.601615E-16	2.409754E-17
6.770000E+03	1.599453E-16	2.407407E-17
6.780000E+03	1.597416E-16	2.405258E-17
6.790000E+03	1.595504E-16	2.403307E-17
6.800000E+03	1.593717E-16	2.401550E-17
6.810000E+03	1.592052E-16	2.399988E-17
6.820000E+03	1.590510E-16	2.398618E-17
6.830000E+03	1.589088E-16	2.397438E-17
6.840000E+03	1.587787E-16	2.396447E-17
6.850000E+03	1.586604E-16	2.395643E-17
6.860000E+03	1.585538E-16	2.395025E-17
6.870000E+03	1.584590E-16	2.394591E-17
6.880000E+03	1.583757E-16	2.394338E-17
6.890000E+03	1.583038E-16	2.394266E-17
6.900000E+03	1.582432E-16	2.394372E-17
6.910000E+03	1.581939E-16	2.394655E-17
6.920000E+03	1.581556E-16	2.395112E-17
6.930000E+03	1.581283E-16	2.395743E-17
6.940000E+03	1.581119E-16	2.396545E-17
6.950000E+03	1.581062E-16	2.397516E-17
6.960000E+03	1.581111E-16	2.398654E-17
6.970000E+03	1.581265E-16	2.399959E-17
6.980000E+03	1.581523E-16	2.401427E-17
6.990000E+03	1.581883E-16	2.403057E-17
7.000000E+03	1.582344E-16	2.404847E-17
7.010000E+03	1.582905E-16	2.406795E-17
7.020000E+03	1.583565E-16	2.408899E-17
7.030000E+03	1.584322E-16	2.411157E-17
7.040000E+03	1.585176E-16	2.413567E-17
7.050000E+03	1.586124E-16	2.416128E-17
7.060000E+03	1.587166E-16	2.418838E-17
7.070000E+03	1.588300E-16	2.421694E-17
7.080000E+03	1.589525E-16	2.424694E-17
7.090000E+03	1.590840E-16	2.427838E-17
7.100000E+03	1.592244E-16	2.431122E-17
7.110000E+03	1.593734E-16	2.434544E-17
7.120000E+03	1.595311E-16	2.438104E-17
7.130000E+03	1.596972E-16	2.441799E-17
7.140000E+03	1.598716E-16	2.445626E-17
7.150000E+03	1.600542E-16	2.449585E-17
7.160000E+03	1.602449E-16	2.453673E-17
7.170000E+03	1.604436E-16	2.457889E-17
7.180000E+03	1.606501E-16	2.462230E-17
7.190000E+03	1.608642E-16	2.466694E-17
7.200000E+03	1.610859E-16	2.471281E-17
7.210000E+03	1.613151E-16	2.475987E-17
7.220000E+03	1.615516E-16	2.480811E-17
7.230000E+03	1.617952E-16	2.485751E-17
7.240000E+03	1.620459E-16	2.490806E-17
7.250000E+03	1.623036E-16	2.495973E-17
7.260000E+03	1.625681E-16	2.501251E-17
7.270000E+03	1.628392E-16	2.506638E-17
7.280000E+03	1.631170E-16	2.512132E-17
7.290000E+03	1.634012E-16	2.517732E-17
7.300000E+03	1.636917E-16	2.523436E-17
7.310000E+03	1.639885E-16	2.529241E-17
7.320000E+03	1.642913E-16	2.535147E-17
7.330000E+03	1.646002E-16	2.541152E-17
7.340000E+03	1.649149E-16	2.547254E-17
7.350000E+03	1.652354E-16	2.553451E-17
7.360000E+03	1.655615E-16	2.559742E-17
7.370000E+03	1.658931E-16	2.566125E-17
7.380000E+03	1.662302E-16	2.572598E-17
7.390000E+03	1.665726E-16	2.579160E-17
7.400000E+03	1.669202E-16	2.585810E-17
7.410000E+03	1.672728E-16	2.592546E-17
7.420000E+03	1.676305E-16	2.599365E-17
7.430000E+03	1.679930E-16	2.606268E-17
7.440000E+03	1.683603E-16	2.613252E-17
7.450000E+03	1.687323E-16	2.620315E-17
7.460000E+03	1.691089E-16	2.627457E-17
7.470000E+03	1.694899E-16	2.634675E-17
7.480000E+03	1.698753E-16	2.641969E-17
7.490000E+03	1.702650E-16	2.649337E-17
7.500000E+03	1.706588E-16	2.656777E-17
7.510000E+03	1.710567E-16	2.664289E-17
7.520000E+03	1.714586E-16	2.671869E-17
7.530000E+03	1.718643E-16	2.679519E-17
7.540000E+03	1.722738E-16	2.687234E-17
7.550000E+03	1.726871E-16	2.695016E-17
7.560000E+03	1.731039E-16	2.702861E-17
7.570000E+03	1.735241E-16	2.710769E-17
7.580000E+03	1.739478E-16	2.718738E-17
7.590000E+03	1.743749E-16	2.726767E-17
7.600000E+03	1.748051E-16	2.734855E-17
7.610000E+03	1.752384E-16	2.743000E-17
7.620000E+03	1.756748E-16	2.751201E-17
7.630000E+03	1.761142E-16	2.759457E-17
7.640000E+03	1.765564E-16	2.767765E-17
7.650000E+03	1.770014E-16	2.776126E-17
7.660000E+03	1.774490E-16	2.784537E-17
7.670000E+03	1.778993E-16	2.792997E-17
7.680000E+03	1.783521E-16	2.801505E-17
7.690000E+03	1.788073E-16	2.810060E-17
7.700000E+03	1.792648E-16	2.818660E-17
7.710000E+03	1.797246E-16	2.827304E-17
7.720000E+03	1.801866E-16	2.835991E-17
7.730000E+03	1.806506E-16	2.844719E-17
7.740000E+03	1.811167E-16	2.853487E-17
7.750000E+03	1.815847E-16	2.862294E-17
7.760000E+03	1.820545E-16	2.871138E-17
