#wls	flux	fluxerr
1.600000E+03	1.734540E-16	5.230392E-17
1.640000E+03	1.750080E-16	5.213907E-17
1.680000E+03	1.766334E-16	5.196546E-17
1.720000E+03	1.783290E-16	5.178098E-17
1.760000E+03	1.800927E-16	5.158343E-17
1.800000E+03	1.819797E-16	5.138663E-17
1.840000E+03	1.839597E-16	5.117969E-17
1.880000E+03	1.861161E-16	5.098336E-17
1.920000E+03	1.884184E-16	5.078604E-17
1.960000E+03	1.908926E-16	5.059166E-17
2.000000E+03	1.936224E-16	5.041850E-17
2.040000E+03	1.966335E-16	5.026839E-17
2.080000E+03	1.999226E-16	5.013513E-17
2.120000E+03	2.035431E-16	5.002640E-17
2.160000E+03	2.075770E-16	4.995548E-17
2.200000E+03	2.120475E-16	4.991980E-17
2.240000E+03	2.169183E-16	4.990243E-17
2.280000E+03	2.222679E-16	4.991267E-17
2.320000E+03	2.280570E-16	4.993206E-17
2.360000E+03	2.342737E-16	4.994858E-17
2.400000E+03	2.409621E-16	4.996185E-17
2.440000E+03	2.480483E-16	4.994649E-17
2.480000E+03	2.555431E-16	4.989527E-17
2.520000E+03	2.634261E-16	4.979463E-17
2.560000E+03	2.716745E-16	4.963102E-17
2.600000E+03	2.802629E-16	4.939099E-17
2.640000E+03	2.891919E-16	4.906619E-17
2.680000E+03	2.984584E-16	4.864784E-17
2.720000E+03	3.079999E-16	4.811810E-17
2.760000E+03	3.178352E-16	4.747330E-17
2.800000E+03	3.279505E-16	4.670509E-17
2.840000E+03	3.383006E-16	4.580173E-17
2.880000E+03	3.488090E-16	4.474950E-17
2.920000E+03	3.593695E-16	4.353416E-17
2.960000E+03	3.699822E-16	4.215776E-17
3.000000E+03	3.805619E-16	4.061464E-17
3.010000E+03	3.832137E-16	4.020484E-17
3.020000E+03	3.858767E-16	3.978650E-17
3.030000E+03	3.885234E-16	3.935690E-17
3.040000E+03	3.911791E-16	3.891876E-17
3.050000E+03	3.938427E-16	3.847209E-17
3.060000E+03	3.964868E-16	3.801435E-17
3.070000E+03	3.991626E-16	3.755062E-17
3.080000E+03	4.018165E-16	3.707598E-17
3.090000E+03	4.044995E-16	3.659532E-17
3.100000E+03	4.071582E-16	3.610396E-17
3.110000E+03	4.098432E-16	3.560662E-17
3.120000E+03	4.125529E-16	3.510325E-17
3.130000E+03	4.152600E-16	3.459168E-17
3.140000E+03	4.179633E-16	3.407207E-17
3.150000E+03	4.206868E-16	3.354660E-17
3.160000E+03	4.234287E-16	3.301534E-17
3.170000E+03	4.261873E-16	3.247833E-17
3.180000E+03	4.289610E-16	3.193569E-17
3.190000E+03	4.317480E-16	3.138754E-17
3.200000E+03	4.345465E-16	3.083405E-17
3.210000E+03	4.373795E-16	3.027711E-17
3.220000E+03	4.402201E-16	2.971515E-17
3.230000E+03	4.431157E-16	2.915166E-17
3.240000E+03	4.460147E-16	2.858352E-17
3.250000E+03	4.489641E-16	2.801411E-17
3.260000E+03	4.519127E-16	2.744060E-17
3.270000E+03	4.549308E-16	2.686768E-17
3.280000E+03	4.579676E-16	2.629267E-17
3.290000E+03	4.610445E-16	2.571728E-17
3.300000E+03	4.641588E-16	2.514184E-17
3.310000E+03	4.673312E-16	2.456794E-17
3.320000E+03	4.705352E-16	2.399469E-17
3.330000E+03	4.737913E-16	2.342374E-17
3.340000E+03	4.771193E-16	2.285664E-17
3.350000E+03	4.804925E-16	2.229269E-17
3.360000E+03	4.839306E-16	2.173352E-17
3.370000E+03	4.874298E-16	2.117964E-17
3.380000E+03	4.910089E-16	2.063263E-17
3.390000E+03	4.946638E-16	2.009308E-17
3.400000E+03	4.983902E-16	1.956166E-17
3.410000E+03	5.022062E-16	1.903995E-17
3.420000E+03	5.061070E-16	1.852871E-17
3.430000E+03	5.101101E-16	1.802951E-17
3.440000E+03	5.142107E-16	1.754316E-17
3.450000E+03	5.184257E-16	1.707124E-17
3.460000E+03	5.227717E-16	1.661528E-17
3.470000E+03	5.272435E-16	1.617609E-17
3.480000E+03	5.318575E-16	1.575516E-17
3.490000E+03	5.366086E-16	1.535331E-17
3.500000E+03	5.415338E-16	1.497256E-17
3.510000E+03	5.466277E-16	1.461365E-17
3.520000E+03	5.519058E-16	1.427785E-17
3.530000E+03	5.573625E-16	1.396587E-17
3.540000E+03	5.630130E-16	1.367884E-17
3.550000E+03	5.688316E-16	1.341684E-17
3.560000E+03	5.748339E-16	1.318083E-17
3.570000E+03	5.809750E-16	1.297019E-17
3.580000E+03	5.872513E-16	1.278513E-17
3.590000E+03	5.936401E-16	1.262519E-17
3.600000E+03	6.001587E-16	1.249052E-17
3.610000E+03	6.067468E-16	1.237934E-17
3.620000E+03	6.134430E-16	1.229171E-17
3.630000E+03	6.201898E-16	1.222543E-17
3.640000E+03	6.270078E-16	1.217969E-17
3.650000E+03	6.338615E-16	1.215235E-17
3.660000E+03	6.407546E-16	1.214191E-17
3.670000E+03	6.476725E-16	1.214642E-17
3.680000E+03	6.546383E-16	1.216457E-17
3.690000E+03	6.616019E-16	1.219365E-17
3.700000E+03	6.685876E-16	1.223235E-17
3.710000E+03	6.755829E-16	1.227869E-17
3.720000E+03	6.825760E-16	1.233077E-17
3.730000E+03	6.895734E-16	1.238707E-17
3.740000E+03	6.965814E-16	1.244616E-17
3.750000E+03	7.035887E-16	1.250638E-17
3.760000E+03	7.105847E-16	1.256618E-17
3.770000E+03	7.175761E-16	1.262447E-17
3.780000E+03	7.245867E-16	1.268056E-17
3.790000E+03	7.315718E-16	1.273274E-17
3.800000E+03	7.385554E-16	1.278064E-17
3.810000E+03	7.455437E-16	1.282376E-17
3.820000E+03	7.525263E-16	1.286149E-17
3.830000E+03	7.595092E-16	1.289366E-17
3.840000E+03	7.664816E-16	1.291998E-17
3.850000E+03	7.734491E-16	1.294062E-17
3.860000E+03	7.804003E-16	1.295562E-17
3.870000E+03	7.873559E-16	1.296565E-17
3.880000E+03	7.942880E-16	1.297073E-17
3.890000E+03	8.012162E-16	1.297173E-17
3.900000E+03	8.081281E-16	1.296903E-17
3.910000E+03	8.150264E-16	1.296330E-17
3.920000E+03	8.218979E-16	1.295493E-17
3.930000E+03	8.287447E-16	1.294452E-17
3.940000E+03	8.355526E-16	1.293234E-17
3.950000E+03	8.423382E-16	1.291910E-17
3.960000E+03	8.490708E-16	1.290469E-17
3.970000E+03	8.557809E-16	1.288986E-17
3.980000E+03	8.624220E-16	1.287414E-17
3.990000E+03	8.690083E-16	1.285790E-17
4.000000E+03	8.755234E-16	1.284095E-17
4.010000E+03	8.819665E-16	1.282332E-17
4.020000E+03	8.883366E-16	1.280496E-17
4.030000E+03	8.946335E-16	1.278578E-17
4.040000E+03	9.008283E-16	1.276528E-17
4.050000E+03	9.069372E-16	1.274361E-17
4.060000E+03	9.129480E-16	1.272054E-17
4.070000E+03	9.188647E-16	1.269611E-17
4.080000E+03	9.246775E-16	1.267024E-17
4.090000E+03	9.304073E-16	1.264333E-17
4.100000E+03	9.360325E-16	1.261530E-17
4.110000E+03	9.415764E-16	1.258674E-17
4.120000E+03	9.470345E-16	1.255794E-17
4.130000E+03	9.524037E-16	1.252926E-17
4.140000E+03	9.577101E-16	1.250150E-17
4.150000E+03	9.629665E-16	1.247528E-17
4.160000E+03	9.681574E-16	1.245087E-17
4.170000E+03	9.732961E-16	1.242892E-17
4.180000E+03	9.784099E-16	1.241024E-17
4.190000E+03	9.834973E-16	1.239529E-17
4.200000E+03	9.885703E-16	1.238470E-17
4.210000E+03	9.936400E-16	1.237911E-17
4.220000E+03	9.987019E-16	1.237897E-17
4.230000E+03	1.003778E-15	1.238501E-17
4.240000E+03	1.008873E-15	1.239771E-17
4.250000E+03	1.013977E-15	1.241725E-17
4.260000E+03	1.019090E-15	1.244379E-17
4.270000E+03	1.024223E-15	1.247747E-17
4.280000E+03	1.029383E-15	1.251826E-17
4.290000E+03	1.034550E-15	1.256560E-17
4.300000E+03	1.039712E-15	1.261898E-17
4.310000E+03	1.044899E-15	1.267829E-17
4.320000E+03	1.050071E-15	1.274253E-17
4.330000E+03	1.055255E-15	1.281154E-17
4.340000E+03	1.060438E-15	1.288469E-17
4.350000E+03	1.065633E-15	1.296175E-17
4.360000E+03	1.070828E-15	1.304226E-17
4.370000E+03	1.076050E-15	1.312639E-17
4.380000E+03	1.081287E-15	1.321389E-17
4.390000E+03	1.086569E-15	1.330515E-17
4.400000E+03	1.091913E-15	1.340044E-17
4.410000E+03	1.097322E-15	1.349989E-17
4.420000E+03	1.102802E-15	1.360358E-17
4.430000E+03	1.108371E-15	1.371162E-17
4.440000E+03	1.113993E-15	1.382326E-17
4.450000E+03	1.119662E-15	1.393784E-17
4.460000E+03	1.125371E-15	1.405445E-17
4.470000E+03	1.131115E-15	1.417193E-17
4.480000E+03	1.136860E-15	1.428860E-17
4.490000E+03	1.142604E-15	1.440301E-17
4.500000E+03	1.148331E-15	1.451347E-17
4.510000E+03	1.154029E-15	1.461833E-17
4.520000E+03	1.159712E-15	1.471634E-17
4.530000E+03	1.165331E-15	1.480553E-17
4.540000E+03	1.170919E-15	1.488511E-17
4.550000E+03	1.176443E-15	1.495361E-17
4.560000E+03	1.181927E-15	1.501048E-17
4.570000E+03	1.187356E-15	1.505486E-17
4.580000E+03	1.192729E-15	1.508633E-17
4.590000E+03	1.198049E-15	1.510475E-17
4.600000E+03	1.203331E-15	1.511041E-17
4.610000E+03	1.208578E-15	1.510377E-17
4.620000E+03	1.213780E-15	1.508536E-17
4.630000E+03	1.218970E-15	1.505653E-17
4.640000E+03	1.224138E-15	1.501833E-17
4.650000E+03	1.229287E-15	1.497216E-17
4.660000E+03	1.234434E-15	1.491965E-17
4.670000E+03	1.239578E-15	1.486226E-17
4.680000E+03	1.244743E-15	1.480164E-17
4.690000E+03	1.249909E-15	1.473876E-17
4.700000E+03	1.255094E-15	1.467479E-17
4.710000E+03	1.260294E-15	1.461043E-17
4.720000E+03	1.265506E-15	1.454605E-17
4.730000E+03	1.270747E-15	1.448206E-17
4.740000E+03	1.275991E-15	1.441810E-17
4.750000E+03	1.281275E-15	1.435443E-17
4.760000E+03	1.286568E-15	1.429033E-17
4.770000E+03	1.291891E-15	1.422562E-17
4.780000E+03	1.297209E-15	1.415949E-17
4.790000E+03	1.302542E-15	1.409177E-17
4.800000E+03	1.307857E-15	1.402177E-17
4.810000E+03	1.313151E-15	1.394929E-17
4.820000E+03	1.318395E-15	1.387399E-17
4.830000E+03	1.323593E-15	1.379605E-17
4.840000E+03	1.328725E-15	1.371562E-17
4.850000E+03	1.333806E-15	1.363340E-17
4.860000E+03	1.338826E-15	1.355000E-17
4.870000E+03	1.343797E-15	1.346643E-17
4.880000E+03	1.348749E-15	1.338402E-17
4.890000E+03	1.353676E-15	1.330382E-17
4.900000E+03	1.358629E-15	1.322761E-17
4.910000E+03	1.363609E-15	1.315669E-17
4.920000E+03	1.368670E-15	1.309295E-17
4.930000E+03	1.373840E-15	1.303799E-17
4.940000E+03	1.379114E-15	1.299306E-17
4.950000E+03	1.384527E-15	1.295967E-17
4.960000E+03	1.390110E-15	1.293906E-17
4.970000E+03	1.395873E-15	1.293201E-17
4.980000E+03	1.401793E-15	1.293859E-17
4.990000E+03	1.407913E-15	1.295904E-17
5.000000E+03	1.414197E-15	1.299235E-17
5.010000E+03	1.420635E-15	1.303722E-17
5.020000E+03	1.427236E-15	1.309209E-17
5.030000E+03	1.433951E-15	1.315442E-17
5.040000E+03	1.440764E-15	1.322178E-17
5.050000E+03	1.447660E-15	1.329158E-17
5.060000E+03	1.454575E-15	1.336082E-17
5.070000E+03	1.461485E-15	1.342704E-17
5.080000E+03	1.468367E-15	1.348802E-17
5.090000E+03	1.475167E-15	1.354163E-17
5.100000E+03	1.481846E-15	1.358629E-17
5.110000E+03	1.488382E-15	1.362100E-17
5.120000E+03	1.494723E-15	1.364498E-17
5.130000E+03	1.500835E-15	1.365810E-17
5.140000E+03	1.506702E-15	1.366089E-17
5.150000E+03	1.512278E-15	1.365405E-17
5.160000E+03	1.517551E-15	1.363898E-17
5.170000E+03	1.522481E-15	1.361705E-17
5.180000E+03	1.527058E-15	1.358997E-17
5.190000E+03	1.531250E-15	1.355904E-17
5.200000E+03	1.535052E-15	1.352551E-17
5.210000E+03	1.538437E-15	1.348989E-17
5.220000E+03	1.541411E-15	1.345250E-17
5.230000E+03	1.543952E-15	1.341301E-17
5.240000E+03	1.546061E-15	1.337101E-17
5.250000E+03	1.547741E-15	1.332599E-17
5.260000E+03	1.549016E-15	1.327768E-17
5.270000E+03	1.549886E-15	1.322573E-17
5.280000E+03	1.550366E-15	1.317011E-17
5.290000E+03	1.550477E-15	1.311106E-17
5.300000E+03	1.550240E-15	1.304897E-17
5.310000E+03	1.549680E-15	1.298437E-17
5.320000E+03	1.548820E-15	1.291783E-17
5.330000E+03	1.547669E-15	1.284971E-17
5.340000E+03	1.546266E-15	1.278041E-17
5.350000E+03	1.544618E-15	1.270969E-17
5.360000E+03	1.542764E-15	1.263704E-17
5.370000E+03	1.540708E-15	1.256104E-17
5.380000E+03	1.538455E-15	1.247967E-17
5.390000E+03	1.536054E-15	1.239075E-17
5.400000E+03	1.533509E-15	1.229146E-17
5.410000E+03	1.530822E-15	1.217903E-17
5.420000E+03	1.528029E-15	1.205135E-17
5.430000E+03	1.525136E-15	1.190678E-17
5.440000E+03	1.522180E-15	1.174494E-17
5.450000E+03	1.519156E-15	1.156626E-17
5.460000E+03	1.516122E-15	1.137294E-17
5.470000E+03	1.513109E-15	1.116825E-17
5.480000E+03	1.510118E-15	1.095647E-17
5.490000E+03	1.507202E-15	1.074321E-17
5.500000E+03	1.504385E-15	1.053457E-17
5.510000E+03	1.501740E-15	1.033718E-17
5.520000E+03	1.499299E-15	1.015709E-17
5.530000E+03	1.497110E-15	9.999713E-18
5.540000E+03	1.495224E-15	9.869348E-18
5.550000E+03	1.493709E-15	9.769100E-18
5.560000E+03	1.492602E-15	9.700469E-18
5.570000E+03	1.491965E-15	9.663709E-18
5.580000E+03	1.491829E-15	9.657376E-18
5.590000E+03	1.492247E-15	9.678688E-18
5.600000E+03	1.493249E-15	9.723295E-18
5.610000E+03	1.494874E-15	9.785668E-18
5.620000E+03	1.497111E-15	9.859052E-18
5.630000E+03	1.500003E-15	9.936600E-18
5.640000E+03	1.503562E-15	1.001127E-17
5.650000E+03	1.507799E-15	1.007647E-17
5.660000E+03	1.512707E-15	1.012641E-17
5.670000E+03	1.518313E-15	1.015671E-17
5.680000E+03	1.524644E-15	1.016443E-17
5.690000E+03	1.531680E-15	1.014799E-17
5.700000E+03	1.539464E-15	1.010799E-17
5.710000E+03	1.548003E-15	1.004668E-17
5.720000E+03	1.557288E-15	9.968056E-18
5.730000E+03	1.567337E-15	9.878134E-18
5.740000E+03	1.578125E-15	9.784320E-18
5.750000E+03	1.589651E-15	9.695430E-18
5.760000E+03	1.601900E-15	9.620865E-18
5.770000E+03	1.614789E-15	9.569447E-18
5.780000E+03	1.628261E-15	9.548996E-18
5.790000E+03	1.642216E-15	9.564930E-18
5.800000E+03	1.656529E-15	9.619670E-18
5.810000E+03	1.671042E-15	9.712504E-18
5.820000E+03	1.685594E-15	9.840179E-18
5.830000E+03	1.699952E-15	9.997414E-18
5.840000E+03	1.713944E-15	1.017859E-17
5.850000E+03	1.727344E-15	1.037773E-17
5.860000E+03	1.739952E-15	1.058922E-17
5.870000E+03	1.751605E-15	1.080770E-17
5.880000E+03	1.762112E-15	1.102731E-17
5.890000E+03	1.771386E-15	1.124215E-17
5.900000E+03	1.779304E-15	1.144532E-17
5.910000E+03	1.785849E-15	1.163009E-17
5.920000E+03	1.790960E-15	1.178949E-17
5.930000E+03	1.794659E-15	1.191775E-17
5.940000E+03	1.796967E-15	1.201046E-17
5.950000E+03	1.797922E-15	1.206511E-17
5.960000E+03	1.797553E-15	1.208110E-17
5.970000E+03	1.795917E-15	1.206003E-17
5.980000E+03	1.793081E-15	1.200522E-17
5.990000E+03	1.789133E-15	1.192144E-17
6.000000E+03	1.784113E-15	1.181381E-17
6.010000E+03	1.778125E-15	1.168793E-17
6.020000E+03	1.771258E-15	1.154891E-17
6.030000E+03	1.763591E-15	1.140093E-17
6.040000E+03	1.755244E-15	1.124754E-17
6.050000E+03	1.746289E-15	1.109102E-17
6.060000E+03	1.736857E-15	1.093330E-17
6.070000E+03	1.727079E-15	1.077585E-17
6.080000E+03	1.717031E-15	1.061954E-17
6.090000E+03	1.706845E-15	1.046549E-17
6.100000E+03	1.696629E-15	1.031466E-17
6.110000E+03	1.686507E-15	1.016799E-17
6.120000E+03	1.676560E-15	1.002609E-17
6.130000E+03	1.666906E-15	9.889613E-18
6.140000E+03	1.657637E-15	9.759091E-18
6.150000E+03	1.648879E-15	9.635478E-18
6.160000E+03	1.640737E-15	9.520080E-18
6.170000E+03	1.633274E-15	9.414609E-18
6.180000E+03	1.626584E-15	9.321574E-18
6.190000E+03	1.620775E-15	9.243958E-18
6.200000E+03	1.615877E-15	9.184400E-18
6.210000E+03	1.611969E-15	9.145585E-18
6.220000E+03	1.609090E-15	9.129448E-18
6.230000E+03	1.607275E-15	9.137199E-18
6.240000E+03	1.606577E-15	9.169345E-18
6.250000E+03	1.607065E-15	9.225721E-18
6.260000E+03	1.608757E-15	9.305181E-18
6.270000E+03	1.611724E-15	9.406372E-18
6.280000E+03	1.616004E-15	9.527382E-18
6.290000E+03	1.621676E-15	9.666322E-18
6.300000E+03	1.628781E-15	9.821028E-18
6.310000E+03	1.637401E-15	9.989583E-18
6.320000E+03	1.647581E-15	1.016992E-17
6.330000E+03	1.659385E-15	1.036017E-17
6.340000E+03	1.672896E-15	1.055868E-17
6.350000E+03	1.688135E-15	1.076353E-17
6.360000E+03	1.705197E-15	1.097344E-17
6.370000E+03	1.724093E-15	1.118681E-17
6.380000E+03	1.744858E-15	1.140243E-17
6.390000E+03	1.767495E-15	1.161905E-17
6.400000E+03	1.792004E-15	1.183543E-17
6.410000E+03	1.818317E-15	1.204981E-17
6.420000E+03	1.846396E-15	1.226034E-17
6.430000E+03	1.876058E-15	1.246388E-17
6.440000E+03	1.907187E-15	1.265743E-17
6.450000E+03	1.939535E-15	1.283702E-17
6.460000E+03	1.972877E-15	1.299908E-17
6.470000E+03	2.006952E-15	1.314046E-17
6.480000E+03	2.041488E-15	1.325902E-17
6.490000E+03	2.076185E-15	1.335372E-17
6.500000E+03	2.110773E-15	1.342511E-17
6.510000E+03	2.144912E-15	1.347467E-17
6.520000E+03	2.178253E-15	1.350504E-17
6.530000E+03	2.210441E-15	1.351982E-17
6.540000E+03	2.241117E-15	1.352334E-17
6.550000E+03	2.269903E-15	1.352021E-17
6.560000E+03	2.296490E-15	1.351545E-17
6.570000E+03	2.320533E-15	1.351346E-17
6.580000E+03	2.341715E-15	1.351783E-17
6.590000E+03	2.359757E-15	1.353091E-17
6.600000E+03	2.374487E-15	1.355374E-17
6.610000E+03	2.385700E-15	1.358509E-17
6.620000E+03	2.393284E-15	1.362222E-17
6.630000E+03	2.397223E-15	1.366147E-17
6.640000E+03	2.397544E-15	1.369846E-17
6.650000E+03	2.394341E-15	1.372895E-17
6.660000E+03	2.387802E-15	1.374946E-17
6.670000E+03	2.378086E-15	1.375676E-17
6.680000E+03	2.365521E-15	1.374922E-17
6.690000E+03	2.350415E-15	1.372569E-17
6.700000E+03	2.333105E-15	1.368582E-17
6.710000E+03	2.313910E-15	1.362987E-17
6.720000E+03	2.293215E-15	1.355918E-17
6.730000E+03	2.271371E-15	1.347563E-17
6.740000E+03	2.248713E-15	1.338168E-17
6.750000E+03	2.225553E-15	1.328018E-17
6.760000E+03	2.202210E-15	1.317427E-17
6.770000E+03	2.178882E-15	1.306647E-17
6.780000E+03	2.155854E-15	1.295965E-17
6.790000E+03	2.133263E-15	1.285551E-17
6.800000E+03	2.111330E-15	1.275598E-17
6.810000E+03	2.090188E-15	1.266224E-17
6.820000E+03	2.069882E-15	1.257496E-17
6.830000E+03	2.050553E-15	1.249546E-17
6.840000E+03	2.032229E-15	1.242466E-17
6.850000E+03	2.014983E-15	1.236392E-17
6.860000E+03	1.998818E-15	1.231418E-17
6.870000E+03	1.983755E-15	1.227621E-17
6.880000E+03	1.969811E-15	1.225010E-17
6.890000E+03	1.957029E-15	1.223523E-17
6.900000E+03	1.945388E-15	1.222962E-17
6.910000E+03	1.934894E-15	1.223064E-17
6.920000E+03	1.925548E-15	1.223509E-17
6.930000E+03	1.917370E-15	1.223978E-17
6.940000E+03	1.910292E-15	1.224128E-17
6.950000E+03	1.904349E-15	1.223749E-17
6.960000E+03	1.899489E-15	1.222666E-17
6.970000E+03	1.895680E-15	1.220825E-17
6.980000E+03	1.892915E-15	1.218296E-17
6.990000E+03	1.891099E-15	1.215201E-17
7.000000E+03	1.890220E-15	1.211805E-17
7.010000E+03	1.890235E-15	1.208429E-17
7.020000E+03	1.891098E-15	1.205433E-17
7.030000E+03	1.892760E-15	1.203174E-17
7.040000E+03	1.895140E-15	1.201947E-17
7.050000E+03	1.898235E-15	1.202023E-17
7.060000E+03	1.901923E-15	1.203499E-17
7.070000E+03	1.906159E-15	1.206435E-17
7.080000E+03	1.910836E-15	1.210788E-17
7.090000E+03	1.915895E-15	1.216529E-17
7.100000E+03	1.921218E-15	1.223600E-17
7.110000E+03	1.926740E-15	1.232000E-17
7.120000E+03	1.932365E-15	1.241717E-17
7.130000E+03	1.937942E-15	1.252672E-17
7.140000E+03	1.943471E-15	1.264809E-17
7.150000E+03	1.948780E-15	1.277852E-17
7.160000E+03	1.953861E-15	1.291517E-17
7.170000E+03	1.958592E-15	1.305366E-17
7.180000E+03	1.962985E-15	1.319029E-17
7.190000E+03	1.966970E-15	1.332124E-17
7.200000E+03	1.970517E-15	1.344399E-17
7.210000E+03	1.973635E-15	1.355762E-17
7.220000E+03	1.976244E-15	1.366203E-17
7.230000E+03	1.978367E-15	1.375897E-17
7.240000E+03	1.979968E-15	1.385053E-17
7.250000E+03	1.981114E-15	1.393962E-17
7.260000E+03	1.981752E-15	1.402776E-17
7.270000E+03	1.981964E-15	1.411632E-17
7.280000E+03	1.981682E-15	1.420423E-17
7.290000E+03	1.981037E-15	1.429049E-17
7.300000E+03	1.980005E-15	1.437192E-17
7.310000E+03	1.978665E-15	1.444551E-17
7.320000E+03	1.977033E-15	1.450767E-17
7.330000E+03	1.975194E-15	1.455566E-17
7.340000E+03	1.973166E-15	1.458688E-17
7.350000E+03	1.971033E-15	1.460004E-17
7.360000E+03	1.968843E-15	1.459445E-17
7.370000E+03	1.966577E-15	1.456970E-17
7.380000E+03	1.964377E-15	1.452719E-17
7.390000E+03	1.962184E-15	1.446727E-17
7.400000E+03	1.960132E-15	1.439192E-17
7.410000E+03	1.958183E-15	1.430199E-17
7.420000E+03	1.956396E-15	1.419913E-17
7.430000E+03	1.954756E-15	1.408463E-17
7.440000E+03	1.953346E-15	1.396088E-17
7.450000E+03	1.952109E-15	1.382995E-17
7.460000E+03	1.951053E-15	1.369538E-17
7.470000E+03	1.950221E-15	1.356220E-17
7.480000E+03	1.949585E-15	1.343643E-17
7.490000E+03	1.949186E-15	1.332592E-17
7.500000E+03	1.948968E-15	1.323884E-17
7.510000E+03	1.949008E-15	1.318449E-17
7.520000E+03	1.949251E-15	1.317039E-17
7.530000E+03	1.949746E-15	1.320257E-17
7.540000E+03	1.950504E-15	1.328352E-17
7.550000E+03	1.951538E-15	1.341186E-17
7.560000E+03	1.952861E-15	1.358232E-17
7.570000E+03	1.954445E-15	1.378632E-17
7.580000E+03	1.956331E-15	1.401373E-17
7.590000E+03	1.958525E-15	1.425341E-17
7.600000E+03	1.961029E-15	1.449458E-17
7.610000E+03	1.963844E-15	1.472758E-17
7.620000E+03	1.966936E-15	1.494417E-17
7.630000E+03	1.970341E-15	1.513850E-17
7.640000E+03	1.974063E-15	1.530627E-17
7.650000E+03	1.978069E-15	1.544444E-17
7.660000E+03	1.982438E-15	1.555199E-17
7.670000E+03	1.987103E-15	1.562764E-17
7.680000E+03	1.992110E-15	1.567148E-17
7.690000E+03	1.997428E-15	1.568339E-17
7.700000E+03	2.003132E-15	1.566441E-17
7.710000E+03	2.009148E-15	1.561488E-17
7.720000E+03	2.015501E-15	1.553662E-17
7.730000E+03	2.022173E-15	1.543205E-17
7.740000E+03	2.029100E-15	1.530446E-17
7.750000E+03	2.036278E-15	1.515901E-17
7.760000E+03	2.043660E-15	1.500193E-17
