#wls	flux	fluxerr
1.600000E+03	1.758490E-16	5.305642E-17
1.640000E+03	1.771192E-16	5.280038E-17
1.680000E+03	1.784331E-16	5.252938E-17
1.720000E+03	1.798186E-16	5.225032E-17
1.760000E+03	1.812742E-16	5.196113E-17
1.800000E+03	1.828280E-16	5.166811E-17
1.840000E+03	1.844781E-16	5.136874E-17
1.880000E+03	1.862224E-16	5.106037E-17
1.920000E+03	1.881488E-16	5.076464E-17
1.960000E+03	1.902552E-16	5.047762E-17
2.000000E+03	1.925390E-16	5.019520E-17
2.040000E+03	1.950575E-16	4.992860E-17
2.080000E+03	1.978378E-16	4.968011E-17
2.120000E+03	2.009670E-16	4.946617E-17
2.160000E+03	2.044100E-16	4.927186E-17
2.200000E+03	2.082831E-16	4.911837E-17
2.240000E+03	2.125492E-16	4.898895E-17
2.280000E+03	2.172004E-16	4.887392E-17
2.320000E+03	2.222577E-16	4.876991E-17
2.360000E+03	2.276496E-16	4.865304E-17
2.400000E+03	2.333939E-16	4.851952E-17
2.440000E+03	2.394766E-16	4.835852E-17
2.480000E+03	2.458514E-16	4.815316E-17
2.520000E+03	2.525007E-16	4.789304E-17
2.560000E+03	2.594050E-16	4.756783E-17
2.600000E+03	2.665727E-16	4.717271E-17
2.640000E+03	2.739202E-16	4.668704E-17
2.680000E+03	2.814816E-16	4.611186E-17
2.720000E+03	2.892283E-16	4.543771E-17
2.760000E+03	2.971591E-16	4.466033E-17
2.800000E+03	3.052984E-16	4.377965E-17
2.840000E+03	3.136087E-16	4.278696E-17
2.880000E+03	3.220208E-16	4.167120E-17
2.920000E+03	3.303782E-16	4.041339E-17
2.960000E+03	3.386953E-16	3.901973E-17
3.000000E+03	3.468705E-16	3.748470E-17
3.010000E+03	3.488650E-16	3.707701E-17
3.020000E+03	3.508801E-16	3.666437E-17
3.030000E+03	3.528871E-16	3.624385E-17
3.040000E+03	3.548851E-16	3.581553E-17
3.050000E+03	3.568734E-16	3.537952E-17
3.060000E+03	3.588512E-16	3.493593E-17
3.070000E+03	3.608175E-16	3.448487E-17
3.080000E+03	3.627716E-16	3.402651E-17
3.090000E+03	3.647397E-16	3.356348E-17
3.100000E+03	3.666937E-16	3.309334E-17
3.110000E+03	3.686327E-16	3.261629E-17
3.120000E+03	3.705827E-16	3.213484E-17
3.130000E+03	3.725157E-16	3.164679E-17
3.140000E+03	3.744576E-16	3.115458E-17
3.150000E+03	3.764070E-16	3.065830E-17
3.160000E+03	3.783364E-16	3.015596E-17
3.170000E+03	3.802712E-16	2.964991E-17
3.180000E+03	3.822363E-16	2.914229E-17
3.190000E+03	3.841780E-16	2.862924E-17
3.200000E+03	3.861473E-16	2.811490E-17
3.210000E+03	3.880908E-16	2.759566E-17
3.220000E+03	3.900850E-16	2.707729E-17
3.230000E+03	3.920764E-16	2.655630E-17
3.240000E+03	3.940638E-16	2.603300E-17
3.250000E+03	3.960968E-16	2.551101E-17
3.260000E+03	3.981225E-16	2.498722E-17
3.270000E+03	4.001902E-16	2.446514E-17
3.280000E+03	4.022726E-16	2.394341E-17
3.290000E+03	4.043930E-16	2.342383E-17
3.300000E+03	4.065243E-16	2.290523E-17
3.310000E+03	4.086895E-16	2.238940E-17
3.320000E+03	4.109112E-16	2.187798E-17
3.330000E+03	4.131622E-16	2.136994E-17
3.340000E+03	4.154647E-16	2.086694E-17
3.350000E+03	4.178162E-16	2.036932E-17
3.360000E+03	4.202140E-16	1.987749E-17
3.370000E+03	4.226795E-16	1.939299E-17
3.380000E+03	4.252097E-16	1.891621E-17
3.390000E+03	4.278016E-16	1.844755E-17
3.400000E+03	4.304756E-16	1.798848E-17
3.410000E+03	4.332284E-16	1.753938E-17
3.420000E+03	4.361031E-16	1.710250E-17
3.430000E+03	4.390492E-16	1.667633E-17
3.440000E+03	4.421093E-16	1.626304E-17
3.450000E+03	4.453023E-16	1.586378E-17
3.460000E+03	4.486238E-16	1.547877E-17
3.470000E+03	4.520920E-16	1.510908E-17
3.480000E+03	4.557248E-16	1.475563E-17
3.490000E+03	4.594952E-16	1.441792E-17
3.500000E+03	4.634876E-16	1.409892E-17
3.510000E+03	4.676524E-16	1.379731E-17
3.520000E+03	4.720288E-16	1.351454E-17
3.530000E+03	4.766117E-16	1.325063E-17
3.540000E+03	4.814394E-16	1.300682E-17
3.550000E+03	4.864849E-16	1.278248E-17
3.560000E+03	4.917437E-16	1.257758E-17
3.570000E+03	4.971903E-16	1.239157E-17
3.580000E+03	5.028418E-16	1.222493E-17
3.590000E+03	5.086528E-16	1.207654E-17
3.600000E+03	5.146414E-16	1.194677E-17
3.610000E+03	5.207842E-16	1.183489E-17
3.620000E+03	5.270792E-16	1.174063E-17
3.630000E+03	5.334844E-16	1.166270E-17
3.640000E+03	5.400395E-16	1.160154E-17
3.650000E+03	5.466840E-16	1.155532E-17
3.660000E+03	5.534387E-16	1.152386E-17
3.670000E+03	5.602851E-16	1.150610E-17
3.680000E+03	5.672253E-16	1.150132E-17
3.690000E+03	5.742231E-16	1.150796E-17
3.700000E+03	5.813207E-16	1.152599E-17
3.710000E+03	5.884831E-16	1.155378E-17
3.720000E+03	5.957146E-16	1.159045E-17
3.730000E+03	6.030007E-16	1.163467E-17
3.740000E+03	6.103460E-16	1.168551E-17
3.750000E+03	6.177367E-16	1.174159E-17
3.760000E+03	6.251959E-16	1.180228E-17
3.770000E+03	6.326914E-16	1.186587E-17
3.780000E+03	6.402280E-16	1.193139E-17
3.790000E+03	6.478103E-16	1.199790E-17
3.800000E+03	6.554427E-16	1.206450E-17
3.810000E+03	6.630938E-16	1.212974E-17
3.820000E+03	6.708036E-16	1.219353E-17
3.830000E+03	6.785232E-16	1.225428E-17
3.840000E+03	6.862745E-16	1.231178E-17
3.850000E+03	6.940441E-16	1.236530E-17
3.860000E+03	7.018357E-16	1.241451E-17
3.870000E+03	7.096529E-16	1.245920E-17
3.880000E+03	7.174818E-16	1.249894E-17
3.890000E+03	7.253087E-16	1.253343E-17
3.900000E+03	7.331532E-16	1.256303E-17
3.910000E+03	7.410010E-16	1.258760E-17
3.920000E+03	7.488375E-16	1.260712E-17
3.930000E+03	7.566646E-16	1.262189E-17
3.940000E+03	7.644838E-16	1.263232E-17
3.950000E+03	7.722799E-16	1.263858E-17
3.960000E+03	7.800373E-16	1.264096E-17
3.970000E+03	7.877731E-16	1.264033E-17
3.980000E+03	7.954714E-16	1.263707E-17
3.990000E+03	8.031325E-16	1.263190E-17
4.000000E+03	8.107403E-16	1.262532E-17
4.010000E+03	8.182791E-16	1.261788E-17
4.020000E+03	8.257489E-16	1.261035E-17
4.030000E+03	8.331661E-16	1.260374E-17
4.040000E+03	8.404989E-16	1.259829E-17
4.050000E+03	8.477322E-16	1.259444E-17
4.060000E+03	8.548981E-16	1.259325E-17
4.070000E+03	8.619660E-16	1.259474E-17
4.080000E+03	8.689217E-16	1.259907E-17
4.090000E+03	8.757828E-16	1.260675E-17
4.100000E+03	8.825365E-16	1.261770E-17
4.110000E+03	8.891866E-16	1.263199E-17
4.120000E+03	8.957380E-16	1.264954E-17
4.130000E+03	9.021661E-16	1.266981E-17
4.140000E+03	9.084942E-16	1.269280E-17
4.150000E+03	9.147310E-16	1.271826E-17
4.160000E+03	9.208717E-16	1.274569E-17
4.170000E+03	9.269126E-16	1.277457E-17
4.180000E+03	9.328958E-16	1.280501E-17
4.190000E+03	9.388037E-16	1.283633E-17
4.200000E+03	9.446636E-16	1.286851E-17
4.210000E+03	9.504721E-16	1.290119E-17
4.220000E+03	9.562552E-16	1.293453E-17
4.230000E+03	9.619921E-16	1.296816E-17
4.240000E+03	9.677355E-16	1.300284E-17
4.250000E+03	9.734611E-16	1.303837E-17
4.260000E+03	9.791871E-16	1.307524E-17
4.270000E+03	9.848994E-16	1.311355E-17
4.280000E+03	9.906409E-16	1.315419E-17
4.290000E+03	9.963776E-16	1.319706E-17
4.300000E+03	1.002133E-15	1.324278E-17
4.310000E+03	1.007897E-15	1.329154E-17
4.320000E+03	1.013691E-15	1.334385E-17
4.330000E+03	1.019473E-15	1.339938E-17
4.340000E+03	1.025290E-15	1.345895E-17
4.350000E+03	1.031129E-15	1.352251E-17
4.360000E+03	1.036978E-15	1.359000E-17
4.370000E+03	1.042870E-15	1.366187E-17
4.380000E+03	1.048807E-15	1.373811E-17
4.390000E+03	1.054782E-15	1.381844E-17
4.400000E+03	1.060829E-15	1.390306E-17
4.410000E+03	1.066942E-15	1.399148E-17
4.420000E+03	1.073131E-15	1.408333E-17
4.430000E+03	1.079438E-15	1.417852E-17
4.440000E+03	1.085844E-15	1.427610E-17
4.450000E+03	1.092365E-15	1.437545E-17
4.460000E+03	1.098986E-15	1.447549E-17
4.470000E+03	1.105693E-15	1.457508E-17
4.480000E+03	1.112474E-15	1.467303E-17
4.490000E+03	1.119318E-15	1.476807E-17
4.500000E+03	1.126215E-15	1.485890E-17
4.510000E+03	1.133157E-15	1.494416E-17
4.520000E+03	1.140136E-15	1.502248E-17
4.530000E+03	1.147132E-15	1.509228E-17
4.540000E+03	1.154141E-15	1.515220E-17
4.550000E+03	1.161175E-15	1.520117E-17
4.560000E+03	1.168219E-15	1.523785E-17
4.570000E+03	1.175287E-15	1.526144E-17
4.580000E+03	1.182381E-15	1.527116E-17
4.590000E+03	1.189488E-15	1.526630E-17
4.600000E+03	1.196641E-15	1.524699E-17
4.610000E+03	1.203814E-15	1.521293E-17
4.620000E+03	1.211052E-15	1.516506E-17
4.630000E+03	1.218330E-15	1.510371E-17
4.640000E+03	1.225662E-15	1.503008E-17
4.650000E+03	1.233076E-15	1.494580E-17
4.660000E+03	1.240554E-15	1.485221E-17
4.670000E+03	1.248118E-15	1.475133E-17
4.680000E+03	1.255772E-15	1.464513E-17
4.690000E+03	1.263501E-15	1.453543E-17
4.700000E+03	1.271312E-15	1.442440E-17
4.710000E+03	1.279212E-15	1.431414E-17
4.720000E+03	1.287182E-15	1.420651E-17
4.730000E+03	1.295202E-15	1.410325E-17
4.740000E+03	1.303289E-15	1.400648E-17
4.750000E+03	1.311413E-15	1.391770E-17
4.760000E+03	1.319569E-15	1.383858E-17
4.770000E+03	1.327735E-15	1.377047E-17
4.780000E+03	1.335889E-15	1.371452E-17
4.790000E+03	1.344024E-15	1.367176E-17
4.800000E+03	1.352091E-15	1.364249E-17
4.810000E+03	1.360030E-15	1.362651E-17
4.820000E+03	1.367814E-15	1.362357E-17
4.830000E+03	1.375425E-15	1.363308E-17
4.840000E+03	1.382819E-15	1.365378E-17
4.850000E+03	1.389993E-15	1.368443E-17
4.860000E+03	1.396948E-15	1.372356E-17
4.870000E+03	1.403680E-15	1.376935E-17
4.880000E+03	1.410206E-15	1.382009E-17
4.890000E+03	1.416548E-15	1.387410E-17
4.900000E+03	1.422733E-15	1.392978E-17
4.910000E+03	1.428775E-15	1.398561E-17
4.920000E+03	1.434738E-15	1.404075E-17
4.930000E+03	1.440622E-15	1.409404E-17
4.940000E+03	1.446488E-15	1.414522E-17
4.950000E+03	1.452335E-15	1.419369E-17
4.960000E+03	1.458218E-15	1.423966E-17
4.970000E+03	1.464146E-15	1.428309E-17
4.980000E+03	1.470134E-15	1.432420E-17
4.990000E+03	1.476211E-15	1.436342E-17
5.000000E+03	1.482386E-15	1.440108E-17
5.010000E+03	1.488661E-15	1.443746E-17
5.020000E+03	1.495017E-15	1.447265E-17
5.030000E+03	1.501479E-15	1.450709E-17
5.040000E+03	1.508002E-15	1.454055E-17
5.050000E+03	1.514599E-15	1.457325E-17
5.060000E+03	1.521250E-15	1.460507E-17
5.070000E+03	1.527912E-15	1.463561E-17
5.080000E+03	1.534573E-15	1.466476E-17
5.090000E+03	1.541203E-15	1.469219E-17
5.100000E+03	1.547770E-15	1.471763E-17
5.110000E+03	1.554239E-15	1.474079E-17
5.120000E+03	1.560561E-15	1.476131E-17
5.130000E+03	1.566750E-15	1.477946E-17
5.140000E+03	1.572723E-15	1.479467E-17
5.150000E+03	1.578479E-15	1.480715E-17
5.160000E+03	1.583970E-15	1.481669E-17
5.170000E+03	1.589183E-15	1.482336E-17
5.180000E+03	1.594071E-15	1.482693E-17
5.190000E+03	1.598626E-15	1.482742E-17
5.200000E+03	1.602809E-15	1.482450E-17
5.210000E+03	1.606617E-15	1.481806E-17
5.220000E+03	1.610035E-15	1.480779E-17
5.230000E+03	1.613035E-15	1.479314E-17
5.240000E+03	1.615626E-15	1.477380E-17
5.250000E+03	1.617807E-15	1.474927E-17
5.260000E+03	1.619562E-15	1.471889E-17
5.270000E+03	1.620913E-15	1.468233E-17
5.280000E+03	1.621869E-15	1.463921E-17
5.290000E+03	1.622442E-15	1.458927E-17
5.300000E+03	1.622628E-15	1.453229E-17
5.310000E+03	1.622443E-15	1.446833E-17
5.320000E+03	1.621923E-15	1.439777E-17
5.330000E+03	1.621069E-15	1.432078E-17
5.340000E+03	1.619918E-15	1.423786E-17
5.350000E+03	1.618475E-15	1.414920E-17
5.360000E+03	1.616777E-15	1.405523E-17
5.370000E+03	1.614831E-15	1.395599E-17
5.380000E+03	1.612643E-15	1.385141E-17
5.390000E+03	1.610269E-15	1.374176E-17
5.400000E+03	1.607716E-15	1.362682E-17
5.410000E+03	1.604993E-15	1.350643E-17
5.420000E+03	1.602157E-15	1.338090E-17
5.430000E+03	1.599200E-15	1.325022E-17
5.440000E+03	1.596164E-15	1.311503E-17
5.450000E+03	1.593062E-15	1.297605E-17
5.460000E+03	1.589935E-15	1.283459E-17
5.470000E+03	1.586797E-15	1.269208E-17
5.480000E+03	1.583695E-15	1.255044E-17
5.490000E+03	1.580643E-15	1.241158E-17
5.500000E+03	1.577676E-15	1.227761E-17
5.510000E+03	1.574844E-15	1.215073E-17
5.520000E+03	1.572185E-15	1.203288E-17
5.530000E+03	1.569705E-15	1.192549E-17
5.540000E+03	1.567491E-15	1.183026E-17
5.550000E+03	1.565567E-15	1.174803E-17
5.560000E+03	1.563957E-15	1.167930E-17
5.570000E+03	1.562730E-15	1.162454E-17
5.580000E+03	1.561890E-15	1.158341E-17
5.590000E+03	1.561517E-15	1.155582E-17
5.600000E+03	1.561611E-15	1.154076E-17
5.610000E+03	1.562217E-15	1.153729E-17
5.620000E+03	1.563362E-15	1.154401E-17
5.630000E+03	1.565071E-15	1.155935E-17
5.640000E+03	1.567369E-15	1.158153E-17
5.650000E+03	1.570281E-15	1.160877E-17
5.660000E+03	1.573848E-15	1.163948E-17
5.670000E+03	1.578079E-15	1.167210E-17
5.680000E+03	1.583030E-15	1.170577E-17
5.690000E+03	1.588674E-15	1.173956E-17
5.700000E+03	1.595078E-15	1.177374E-17
5.710000E+03	1.602242E-15	1.180868E-17
5.720000E+03	1.610154E-15	1.184520E-17
5.730000E+03	1.618845E-15	1.188487E-17
5.740000E+03	1.628267E-15	1.192899E-17
5.750000E+03	1.638425E-15	1.197941E-17
5.760000E+03	1.649257E-15	1.203752E-17
5.770000E+03	1.660699E-15	1.210457E-17
5.780000E+03	1.672670E-15	1.218143E-17
5.790000E+03	1.685071E-15	1.226847E-17
5.800000E+03	1.697799E-15	1.236558E-17
5.810000E+03	1.710704E-15	1.247180E-17
5.820000E+03	1.723640E-15	1.258565E-17
5.830000E+03	1.736452E-15	1.270506E-17
5.840000E+03	1.748983E-15	1.282735E-17
5.850000E+03	1.761077E-15	1.294936E-17
5.860000E+03	1.772583E-15	1.306742E-17
5.870000E+03	1.783366E-15	1.317746E-17
5.880000E+03	1.793302E-15	1.327511E-17
5.890000E+03	1.802268E-15	1.335569E-17
5.900000E+03	1.810198E-15	1.341490E-17
5.910000E+03	1.817025E-15	1.344865E-17
5.920000E+03	1.822663E-15	1.345323E-17
5.930000E+03	1.827117E-15	1.342650E-17
5.940000E+03	1.830352E-15	1.336717E-17
5.950000E+03	1.832345E-15	1.327551E-17
5.960000E+03	1.833123E-15	1.315367E-17
5.970000E+03	1.832686E-15	1.300510E-17
5.980000E+03	1.831080E-15	1.283489E-17
5.990000E+03	1.828308E-15	1.264876E-17
6.000000E+03	1.824435E-15	1.245329E-17
6.010000E+03	1.819520E-15	1.225491E-17
6.020000E+03	1.813632E-15	1.205945E-17
6.030000E+03	1.806810E-15	1.187154E-17
6.040000E+03	1.799179E-15	1.169498E-17
6.050000E+03	1.790796E-15	1.153162E-17
6.060000E+03	1.781799E-15	1.138232E-17
6.070000E+03	1.772256E-15	1.124605E-17
6.080000E+03	1.762307E-15	1.112103E-17
6.090000E+03	1.752023E-15	1.100406E-17
6.100000E+03	1.741525E-15	1.089167E-17
6.110000E+03	1.730931E-15	1.078019E-17
6.120000E+03	1.720338E-15	1.066603E-17
6.130000E+03	1.709843E-15	1.054625E-17
6.140000E+03	1.699543E-15	1.041889E-17
6.150000E+03	1.689554E-15	1.028333E-17
6.160000E+03	1.679996E-15	1.014030E-17
6.170000E+03	1.670996E-15	9.991889E-18
6.180000E+03	1.662666E-15	9.841356E-18
6.190000E+03	1.655145E-15	9.693139E-18
6.200000E+03	1.648542E-15	9.552277E-18
6.210000E+03	1.643001E-15	9.424495E-18
6.220000E+03	1.638619E-15	9.315339E-18
6.230000E+03	1.635522E-15	9.230317E-18
6.240000E+03	1.633814E-15	9.174240E-18
6.250000E+03	1.633608E-15	9.151098E-18
6.260000E+03	1.634987E-15	9.163591E-18
6.270000E+03	1.638062E-15	9.213235E-18
6.280000E+03	1.642893E-15	9.299879E-18
6.290000E+03	1.649535E-15	9.421949E-18
6.300000E+03	1.658070E-15	9.576838E-18
6.310000E+03	1.668536E-15	9.760800E-18
6.320000E+03	1.681008E-15	9.969740E-18
6.330000E+03	1.695520E-15	1.019919E-17
6.340000E+03	1.712103E-15	1.044484E-17
6.350000E+03	1.730840E-15	1.070322E-17
6.360000E+03	1.751732E-15	1.097098E-17
6.370000E+03	1.774810E-15	1.124562E-17
6.380000E+03	1.800089E-15	1.152524E-17
6.390000E+03	1.827566E-15	1.180840E-17
6.400000E+03	1.857213E-15	1.209396E-17
6.410000E+03	1.888952E-15	1.238078E-17
6.420000E+03	1.922689E-15	1.266784E-17
6.430000E+03	1.958293E-15	1.295403E-17
6.440000E+03	1.995587E-15	1.323803E-17
6.450000E+03	2.034351E-15	1.351823E-17
6.460000E+03	2.074319E-15	1.379271E-17
6.470000E+03	2.115177E-15	1.405924E-17
6.480000E+03	2.156620E-15	1.431563E-17
6.490000E+03	2.198257E-15	1.455927E-17
6.500000E+03	2.239687E-15	1.478778E-17
6.510000E+03	2.280485E-15	1.499910E-17
6.520000E+03	2.320209E-15	1.519183E-17
6.530000E+03	2.358354E-15	1.536505E-17
6.540000E+03	2.394494E-15	1.551941E-17
6.550000E+03	2.428166E-15	1.565619E-17
6.560000E+03	2.458929E-15	1.577751E-17
6.570000E+03	2.486377E-15	1.588599E-17
6.580000E+03	2.510215E-15	1.598469E-17
6.590000E+03	2.530091E-15	1.607554E-17
6.600000E+03	2.545871E-15	1.616061E-17
6.610000E+03	2.557378E-15	1.624015E-17
6.620000E+03	2.564544E-15	1.631341E-17
6.630000E+03	2.567378E-15	1.637861E-17
6.640000E+03	2.566002E-15	1.643337E-17
6.650000E+03	2.560603E-15	1.647496E-17
6.660000E+03	2.551372E-15	1.650033E-17
6.670000E+03	2.538581E-15	1.650719E-17
6.680000E+03	2.522610E-15	1.649453E-17
6.690000E+03	2.503743E-15	1.646165E-17
6.700000E+03	2.482382E-15	1.640961E-17
6.710000E+03	2.458939E-15	1.634054E-17
6.720000E+03	2.433736E-15	1.625681E-17
6.730000E+03	2.407243E-15	1.616241E-17
6.740000E+03	2.379763E-15	1.606062E-17
6.750000E+03	2.351643E-15	1.595516E-17
6.760000E+03	2.323267E-15	1.584995E-17
6.770000E+03	2.294870E-15	1.574774E-17
6.780000E+03	2.266749E-15	1.565135E-17
6.790000E+03	2.239139E-15	1.556287E-17
6.800000E+03	2.212245E-15	1.548373E-17
6.810000E+03	2.186240E-15	1.541478E-17
6.820000E+03	2.161298E-15	1.535647E-17
6.830000E+03	2.137477E-15	1.530805E-17
6.840000E+03	2.114925E-15	1.526910E-17
6.850000E+03	2.093679E-15	1.523812E-17
6.860000E+03	2.073787E-15	1.521351E-17
6.870000E+03	2.055277E-15	1.519352E-17
6.880000E+03	2.038164E-15	1.517641E-17
6.890000E+03	2.022478E-15	1.516088E-17
6.900000E+03	2.008186E-15	1.514553E-17
6.910000E+03	1.995272E-15	1.512956E-17
6.920000E+03	1.983743E-15	1.511282E-17
6.930000E+03	1.973517E-15	1.509493E-17
6.940000E+03	1.964617E-15	1.507671E-17
6.950000E+03	1.956977E-15	1.505868E-17
6.960000E+03	1.950553E-15	1.504187E-17
6.970000E+03	1.945298E-15	1.502753E-17
6.980000E+03	1.941161E-15	1.501713E-17
6.990000E+03	1.938113E-15	1.501244E-17
7.000000E+03	1.936041E-15	1.501465E-17
7.010000E+03	1.934909E-15	1.502543E-17
7.020000E+03	1.934680E-15	1.504626E-17
7.030000E+03	1.935230E-15	1.507764E-17
7.040000E+03	1.936488E-15	1.512005E-17
7.050000E+03	1.938437E-15	1.517400E-17
7.060000E+03	1.940942E-15	1.523871E-17
7.070000E+03	1.943957E-15	1.531371E-17
7.080000E+03	1.947401E-15	1.539805E-17
7.090000E+03	1.951168E-15	1.549042E-17
7.100000E+03	1.955182E-15	1.558965E-17
7.110000E+03	1.959396E-15	1.569482E-17
7.120000E+03	1.963713E-15	1.580454E-17
7.130000E+03	1.968067E-15	1.591770E-17
7.140000E+03	1.972398E-15	1.603318E-17
7.150000E+03	1.976685E-15	1.615012E-17
7.160000E+03	1.980823E-15	1.626691E-17
7.170000E+03	1.984806E-15	1.638266E-17
7.180000E+03	1.988573E-15	1.649606E-17
7.190000E+03	1.992161E-15	1.660663E-17
7.200000E+03	1.995466E-15	1.671284E-17
7.210000E+03	1.998537E-15	1.681463E-17
7.220000E+03	2.001340E-15	1.691148E-17
7.230000E+03	2.003909E-15	1.700362E-17
7.240000E+03	2.006189E-15	1.709074E-17
7.250000E+03	2.008224E-15	1.717342E-17
7.260000E+03	2.009999E-15	1.725180E-17
7.270000E+03	2.011565E-15	1.732648E-17
7.280000E+03	2.012915E-15	1.739746E-17
7.290000E+03	2.014108E-15	1.746512E-17
7.300000E+03	2.015110E-15	1.752894E-17
7.310000E+03	2.015981E-15	1.758910E-17
7.320000E+03	2.016754E-15	1.764553E-17
7.330000E+03	2.017428E-15	1.769791E-17
7.340000E+03	2.018034E-15	1.774634E-17
7.350000E+03	2.018633E-15	1.779138E-17
7.360000E+03	2.019192E-15	1.783296E-17
7.370000E+03	2.019769E-15	1.787206E-17
7.380000E+03	2.020360E-15	1.790931E-17
7.390000E+03	2.021019E-15	1.794609E-17
7.400000E+03	2.021706E-15	1.798304E-17
7.410000E+03	2.022470E-15	1.802176E-17
7.420000E+03	2.023298E-15	1.806331E-17
7.430000E+03	2.024203E-15	1.810911E-17
7.440000E+03	2.025199E-15	1.816058E-17
7.450000E+03	2.026329E-15	1.821945E-17
7.460000E+03	2.027538E-15	1.828664E-17
7.470000E+03	2.028932E-15	1.836447E-17
7.480000E+03	2.030456E-15	1.845374E-17
7.490000E+03	2.032151E-15	1.855595E-17
7.500000E+03	2.034026E-15	1.867199E-17
7.510000E+03	2.036124E-15	1.880258E-17
7.520000E+03	2.038424E-15	1.894722E-17
7.530000E+03	2.040969E-15	1.910530E-17
7.540000E+03	2.043772E-15	1.927511E-17
7.550000E+03	2.046844E-15	1.945420E-17
7.560000E+03	2.050198E-15	1.963948E-17
7.570000E+03	2.053846E-15	1.982739E-17
7.580000E+03	2.057831E-15	2.001441E-17
7.590000E+03	2.062129E-15	2.019639E-17
7.600000E+03	2.066783E-15	2.037003E-17
7.610000E+03	2.071765E-15	2.053187E-17
7.620000E+03	2.077114E-15	2.067970E-17
7.630000E+03	2.082834E-15	2.081173E-17
7.640000E+03	2.088928E-15	2.092697E-17
7.650000E+03	2.095397E-15	2.102520E-17
7.660000E+03	2.102241E-15	2.110688E-17
7.670000E+03	2.109457E-15	2.117305E-17
7.680000E+03	2.117042E-15	2.122518E-17
7.690000E+03	2.125023E-15	2.126536E-17
7.700000E+03	2.133320E-15	2.129480E-17
7.710000E+03	2.141988E-15	2.131623E-17
7.720000E+03	2.150973E-15	2.133140E-17
7.730000E+03	2.160248E-15	2.134254E-17
7.740000E+03	2.169780E-15	2.135201E-17
7.750000E+03	2.179529E-15	2.136232E-17
7.760000E+03	2.189451E-15	2.137611E-17
