#wls	flux	fluxerr
1.600000E+03	6.140057E-17	2.132097E-17
1.640000E+03	6.146350E-17	2.123356E-17
1.680000E+03	6.153649E-17	2.114689E-17
1.720000E+03	6.161894E-17	2.106066E-17
1.760000E+03	6.172111E-17	2.097828E-17
1.800000E+03	6.183141E-17	2.089569E-17
1.840000E+03	6.194920E-17	2.081257E-17
1.880000E+03	6.208453E-17	2.073222E-17
1.920000E+03	6.224729E-17	2.065777E-17
1.960000E+03	6.241514E-17	2.058163E-17
2.000000E+03	6.260857E-17	2.051045E-17
2.040000E+03	6.281594E-17	2.044023E-17
2.080000E+03	6.305732E-17	2.037731E-17
2.120000E+03	6.331046E-17	2.031428E-17
2.160000E+03	6.359517E-17	2.025731E-17
2.200000E+03	6.391003E-17	2.020567E-17
2.240000E+03	6.425358E-17	2.015863E-17
2.280000E+03	6.462434E-17	2.011544E-17
2.320000E+03	6.503091E-17	2.007848E-17
2.360000E+03	6.548158E-17	2.004995E-17
2.400000E+03	6.596427E-17	2.002574E-17
2.440000E+03	6.649698E-17	2.001093E-17
2.480000E+03	6.706744E-17	2.000135E-17
2.520000E+03	6.769299E-17	2.000170E-17
2.560000E+03	6.836118E-17	2.000775E-17
2.600000E+03	6.909829E-17	2.002662E-17
2.640000E+03	6.989142E-17	2.005386E-17
2.680000E+03	7.074682E-17	2.009060E-17
2.720000E+03	7.167971E-17	2.014036E-17
2.760000E+03	7.267670E-17	2.019852E-17
2.800000E+03	7.376144E-17	2.027076E-17
2.840000E+03	7.492916E-17	2.035472E-17
2.880000E+03	7.619299E-17	2.045285E-17
2.920000E+03	7.754748E-17	2.056248E-17
2.960000E+03	7.901352E-17	2.068784E-17
3.000000E+03	8.059340E-17	2.082805E-17
3.010000E+03	8.100294E-17	2.086441E-17
3.020000E+03	8.142501E-17	2.090297E-17
3.030000E+03	8.185947E-17	2.094365E-17
3.040000E+03	8.228900E-17	2.098201E-17
3.050000E+03	8.273924E-17	2.102456E-17
3.060000E+03	8.319292E-17	2.106686E-17
3.070000E+03	8.364996E-17	2.110888E-17
3.080000E+03	8.412722E-17	2.115484E-17
3.090000E+03	8.460757E-17	2.120039E-17
3.100000E+03	8.509093E-17	2.124549E-17
3.110000E+03	8.558562E-17	2.129220E-17
3.120000E+03	8.609986E-17	2.134250E-17
3.130000E+03	8.660838E-17	2.139011E-17
3.140000E+03	8.713612E-17	2.144117E-17
3.150000E+03	8.767457E-17	2.149352E-17
3.160000E+03	8.821531E-17	2.154507E-17
3.170000E+03	8.877473E-17	2.159979E-17
3.180000E+03	8.933619E-17	2.165359E-17
3.190000E+03	8.991597E-17	2.171038E-17
3.200000E+03	9.049752E-17	2.176613E-17
3.210000E+03	9.109704E-17	2.182468E-17
3.220000E+03	9.170619E-17	2.188401E-17
3.230000E+03	9.232482E-17	2.194402E-17
3.240000E+03	9.295278E-17	2.200465E-17
3.250000E+03	9.359794E-17	2.206771E-17
3.260000E+03	9.424409E-17	2.212934E-17
3.270000E+03	9.491504E-17	2.219509E-17
3.280000E+03	9.558670E-17	2.225926E-17
3.290000E+03	9.628271E-17	2.232732E-17
3.300000E+03	9.697913E-17	2.239366E-17
3.310000E+03	9.769945E-17	2.246367E-17
3.320000E+03	9.842774E-17	2.253361E-17
3.330000E+03	9.916383E-17	2.260341E-17
3.340000E+03	9.991538E-17	2.267477E-17
3.350000E+03	1.006899E-16	2.274932E-17
3.360000E+03	1.014639E-16	2.282170E-17
3.370000E+03	1.022605E-16	2.289707E-17
3.380000E+03	1.030717E-16	2.297355E-17
3.390000E+03	1.038972E-16	2.305104E-17
3.400000E+03	1.047370E-16	2.312944E-17
3.410000E+03	1.055907E-16	2.320864E-17
3.420000E+03	1.064581E-16	2.328853E-17
3.430000E+03	1.073391E-16	2.336902E-17
3.440000E+03	1.082410E-16	2.345161E-17
3.450000E+03	1.091559E-16	2.353456E-17
3.460000E+03	1.100913E-16	2.361936E-17
3.470000E+03	1.110393E-16	2.370429E-17
3.480000E+03	1.119998E-16	2.378925E-17
3.490000E+03	1.129800E-16	2.387570E-17
3.500000E+03	1.139795E-16	2.396349E-17
3.510000E+03	1.149983E-16	2.405248E-17
3.520000E+03	1.160286E-16	2.414104E-17
3.530000E+03	1.170849E-16	2.423205E-17
3.540000E+03	1.181523E-16	2.432239E-17
3.550000E+03	1.192380E-16	2.441342E-17
3.560000E+03	1.203488E-16	2.450647E-17
3.570000E+03	1.214702E-16	2.459849E-17
3.580000E+03	1.226162E-16	2.469224E-17
3.590000E+03	1.237794E-16	2.478614E-17
3.600000E+03	1.249668E-16	2.488147E-17
3.610000E+03	1.261709E-16	2.497667E-17
3.620000E+03	1.273985E-16	2.507300E-17
3.630000E+03	1.286425E-16	2.516893E-17
3.640000E+03	1.299026E-16	2.526434E-17
3.650000E+03	1.311924E-16	2.536179E-17
3.660000E+03	1.324979E-16	2.545842E-17
3.670000E+03	1.338327E-16	2.555675E-17
3.680000E+03	1.351826E-16	2.565399E-17
3.690000E+03	1.365544E-16	2.575130E-17
3.700000E+03	1.379547E-16	2.584982E-17
3.710000E+03	1.393695E-16	2.594683E-17
3.720000E+03	1.408124E-16	2.604471E-17
3.730000E+03	1.422762E-16	2.614206E-17
3.740000E+03	1.437674E-16	2.623994E-17
3.750000E+03	1.452792E-16	2.633697E-17
3.760000E+03	1.468114E-16	2.643302E-17
3.770000E+03	1.483704E-16	2.652911E-17
3.780000E+03	1.499560E-16	2.662509E-17
3.790000E+03	1.515614E-16	2.671961E-17
3.800000E+03	1.531996E-16	2.681485E-17
3.810000E+03	1.548573E-16	2.690832E-17
3.820000E+03	1.565409E-16	2.700102E-17
3.830000E+03	1.582501E-16	2.709278E-17
3.840000E+03	1.599850E-16	2.718345E-17
3.850000E+03	1.617452E-16	2.727286E-17
3.860000E+03	1.635308E-16	2.736085E-17
3.870000E+03	1.653416E-16	2.744728E-17
3.880000E+03	1.671775E-16	2.753198E-17
3.890000E+03	1.690448E-16	2.761585E-17
3.900000E+03	1.709307E-16	2.769664E-17
3.910000E+03	1.728478E-16	2.777628E-17
3.920000E+03	1.747961E-16	2.785457E-17
3.930000E+03	1.767630E-16	2.792938E-17
3.940000E+03	1.787610E-16	2.800253E-17
3.950000E+03	1.807839E-16	2.807290E-17
3.960000E+03	1.828378E-16	2.814130E-17
3.970000E+03	1.849107E-16	2.820569E-17
3.980000E+03	1.870208E-16	2.826874E-17
3.990000E+03	1.891501E-16	2.832751E-17
4.000000E+03	1.913047E-16	2.838281E-17
4.010000E+03	1.934908E-16	2.843540E-17
4.020000E+03	1.957026E-16	2.848425E-17
4.030000E+03	1.979403E-16	2.852924E-17
4.040000E+03	2.002040E-16	2.857023E-17
4.050000E+03	2.024942E-16	2.860711E-17
4.060000E+03	2.048051E-16	2.863893E-17
4.070000E+03	2.071490E-16	2.866726E-17
4.080000E+03	2.095142E-16	2.869031E-17
4.090000E+03	2.119073E-16	2.870880E-17
4.100000E+03	2.143226E-16	2.872185E-17
4.110000E+03	2.167608E-16	2.872935E-17
4.120000E+03	2.192281E-16	2.873202E-17
4.130000E+03	2.217134E-16	2.872821E-17
4.140000E+03	2.242232E-16	2.871864E-17
4.150000E+03	2.267581E-16	2.870322E-17
4.160000E+03	2.293187E-16	2.868189E-17
4.170000E+03	2.318942E-16	2.865312E-17
4.180000E+03	2.344970E-16	2.861833E-17
4.190000E+03	2.371163E-16	2.857605E-17
4.200000E+03	2.397588E-16	2.852694E-17
4.210000E+03	2.424196E-16	2.847029E-17
4.220000E+03	2.450997E-16	2.840608E-17
4.230000E+03	2.478001E-16	2.833429E-17
4.240000E+03	2.505218E-16	2.825491E-17
4.250000E+03	2.532547E-16	2.816666E-17
4.260000E+03	2.560056E-16	2.807019E-17
4.270000E+03	2.587756E-16	2.796551E-17
4.280000E+03	2.615604E-16	2.785202E-17
4.290000E+03	2.643557E-16	2.772916E-17
4.300000E+03	2.671741E-16	2.759816E-17
4.310000E+03	2.700002E-16	2.745729E-17
4.320000E+03	2.728410E-16	2.730720E-17
4.330000E+03	2.756925E-16	2.714738E-17
4.340000E+03	2.785619E-16	2.697844E-17
4.350000E+03	2.814395E-16	2.679936E-17
4.360000E+03	2.843327E-16	2.661076E-17
4.370000E+03	2.872319E-16	2.641166E-17
4.380000E+03	2.901446E-16	2.620269E-17
4.390000E+03	2.930669E-16	2.598341E-17
4.400000E+03	2.960062E-16	2.575442E-17
4.410000E+03	2.989477E-16	2.551435E-17
4.420000E+03	3.019045E-16	2.526428E-17
4.430000E+03	3.048729E-16	2.500384E-17
4.440000E+03	3.078494E-16	2.473269E-17
4.450000E+03	3.108414E-16	2.445137E-17
4.460000E+03	3.138399E-16	2.415914E-17
4.470000E+03	3.168524E-16	2.385655E-17
4.480000E+03	3.198754E-16	2.354331E-17
4.490000E+03	3.229164E-16	2.321993E-17
4.500000E+03	3.259665E-16	2.288575E-17
4.510000E+03	3.290332E-16	2.254129E-17
4.520000E+03	3.321128E-16	2.218631E-17
4.530000E+03	3.352075E-16	2.182094E-17
4.540000E+03	3.383190E-16	2.144534E-17
4.550000E+03	3.414492E-16	2.105966E-17
4.560000E+03	3.445945E-16	2.066371E-17
4.570000E+03	3.477621E-16	2.025801E-17
4.580000E+03	3.509481E-16	1.984242E-17
4.590000E+03	3.541540E-16	1.941714E-17
4.600000E+03	3.573813E-16	1.898242E-17
4.610000E+03	3.606312E-16	1.853850E-17
4.620000E+03	3.639048E-16	1.808569E-17
4.630000E+03	3.671975E-16	1.762405E-17
4.640000E+03	3.705212E-16	1.715451E-17
4.650000E+03	3.738650E-16	1.667700E-17
4.660000E+03	3.772292E-16	1.619209E-17
4.670000E+03	3.806251E-16	1.570090E-17
4.680000E+03	3.840406E-16	1.520373E-17
4.690000E+03	3.874751E-16	1.470153E-17
4.700000E+03	3.909329E-16	1.419562E-17
4.710000E+03	3.944124E-16	1.368735E-17
4.720000E+03	3.979055E-16	1.317815E-17
4.730000E+03	4.014212E-16	1.267037E-17
4.740000E+03	4.049445E-16	1.216600E-17
4.750000E+03	4.084773E-16	1.166811E-17
4.760000E+03	4.120152E-16	1.118015E-17
4.770000E+03	4.155531E-16	1.070629E-17
4.780000E+03	4.190911E-16	1.025161E-17
4.790000E+03	4.226110E-16	9.821652E-18
4.800000E+03	4.261240E-16	9.423595E-18
4.810000E+03	4.296109E-16	9.064819E-18
4.820000E+03	4.330643E-16	8.753743E-18
4.830000E+03	4.364889E-16	8.499438E-18
4.840000E+03	4.398716E-16	8.310471E-18
4.850000E+03	4.432062E-16	8.194668E-18
4.860000E+03	4.464877E-16	8.158144E-18
4.870000E+03	4.497250E-16	8.204774E-18
4.880000E+03	4.529044E-16	8.335060E-18
4.890000E+03	4.560329E-16	8.546899E-18
4.900000E+03	4.591130E-16	8.835559E-18
4.910000E+03	4.621554E-16	9.194620E-18
4.920000E+03	4.651658E-16	9.616545E-18
4.930000E+03	4.681442E-16	1.009337E-17
4.940000E+03	4.711104E-16	1.061778E-17
4.950000E+03	4.740591E-16	1.118246E-17
4.960000E+03	4.770103E-16	1.178145E-17
4.970000E+03	4.799712E-16	1.240926E-17
4.980000E+03	4.829490E-16	1.306118E-17
4.990000E+03	4.859440E-16	1.373303E-17
5.000000E+03	4.889754E-16	1.442175E-17
5.010000E+03	4.920427E-16	1.512430E-17
5.020000E+03	4.951582E-16	1.583846E-17
5.030000E+03	4.983204E-16	1.656198E-17
5.040000E+03	5.015408E-16	1.729335E-17
5.050000E+03	5.048237E-16	1.803112E-17
5.060000E+03	5.081732E-16	1.877405E-17
5.070000E+03	5.115930E-16	1.952108E-17
5.080000E+03	5.150864E-16	2.027129E-17
5.090000E+03	5.186632E-16	2.102415E-17
5.100000E+03	5.223262E-16	2.177900E-17
5.110000E+03	5.260710E-16	2.253493E-17
5.120000E+03	5.298999E-16	2.329140E-17
5.130000E+03	5.338217E-16	2.404821E-17
5.140000E+03	5.378381E-16	2.480490E-17
5.150000E+03	5.419508E-16	2.556107E-17
5.160000E+03	5.461612E-16	2.631633E-17
5.170000E+03	5.504635E-16	2.706996E-17
5.180000E+03	5.548658E-16	2.782193E-17
5.190000E+03	5.593689E-16	2.857188E-17
5.200000E+03	5.639666E-16	2.931910E-17
5.210000E+03	5.686740E-16	3.006396E-17
5.220000E+03	5.734771E-16	3.080537E-17
5.230000E+03	5.783762E-16	3.154293E-17
5.240000E+03	5.833792E-16	3.227666E-17
5.250000E+03	5.884863E-16	3.300620E-17
5.260000E+03	5.936901E-16	3.373073E-17
5.270000E+03	5.989909E-16	3.444983E-17
5.280000E+03	6.043883E-16	3.516308E-17
5.290000E+03	6.098902E-16	3.587048E-17
5.300000E+03	6.154808E-16	3.657068E-17
5.310000E+03	6.211676E-16	3.726366E-17
5.320000E+03	6.269504E-16	3.794894E-17
5.330000E+03	6.328286E-16	3.862602E-17
5.340000E+03	6.387940E-16	3.929391E-17
5.350000E+03	6.448457E-16	3.995206E-17
5.360000E+03	6.509914E-16	4.060041E-17
5.370000E+03	6.572138E-16	4.123740E-17
5.380000E+03	6.635287E-16	4.186346E-17
5.390000E+03	6.699271E-16	4.247750E-17
5.400000E+03	6.763994E-16	4.307836E-17
5.410000E+03	6.829532E-16	4.366597E-17
5.420000E+03	6.895787E-16	4.423913E-17
5.430000E+03	6.962834E-16	4.479775E-17
5.440000E+03	7.030573E-16	4.534063E-17
5.450000E+03	7.099081E-16	4.586766E-17
5.460000E+03	7.168256E-16	4.637761E-17
5.470000E+03	7.238173E-16	4.687037E-17
5.480000E+03	7.308637E-16	4.734410E-17
5.490000E+03	7.379815E-16	4.779928E-17
5.500000E+03	7.451692E-16	4.823522E-17
5.510000E+03	7.524162E-16	4.865064E-17
5.520000E+03	7.597206E-16	4.904484E-17
5.530000E+03	7.671001E-16	4.941835E-17
5.540000E+03	7.745242E-16	4.976863E-17
5.550000E+03	7.820203E-16	5.009686E-17
5.560000E+03	7.895771E-16	5.040173E-17
5.570000E+03	7.971832E-16	5.068193E-17
5.580000E+03	8.048568E-16	5.093805E-17
5.590000E+03	8.125964E-16	5.116944E-17
5.600000E+03	8.203904E-16	5.137479E-17
5.610000E+03	8.282372E-16	5.155346E-17
5.620000E+03	8.361559E-16	5.170610E-17
5.630000E+03	8.441242E-16	5.183078E-17
5.640000E+03	8.521617E-16	5.192818E-17
5.650000E+03	8.602673E-16	5.199771E-17
5.660000E+03	8.684288E-16	5.203812E-17
5.670000E+03	8.766557E-16	5.204947E-17
5.680000E+03	8.849468E-16	5.203122E-17
5.690000E+03	8.933008E-16	5.198280E-17
5.700000E+03	9.017278E-16	5.190434E-17
5.710000E+03	9.102154E-16	5.179467E-17
5.720000E+03	9.187740E-16	5.165394E-17
5.730000E+03	9.274024E-16	5.148166E-17
5.740000E+03	9.360879E-16	5.127672E-17
5.750000E+03	9.448529E-16	5.103999E-17
5.760000E+03	9.536847E-16	5.077037E-17
5.770000E+03	9.625820E-16	5.046748E-17
5.780000E+03	9.715561E-16	5.013158E-17
5.790000E+03	9.805936E-16	4.976167E-17
5.800000E+03	9.896932E-16	4.935744E-17
5.810000E+03	9.988661E-16	4.891920E-17
5.820000E+03	1.008111E-15	4.844669E-17
5.830000E+03	1.017427E-15	4.793966E-17
5.840000E+03	1.026799E-15	4.739729E-17
5.850000E+03	1.036252E-15	4.682061E-17
5.860000E+03	1.045757E-15	4.620828E-17
5.870000E+03	1.055312E-15	4.556022E-17
5.880000E+03	1.064942E-15	4.487755E-17
5.890000E+03	1.074616E-15	4.415911E-17
5.900000E+03	1.084345E-15	4.340551E-17
5.910000E+03	1.094125E-15	4.261686E-17
5.920000E+03	1.103938E-15	4.179278E-17
5.930000E+03	1.113807E-15	4.093459E-17
5.940000E+03	1.123684E-15	4.004102E-17
5.950000E+03	1.133590E-15	3.911354E-17
5.960000E+03	1.143519E-15	3.815265E-17
5.970000E+03	1.153448E-15	3.715847E-17
5.980000E+03	1.163366E-15	3.613179E-17
5.990000E+03	1.173277E-15	3.507400E-17
6.000000E+03	1.183139E-15	3.398528E-17
6.010000E+03	1.192967E-15	3.286786E-17
6.020000E+03	1.202731E-15	3.172286E-17
6.030000E+03	1.212396E-15	3.055175E-17
6.040000E+03	1.221957E-15	2.935719E-17
6.050000E+03	1.231391E-15	2.814185E-17
6.060000E+03	1.240673E-15	2.690893E-17
6.070000E+03	1.249758E-15	2.566193E-17
6.080000E+03	1.258613E-15	2.440554E-17
6.090000E+03	1.267219E-15	2.314574E-17
6.100000E+03	1.275523E-15	2.188908E-17
6.110000E+03	1.283480E-15	2.064396E-17
6.120000E+03	1.291046E-15	1.942063E-17
6.130000E+03	1.298171E-15	1.823160E-17
6.140000E+03	1.304804E-15	1.709209E-17
6.150000E+03	1.310890E-15	1.602036E-17
6.160000E+03	1.316372E-15	1.503794E-17
6.170000E+03	1.321179E-15	1.416907E-17
6.180000E+03	1.325275E-15	1.344018E-17
6.190000E+03	1.328611E-15	1.287678E-17
6.200000E+03	1.331132E-15	1.249981E-17
6.210000E+03	1.332827E-15	1.232178E-17
6.220000E+03	1.333668E-15	1.234269E-17
6.230000E+03	1.333679E-15	1.254986E-17
6.240000E+03	1.332865E-15	1.291959E-17
6.250000E+03	1.331283E-15	1.342226E-17
6.260000E+03	1.328966E-15	1.402627E-17
6.270000E+03	1.325992E-15	1.470235E-17
6.280000E+03	1.322405E-15	1.542471E-17
6.290000E+03	1.318290E-15	1.617261E-17
6.300000E+03	1.313695E-15	1.692941E-17
6.310000E+03	1.308702E-15	1.768298E-17
6.320000E+03	1.303354E-15	1.842415E-17
6.330000E+03	1.297725E-15	1.914708E-17
6.340000E+03	1.291853E-15	1.984772E-17
6.350000E+03	1.285804E-15	2.052437E-17
6.360000E+03	1.279624E-15	2.117655E-17
6.370000E+03	1.273354E-15	2.180488E-17
6.380000E+03	1.267014E-15	2.241058E-17
6.390000E+03	1.260655E-15	2.299609E-17
6.400000E+03	1.254324E-15	2.356438E-17
6.410000E+03	1.248013E-15	2.411775E-17
6.420000E+03	1.241762E-15	2.465964E-17
6.430000E+03	1.235610E-15	2.519361E-17
6.440000E+03	1.229557E-15	2.572248E-17
6.450000E+03	1.223617E-15	2.624931E-17
6.460000E+03	1.217820E-15	2.677736E-17
6.470000E+03	1.212161E-15	2.730894E-17
6.480000E+03	1.206663E-15	2.784680E-17
6.490000E+03	1.201335E-15	2.839307E-17
6.500000E+03	1.196165E-15	2.894913E-17
6.510000E+03	1.191190E-15	2.951725E-17
6.520000E+03	1.186396E-15	3.009815E-17
6.530000E+03	1.181784E-15	3.069265E-17
6.540000E+03	1.177355E-15	3.130125E-17
6.550000E+03	1.173125E-15	3.192460E-17
6.560000E+03	1.169077E-15	3.256218E-17
6.570000E+03	1.165241E-15	3.321462E-17
6.580000E+03	1.161583E-15	3.388046E-17
6.590000E+03	1.158116E-15	3.455943E-17
6.600000E+03	1.154836E-15	3.525066E-17
6.610000E+03	1.151757E-15	3.595359E-17
6.620000E+03	1.148858E-15	3.666659E-17
6.630000E+03	1.146152E-15	3.738891E-17
6.640000E+03	1.143635E-15	3.811926E-17
6.650000E+03	1.141285E-15	3.885567E-17
6.660000E+03	1.139114E-15	3.959729E-17
6.670000E+03	1.137136E-15	4.034324E-17
6.680000E+03	1.135328E-15	4.109150E-17
6.690000E+03	1.133686E-15	4.184059E-17
6.700000E+03	1.132222E-15	4.258967E-17
6.710000E+03	1.130933E-15	4.333731E-17
6.720000E+03	1.129796E-15	4.408146E-17
6.730000E+03	1.128842E-15	4.482202E-17
6.740000E+03	1.128033E-15	4.555631E-17
6.750000E+03	1.127399E-15	4.628433E-17
6.760000E+03	1.126918E-15	4.700413E-17
6.770000E+03	1.126589E-15	4.771441E-17
6.780000E+03	1.126423E-15	4.841468E-17
6.790000E+03	1.126401E-15	4.910301E-17
6.800000E+03	1.126536E-15	4.977898E-17
6.810000E+03	1.126827E-15	5.044147E-17
6.820000E+03	1.127270E-15	5.108942E-17
6.830000E+03	1.127846E-15	5.172098E-17
6.840000E+03	1.128569E-15	5.233590E-17
6.850000E+03	1.129454E-15	5.293399E-17
6.860000E+03	1.130466E-15	5.351269E-17
6.870000E+03	1.131637E-15	5.407268E-17
6.880000E+03	1.132949E-15	5.461224E-17
6.890000E+03	1.134399E-15	5.513048E-17
6.900000E+03	1.135986E-15	5.562653E-17
6.910000E+03	1.137710E-15	5.609955E-17
6.920000E+03	1.139588E-15	5.654958E-17
6.930000E+03	1.141601E-15	5.697496E-17
6.940000E+03	1.143748E-15	5.737489E-17
6.950000E+03	1.146047E-15	5.774950E-17
6.960000E+03	1.148480E-15	5.809714E-17
6.970000E+03	1.151048E-15	5.841706E-17
6.980000E+03	1.153749E-15	5.870853E-17
6.990000E+03	1.156603E-15	5.897174E-17
7.000000E+03	1.159574E-15	5.920416E-17
7.010000E+03	1.162697E-15	5.940690E-17
7.020000E+03	1.165957E-15	5.957837E-17
7.030000E+03	1.169354E-15	5.971787E-17
7.040000E+03	1.172888E-15	5.982471E-17
7.050000E+03	1.176560E-15	5.989822E-17
7.060000E+03	1.180373E-15	5.993773E-17
7.070000E+03	1.184326E-15	5.994256E-17
7.080000E+03	1.188402E-15	5.991109E-17
7.090000E+03	1.192621E-15	5.984362E-17
7.100000E+03	1.196966E-15	5.973853E-17
7.110000E+03	1.201457E-15	5.959609E-17
7.120000E+03	1.206076E-15	5.941473E-17
7.130000E+03	1.210843E-15	5.919470E-17
7.140000E+03	1.215722E-15	5.893349E-17
7.150000E+03	1.220752E-15	5.863232E-17
7.160000E+03	1.225895E-15	5.828869E-17
7.170000E+03	1.231191E-15	5.790380E-17
7.180000E+03	1.236582E-15	5.747427E-17
7.190000E+03	1.242109E-15	5.700133E-17
7.200000E+03	1.247771E-15	5.648436E-17
7.210000E+03	1.253549E-15	5.592188E-17
7.220000E+03	1.259443E-15	5.531333E-17
7.230000E+03	1.265432E-15	5.465732E-17
7.240000E+03	1.271556E-15	5.395511E-17
7.250000E+03	1.277771E-15	5.320450E-17
7.260000E+03	1.284098E-15	5.240598E-17
7.270000E+03	1.290513E-15	5.155837E-17
7.280000E+03	1.297013E-15	5.066147E-17
7.290000E+03	1.303593E-15	4.971514E-17
7.300000E+03	1.310250E-15	4.871938E-17
7.310000E+03	1.316978E-15	4.767433E-17
7.320000E+03	1.323748E-15	4.657958E-17
7.330000E+03	1.330575E-15	4.543644E-17
7.340000E+03	1.337429E-15	4.424500E-17
7.350000E+03	1.344322E-15	4.300715E-17
7.360000E+03	1.351198E-15	4.172307E-17
7.370000E+03	1.358090E-15	4.039618E-17
7.380000E+03	1.364939E-15	3.902784E-17
7.390000E+03	1.371774E-15	3.762270E-17
7.400000E+03	1.378535E-15	3.618384E-17
7.410000E+03	1.385226E-15	3.471725E-17
7.420000E+03	1.391804E-15	3.322915E-17
7.430000E+03	1.398271E-15	3.172855E-17
7.440000E+03	1.404606E-15	3.022591E-17
7.450000E+03	1.410763E-15	2.873378E-17
7.460000E+03	1.416719E-15	2.726832E-17
7.470000E+03	1.422472E-15	2.584975E-17
7.480000E+03	1.427999E-15	2.450207E-17
7.490000E+03	1.433230E-15	2.325318E-17
7.500000E+03	1.438213E-15	2.213759E-17
7.510000E+03	1.442859E-15	2.119136E-17
7.520000E+03	1.447195E-15	2.045410E-17
7.530000E+03	1.451207E-15	1.996271E-17
7.540000E+03	1.454861E-15	1.974684E-17
7.550000E+03	1.458151E-15	1.982451E-17
7.560000E+03	1.461097E-15	2.019877E-17
7.570000E+03	1.463703E-15	2.085685E-17
7.580000E+03	1.465975E-15	2.177358E-17
7.590000E+03	1.467899E-15	2.291581E-17
7.600000E+03	1.469490E-15	2.424790E-17
7.610000E+03	1.470813E-15	2.573599E-17
7.620000E+03	1.471838E-15	2.734771E-17
7.630000E+03	1.472634E-15	2.905642E-17
7.640000E+03	1.473174E-15	3.083787E-17
7.650000E+03	1.473505E-15	3.267300E-17
7.660000E+03	1.473648E-15	3.454572E-17
7.670000E+03	1.473625E-15	3.644275E-17
7.680000E+03	1.473457E-15	3.835319E-17
7.690000E+03	1.473164E-15	4.026805E-17
7.700000E+03	1.472766E-15	4.217994E-17
7.710000E+03	1.472281E-15	4.408274E-17
7.720000E+03	1.471725E-15	4.597140E-17
7.730000E+03	1.471114E-15	4.784170E-17
7.740000E+03	1.470463E-15	4.969013E-17
7.750000E+03	1.469810E-15	5.151461E-17
7.760000E+03	1.469117E-15	5.331101E-17
