#wls	flux	fluxerr
1.600000E+03	6.272050E-17	2.355404E-17
1.640000E+03	6.255229E-17	2.342237E-17
1.680000E+03	6.238057E-17	2.328747E-17
1.720000E+03	6.221634E-17	2.315339E-17
1.760000E+03	6.204880E-17	2.301605E-17
1.800000E+03	6.188885E-17	2.287945E-17
1.840000E+03	6.173653E-17	2.274350E-17
1.880000E+03	6.157055E-17	2.260031E-17
1.920000E+03	6.142307E-17	2.246164E-17
1.960000E+03	6.127287E-17	2.231963E-17
2.000000E+03	6.113069E-17	2.217811E-17
2.040000E+03	6.098613E-17	2.203323E-17
2.080000E+03	6.084983E-17	2.188877E-17
2.120000E+03	6.071154E-17	2.174095E-17
2.160000E+03	6.058182E-17	2.159348E-17
2.200000E+03	6.046078E-17	2.144629E-17
2.240000E+03	6.034856E-17	2.129931E-17
2.280000E+03	6.023516E-17	2.114891E-17
2.320000E+03	6.013098E-17	2.099866E-17
2.360000E+03	6.003620E-17	2.084848E-17
2.400000E+03	5.994101E-17	2.069486E-17
2.440000E+03	5.985571E-17	2.054125E-17
2.480000E+03	5.978051E-17	2.038759E-17
2.520000E+03	5.971566E-17	2.023380E-17
2.560000E+03	5.966140E-17	2.007982E-17
2.600000E+03	5.960826E-17	1.992230E-17
2.640000E+03	5.956636E-17	1.976452E-17
2.680000E+03	5.953601E-17	1.960640E-17
2.720000E+03	5.951753E-17	1.944785E-17
2.760000E+03	5.951126E-17	1.928881E-17
2.800000E+03	5.950806E-17	1.912612E-17
2.840000E+03	5.952736E-17	1.896585E-17
2.880000E+03	5.955060E-17	1.880184E-17
2.920000E+03	5.958770E-17	1.863705E-17
2.960000E+03	5.963912E-17	1.847138E-17
3.000000E+03	5.970530E-17	1.830472E-17
3.010000E+03	5.971812E-17	1.826102E-17
3.020000E+03	5.974061E-17	1.821993E-17
3.030000E+03	5.976348E-17	1.817857E-17
3.040000E+03	5.977749E-17	1.813416E-17
3.050000E+03	5.980117E-17	1.809230E-17
3.060000E+03	5.982527E-17	1.805020E-17
3.070000E+03	5.984979E-17	1.800784E-17
3.080000E+03	5.987475E-17	1.796523E-17
3.090000E+03	5.990015E-17	1.792236E-17
3.100000E+03	5.992601E-17	1.787924E-17
3.110000E+03	5.995233E-17	1.783586E-17
3.120000E+03	5.997913E-17	1.779223E-17
3.130000E+03	6.001559E-17	1.775106E-17
3.140000E+03	6.004336E-17	1.770691E-17
3.150000E+03	6.007164E-17	1.766250E-17
3.160000E+03	6.010044E-17	1.761784E-17
3.170000E+03	6.013891E-17	1.757560E-17
3.180000E+03	6.016877E-17	1.753041E-17
3.190000E+03	6.020831E-17	1.748763E-17
3.200000E+03	6.023926E-17	1.744192E-17
3.210000E+03	6.027991E-17	1.739859E-17
3.220000E+03	6.032113E-17	1.735497E-17
3.230000E+03	6.035382E-17	1.730847E-17
3.240000E+03	6.039621E-17	1.726431E-17
3.250000E+03	6.043920E-17	1.721987E-17
3.260000E+03	6.048280E-17	1.717515E-17
3.270000E+03	6.052703E-17	1.713015E-17
3.280000E+03	6.057190E-17	1.708487E-17
3.290000E+03	6.061741E-17	1.703930E-17
3.300000E+03	6.066358E-17	1.699345E-17
3.310000E+03	6.071042E-17	1.694731E-17
3.320000E+03	6.075794E-17	1.690089E-17
3.330000E+03	6.080616E-17	1.685419E-17
3.340000E+03	6.085509E-17	1.680719E-17
3.350000E+03	6.090473E-17	1.675991E-17
3.360000E+03	6.096412E-17	1.671481E-17
3.370000E+03	6.101523E-17	1.666694E-17
3.380000E+03	6.106710E-17	1.661878E-17
3.390000E+03	6.112873E-17	1.657276E-17
3.400000E+03	6.118214E-17	1.652400E-17
3.410000E+03	6.124533E-17	1.647737E-17
3.420000E+03	6.130033E-17	1.642801E-17
3.430000E+03	6.136512E-17	1.638075E-17
3.440000E+03	6.143073E-17	1.633317E-17
3.450000E+03	6.148821E-17	1.628289E-17
3.460000E+03	6.155550E-17	1.623467E-17
3.470000E+03	6.162366E-17	1.618614E-17
3.480000E+03	6.168373E-17	1.613493E-17
3.490000E+03	6.175364E-17	1.608575E-17
3.500000E+03	6.182445E-17	1.603624E-17
3.510000E+03	6.189617E-17	1.598640E-17
3.520000E+03	6.196882E-17	1.593622E-17
3.530000E+03	6.204240E-17	1.588571E-17
3.540000E+03	6.211694E-17	1.583487E-17
3.550000E+03	6.219244E-17	1.578369E-17
3.560000E+03	6.226892E-17	1.573217E-17
3.570000E+03	6.234639E-17	1.568031E-17
3.580000E+03	6.242487E-17	1.562810E-17
3.590000E+03	6.250437E-17	1.557555E-17
3.600000E+03	6.258490E-17	1.552265E-17
3.610000E+03	6.267539E-17	1.547161E-17
3.620000E+03	6.275803E-17	1.541800E-17
3.630000E+03	6.284174E-17	1.536404E-17
3.640000E+03	6.292654E-17	1.530972E-17
3.650000E+03	6.302136E-17	1.525720E-17
3.660000E+03	6.310838E-17	1.520215E-17
3.670000E+03	6.319654E-17	1.514675E-17
3.680000E+03	6.329475E-17	1.509310E-17
3.690000E+03	6.338521E-17	1.503695E-17
3.700000E+03	6.348576E-17	1.498253E-17
3.710000E+03	6.357859E-17	1.492563E-17
3.720000E+03	6.368153E-17	1.487044E-17
3.730000E+03	6.377679E-17	1.481278E-17
3.740000E+03	6.388219E-17	1.475680E-17
3.750000E+03	6.397994E-17	1.469837E-17
3.760000E+03	6.408786E-17	1.464160E-17
3.770000E+03	6.418816E-17	1.458239E-17
3.780000E+03	6.429866E-17	1.452482E-17
3.790000E+03	6.440157E-17	1.446483E-17
3.800000E+03	6.451471E-17	1.440643E-17
3.810000E+03	6.462921E-17	1.434763E-17
3.820000E+03	6.473616E-17	1.428644E-17
3.830000E+03	6.485340E-17	1.422680E-17
3.840000E+03	6.497204E-17	1.416675E-17
3.850000E+03	6.508318E-17	1.410434E-17
3.860000E+03	6.520466E-17	1.404344E-17
3.870000E+03	6.532759E-17	1.398212E-17
3.880000E+03	6.544308E-17	1.391848E-17
3.890000E+03	6.556896E-17	1.385631E-17
3.900000E+03	6.569634E-17	1.379371E-17
3.910000E+03	6.581633E-17	1.372881E-17
3.920000E+03	6.594677E-17	1.366535E-17
3.930000E+03	6.607877E-17	1.360146E-17
3.940000E+03	6.620342E-17	1.353530E-17
3.950000E+03	6.633860E-17	1.347054E-17
3.960000E+03	6.647539E-17	1.340534E-17
3.970000E+03	6.661382E-17	1.333970E-17
3.980000E+03	6.674496E-17	1.327184E-17
3.990000E+03	6.688672E-17	1.320534E-17
4.000000E+03	6.703018E-17	1.313839E-17
4.010000E+03	6.716640E-17	1.306926E-17
4.020000E+03	6.731333E-17	1.300144E-17
4.030000E+03	6.746202E-17	1.293318E-17
4.040000E+03	6.760352E-17	1.286278E-17
4.050000E+03	6.775580E-17	1.279366E-17
4.060000E+03	6.790993E-17	1.272411E-17
4.070000E+03	6.805691E-17	1.265245E-17
4.080000E+03	6.821478E-17	1.258205E-17
4.090000E+03	6.836555E-17	1.250957E-17
4.100000E+03	6.852726E-17	1.243833E-17
4.110000E+03	6.869094E-17	1.236666E-17
4.120000E+03	6.884759E-17	1.229297E-17
4.130000E+03	6.901528E-17	1.222049E-17
4.140000E+03	6.917599E-17	1.214601E-17
4.150000E+03	6.934782E-17	1.207274E-17
4.160000E+03	6.951270E-17	1.199750E-17
4.170000E+03	6.968879E-17	1.192346E-17
4.180000E+03	6.985798E-17	1.184749E-17
4.190000E+03	7.002937E-17	1.177118E-17
4.200000E+03	7.021210E-17	1.169605E-17
4.210000E+03	7.038802E-17	1.161906E-17
4.220000E+03	7.056625E-17	1.154175E-17
4.230000E+03	7.075596E-17	1.146562E-17
4.240000E+03	7.093895E-17	1.138770E-17
4.250000E+03	7.112437E-17	1.130951E-17
4.260000E+03	7.132144E-17	1.123249E-17
4.270000E+03	7.151188E-17	1.115377E-17
4.280000E+03	7.170491E-17	1.107482E-17
4.290000E+03	7.190055E-17	1.099565E-17
4.300000E+03	7.209887E-17	1.091630E-17
4.310000E+03	7.229993E-17	1.083676E-17
4.320000E+03	7.250377E-17	1.075708E-17
4.330000E+03	7.271046E-17	1.067727E-17
4.340000E+03	7.292006E-17	1.059736E-17
4.350000E+03	7.313262E-17	1.051737E-17
4.360000E+03	7.334822E-17	1.043734E-17
4.370000E+03	7.356693E-17	1.035728E-17
4.380000E+03	7.377948E-17	1.027595E-17
4.390000E+03	7.400460E-17	1.019598E-17
4.400000E+03	7.423304E-17	1.011609E-17
4.410000E+03	7.445552E-17	1.003506E-17
4.420000E+03	7.469084E-17	9.955473E-18
4.430000E+03	7.492033E-17	9.874853E-18
4.440000E+03	7.516289E-17	9.795737E-18
4.450000E+03	7.539976E-17	9.715704E-18
4.460000E+03	7.564992E-17	9.637251E-18
4.470000E+03	7.589455E-17	9.558007E-18
4.480000E+03	7.614322E-17	9.479245E-18
4.490000E+03	7.640555E-17	9.402195E-18
4.500000E+03	7.666262E-17	9.324564E-18
4.510000E+03	7.692407E-17	9.247600E-18
4.520000E+03	7.719000E-17	9.171369E-18
4.530000E+03	7.746055E-17	9.095942E-18
4.540000E+03	7.773585E-17	9.021394E-18
4.550000E+03	7.801602E-17	8.947800E-18
4.560000E+03	7.830121E-17	8.875243E-18
4.570000E+03	7.859156E-17	8.803804E-18
4.580000E+03	7.887750E-17	8.732496E-18
4.590000E+03	7.917860E-17	8.663570E-18
4.600000E+03	7.948531E-17	8.596035E-18
4.610000E+03	7.978801E-17	8.528940E-18
4.620000E+03	8.010641E-17	8.464488E-18
4.630000E+03	8.042108E-17	8.400698E-18
4.640000E+03	8.075185E-17	8.339741E-18
4.650000E+03	8.107917E-17	8.279676E-18
4.660000E+03	8.141307E-17	8.221644E-18
4.670000E+03	8.175373E-17	8.165755E-18
4.680000E+03	8.211133E-17	8.113114E-18
4.690000E+03	8.246608E-17	8.061851E-18
4.700000E+03	8.282815E-17	8.013079E-18
4.710000E+03	8.319773E-17	7.966915E-18
4.720000E+03	8.356486E-17	7.922517E-18
4.730000E+03	8.394997E-17	7.881929E-18
4.740000E+03	8.434315E-17	7.844300E-18
4.750000E+03	8.474459E-17	7.809743E-18
4.760000E+03	8.514419E-17	7.777433E-18
4.770000E+03	8.556266E-17	7.749360E-18
4.780000E+03	8.597959E-17	7.723756E-18
4.790000E+03	8.641582E-17	7.702585E-18
4.800000E+03	8.685078E-17	7.684086E-18
4.810000E+03	8.729498E-17	7.669276E-18
4.820000E+03	8.774860E-17	7.658239E-18
4.830000E+03	8.821178E-17	7.651047E-18
4.840000E+03	8.868468E-17	7.647769E-18
4.850000E+03	8.916744E-17	7.648460E-18
4.860000E+03	8.966020E-17	7.653171E-18
4.870000E+03	9.016308E-17	7.661939E-18
4.880000E+03	9.067620E-17	7.674795E-18
4.890000E+03	9.118881E-17	7.690840E-18
4.900000E+03	9.172268E-17	7.711916E-18
4.910000E+03	9.225613E-17	7.736182E-18
4.920000E+03	9.281113E-17	7.765466E-18
4.930000E+03	9.336575E-17	7.797898E-18
4.940000E+03	9.393102E-17	7.834365E-18
4.950000E+03	9.451821E-17	7.875755E-18
4.960000E+03	9.510500E-17	7.920149E-18
4.970000E+03	9.570259E-17	7.968413E-18
4.980000E+03	9.631100E-17	8.020473E-18
4.990000E+03	9.693024E-17	8.076247E-18
5.000000E+03	9.754881E-17	8.134684E-18
5.010000E+03	9.818970E-17	8.197601E-18
5.020000E+03	9.884143E-17	8.263938E-18
5.030000E+03	9.949228E-17	8.332605E-18
5.040000E+03	1.001656E-16	8.405439E-18
5.050000E+03	1.008379E-16	8.480348E-18
5.060000E+03	1.015327E-16	8.559192E-18
5.070000E+03	1.022263E-16	8.639837E-18
5.080000E+03	1.029305E-16	8.723145E-18
5.090000E+03	1.036451E-16	8.808980E-18
5.100000E+03	1.043702E-16	8.897201E-18
5.110000E+03	1.051058E-16	8.987667E-18
5.120000E+03	1.058517E-16	9.080234E-18
5.130000E+03	1.066079E-16	9.174757E-18
5.140000E+03	1.073617E-16	9.270006E-18
5.150000E+03	1.081382E-16	9.367992E-18
5.160000E+03	1.089249E-16	9.467495E-18
5.170000E+03	1.097087E-16	9.567250E-18
5.180000E+03	1.105153E-16	9.669333E-18
5.190000E+03	1.113187E-16	9.771351E-18
5.200000E+03	1.121318E-16	9.874275E-18
5.210000E+03	1.129545E-16	9.977957E-18
5.220000E+03	1.137866E-16	1.008225E-17
5.230000E+03	1.146281E-16	1.018701E-17
5.240000E+03	1.154789E-16	1.029209E-17
5.250000E+03	1.163389E-16	1.039735E-17
5.260000E+03	1.172081E-16	1.050264E-17
5.270000E+03	1.180863E-16	1.060782E-17
5.280000E+03	1.189596E-16	1.071151E-17
5.290000E+03	1.198554E-16	1.081603E-17
5.300000E+03	1.207461E-16	1.091876E-17
5.310000E+03	1.216592E-16	1.102207E-17
5.320000E+03	1.225667E-16	1.112327E-17
5.330000E+03	1.234824E-16	1.122350E-17
5.340000E+03	1.244063E-16	1.132262E-17
5.350000E+03	1.253526E-16	1.142181E-17
5.360000E+03	1.262925E-16	1.151831E-17
5.370000E+03	1.272402E-16	1.161329E-17
5.380000E+03	1.281807E-16	1.170526E-17
5.390000E+03	1.291434E-16	1.179679E-17
5.400000E+03	1.301135E-16	1.188639E-17
5.410000E+03	1.310909E-16	1.197394E-17
5.420000E+03	1.320603E-16	1.205791E-17
5.430000E+03	1.330517E-16	1.214094E-17
5.440000E+03	1.340346E-16	1.222012E-17
5.450000E+03	1.350240E-16	1.229670E-17
5.460000E+03	1.360354E-16	1.237197E-17
5.470000E+03	1.370374E-16	1.244298E-17
5.480000E+03	1.380455E-16	1.251101E-17
5.490000E+03	1.390595E-16	1.257593E-17
5.500000E+03	1.400792E-16	1.263761E-17
5.510000E+03	1.411044E-16	1.269594E-17
5.520000E+03	1.421350E-16	1.275079E-17
5.530000E+03	1.431708E-16	1.280203E-17
5.540000E+03	1.442116E-16	1.284955E-17
5.550000E+03	1.452406E-16	1.289175E-17
5.560000E+03	1.462907E-16	1.293146E-17
5.570000E+03	1.473284E-16	1.296560E-17
5.580000E+03	1.483871E-16	1.299704E-17
5.590000E+03	1.494327E-16	1.302267E-17
5.600000E+03	1.504818E-16	1.304387E-17
5.610000E+03	1.515517E-16	1.306204E-17
5.620000E+03	1.526076E-16	1.307408E-17
5.630000E+03	1.536663E-16	1.308137E-17
5.640000E+03	1.547278E-16	1.308381E-17
5.650000E+03	1.557917E-16	1.308132E-17
5.660000E+03	1.568579E-16	1.307378E-17
5.670000E+03	1.579261E-16	1.306112E-17
5.680000E+03	1.589961E-16	1.304324E-17
5.690000E+03	1.600493E-16	1.301857E-17
5.700000E+03	1.611219E-16	1.299000E-17
5.710000E+03	1.621956E-16	1.295598E-17
5.720000E+03	1.632515E-16	1.291496E-17
5.730000E+03	1.643263E-16	1.286982E-17
5.740000E+03	1.653826E-16	1.281756E-17
5.750000E+03	1.664387E-16	1.275960E-17
5.760000E+03	1.675135E-16	1.269736E-17
5.770000E+03	1.685686E-16	1.262787E-17
5.780000E+03	1.696227E-16	1.255258E-17
5.790000E+03	1.706756E-16	1.247144E-17
5.800000E+03	1.717270E-16	1.238446E-17
5.810000E+03	1.727768E-16	1.229162E-17
5.820000E+03	1.738247E-16	1.219293E-17
5.830000E+03	1.748704E-16	1.208841E-17
5.840000E+03	1.759138E-16	1.197807E-17
5.850000E+03	1.769545E-16	1.186197E-17
5.860000E+03	1.779925E-16	1.174016E-17
5.870000E+03	1.790071E-16	1.161138E-17
5.880000E+03	1.800387E-16	1.147838E-17
5.890000E+03	1.810464E-16	1.133863E-17
5.900000E+03	1.820711E-16	1.119485E-17
5.910000E+03	1.830712E-16	1.104463E-17
5.920000E+03	1.840883E-16	1.089066E-17
5.930000E+03	1.850804E-16	1.073064E-17
5.940000E+03	1.860682E-16	1.056605E-17
5.950000E+03	1.870731E-16	1.039831E-17
5.960000E+03	1.880524E-16	1.022534E-17
5.970000E+03	1.890273E-16	1.004864E-17
5.980000E+03	1.899979E-16	9.868587E-18
5.990000E+03	1.909641E-16	9.685580E-18
6.000000E+03	1.919260E-16	9.500076E-18
6.010000E+03	1.928837E-16	9.312582E-18
6.020000E+03	1.938374E-16	9.123669E-18
6.030000E+03	1.947871E-16	8.933970E-18
6.040000E+03	1.957332E-16	8.744194E-18
6.050000E+03	1.966758E-16	8.555126E-18
6.060000E+03	1.975927E-16	8.366688E-18
6.070000E+03	1.985292E-16	8.181772E-18
6.080000E+03	1.994633E-16	8.000471E-18
6.090000E+03	2.003724E-16	7.823063E-18
6.100000E+03	2.013027E-16	7.652633E-18
6.110000E+03	2.022089E-16	7.488802E-18
6.120000E+03	2.031374E-16	7.334792E-18
6.130000E+03	2.040428E-16	7.190504E-18
6.140000E+03	2.049486E-16	7.058460E-18
6.150000E+03	2.058789E-16	6.941178E-18
6.160000E+03	2.067876E-16	6.838811E-18
6.170000E+03	2.076988E-16	6.753887E-18
6.180000E+03	2.086367E-16	6.688810E-18
6.190000E+03	2.095546E-16	6.643543E-18
6.200000E+03	2.104765E-16	6.620134E-18
6.210000E+03	2.114028E-16	6.619576E-18
6.220000E+03	2.123337E-16	6.642517E-18
6.230000E+03	2.132692E-16	6.689234E-18
6.240000E+03	2.142090E-16	6.759613E-18
6.250000E+03	2.151528E-16	6.853179E-18
6.260000E+03	2.161000E-16	6.969137E-18
6.270000E+03	2.170501E-16	7.106427E-18
6.280000E+03	2.179773E-16	7.262963E-18
6.290000E+03	2.189306E-16	7.438987E-18
6.300000E+03	2.198845E-16	7.632214E-18
6.310000E+03	2.208380E-16	7.841138E-18
6.320000E+03	2.217650E-16	8.063336E-18
6.330000E+03	2.227154E-16	8.299158E-18
6.340000E+03	2.236630E-16	8.546295E-18
6.350000E+03	2.245815E-16	8.802401E-18
6.360000E+03	2.255214E-16	9.068191E-18
6.370000E+03	2.264305E-16	9.340433E-18
6.380000E+03	2.273598E-16	9.620125E-18
6.390000E+03	2.282568E-16	9.904069E-18
6.400000E+03	2.291730E-16	1.019354E-17
6.410000E+03	2.300556E-16	1.048536E-17
6.420000E+03	2.309299E-16	1.077984E-17
6.430000E+03	2.318223E-16	1.107749E-17
6.440000E+03	2.326791E-16	1.137509E-17
6.450000E+03	2.335263E-16	1.167323E-17
6.460000E+03	2.343637E-16	1.197131E-17
6.470000E+03	2.352178E-16	1.227015E-17
6.480000E+03	2.360344E-16	1.256646E-17
6.490000E+03	2.368400E-16	1.286111E-17
6.500000E+03	2.376345E-16	1.315365E-17
6.510000E+03	2.384176E-16	1.344364E-17
6.520000E+03	2.391889E-16	1.373068E-17
6.530000E+03	2.399484E-16	1.401439E-17
6.540000E+03	2.406959E-16	1.429442E-17
6.550000E+03	2.414312E-16	1.457042E-17
6.560000E+03	2.421543E-16	1.484208E-17
6.570000E+03	2.428649E-16	1.510910E-17
6.580000E+03	2.435630E-16	1.537120E-17
6.590000E+03	2.442487E-16	1.562813E-17
6.600000E+03	2.449218E-16	1.587962E-17
6.610000E+03	2.455540E-16	1.612358E-17
6.620000E+03	2.462019E-16	1.636348E-17
6.630000E+03	2.468372E-16	1.659728E-17
6.640000E+03	2.474599E-16	1.682477E-17
6.650000E+03	2.480417E-16	1.704382E-17
6.660000E+03	2.486395E-16	1.725814E-17
6.670000E+03	2.492250E-16	1.746563E-17
6.680000E+03	2.497695E-16	1.766410E-17
6.690000E+03	2.503306E-16	1.785745E-17
6.700000E+03	2.508508E-16	1.804146E-17
6.710000E+03	2.513879E-16	1.822012E-17
6.720000E+03	2.518843E-16	1.838916E-17
6.730000E+03	2.523981E-16	1.855266E-17
6.740000E+03	2.528713E-16	1.870629E-17
6.750000E+03	2.533624E-16	1.885422E-17
6.760000E+03	2.538132E-16	1.899206E-17
6.770000E+03	2.542823E-16	1.912408E-17
6.780000E+03	2.547114E-16	1.924581E-17
6.790000E+03	2.551300E-16	1.935938E-17
6.800000E+03	2.555677E-16	1.946699E-17
6.810000E+03	2.559658E-16	1.956409E-17
6.820000E+03	2.563540E-16	1.965288E-17
6.830000E+03	2.567623E-16	1.973561E-17
6.840000E+03	2.571316E-16	1.980768E-17
6.850000E+03	2.574917E-16	1.987134E-17
6.860000E+03	2.578429E-16	1.992658E-17
6.870000E+03	2.581855E-16	1.997339E-17
6.880000E+03	2.585197E-16	2.001175E-17
6.890000E+03	2.588458E-16	2.004166E-17
6.900000E+03	2.591942E-16	2.006546E-17
6.910000E+03	2.595050E-16	2.007851E-17
6.920000E+03	2.598086E-16	2.008313E-17
6.930000E+03	2.601053E-16	2.007937E-17
6.940000E+03	2.603953E-16	2.006724E-17
6.950000E+03	2.606789E-16	2.004677E-17
6.960000E+03	2.609262E-16	2.001569E-17
6.970000E+03	2.611980E-16	1.997869E-17
6.980000E+03	2.614644E-16	1.993348E-17
6.990000E+03	2.617258E-16	1.988014E-17
7.000000E+03	2.619824E-16	1.981872E-17
7.010000E+03	2.622345E-16	1.974929E-17
7.020000E+03	2.624826E-16	1.967192E-17
7.030000E+03	2.626963E-16	1.958442E-17
7.040000E+03	2.629373E-16	1.949145E-17
7.050000E+03	2.631752E-16	1.939080E-17
7.060000E+03	2.633797E-16	1.928034E-17
7.070000E+03	2.636127E-16	1.916469E-17
7.080000E+03	2.638438E-16	1.904170E-17
7.090000E+03	2.640426E-16	1.890929E-17
7.100000E+03	2.642710E-16	1.877202E-17
7.110000E+03	2.644989E-16	1.862783E-17
7.120000E+03	2.646956E-16	1.847469E-17
7.130000E+03	2.649233E-16	1.831711E-17
7.140000E+03	2.651208E-16	1.815097E-17
7.150000E+03	2.653503E-16	1.798071E-17
7.160000E+03	2.655504E-16	1.780231E-17
7.170000E+03	2.657526E-16	1.761810E-17
7.180000E+03	2.659885E-16	1.743036E-17
7.190000E+03	2.661963E-16	1.723522E-17
7.200000E+03	2.664079E-16	1.703500E-17
7.210000E+03	2.666549E-16	1.683196E-17
7.220000E+03	2.668755E-16	1.662241E-17
7.230000E+03	2.671017E-16	1.640868E-17
7.240000E+03	2.673339E-16	1.619109E-17
7.250000E+03	2.676043E-16	1.597190E-17
7.260000E+03	2.678509E-16	1.574770E-17
7.270000E+03	2.681057E-16	1.552082E-17
7.280000E+03	2.683695E-16	1.529171E-17
7.290000E+03	2.686431E-16	1.506085E-17
7.300000E+03	2.689273E-16	1.482876E-17
7.310000E+03	2.692230E-16	1.459601E-17
7.320000E+03	2.695312E-16	1.436318E-17
7.330000E+03	2.698527E-16	1.413093E-17
7.340000E+03	2.701886E-16	1.389995E-17
7.350000E+03	2.705399E-16	1.367099E-17
7.360000E+03	2.709076E-16	1.344485E-17
7.370000E+03	2.712930E-16	1.322241E-17
7.380000E+03	2.716971E-16	1.300457E-17
7.390000E+03	2.720890E-16	1.279082E-17
7.400000E+03	2.725343E-16	1.258524E-17
7.410000E+03	2.730021E-16	1.238743E-17
7.420000E+03	2.734937E-16	1.219854E-17
7.430000E+03	2.739781E-16	1.201840E-17
7.440000E+03	2.745215E-16	1.185114E-17
7.450000E+03	2.750929E-16	1.169664E-17
7.460000E+03	2.756611E-16	1.155489E-17
7.470000E+03	2.762927E-16	1.143000E-17
7.480000E+03	2.769238E-16	1.132059E-17
7.490000E+03	2.776213E-16	1.123068E-17
7.500000E+03	2.783207E-16	1.115883E-17
7.510000E+03	2.790892E-16	1.110887E-17
7.520000E+03	2.798618E-16	1.107914E-17
7.530000E+03	2.806724E-16	1.107184E-17
7.540000E+03	2.815553E-16	1.108892E-17
7.550000E+03	2.824442E-16	1.112816E-17
7.560000E+03	2.833728E-16	1.119105E-17
7.570000E+03	2.843752E-16	1.127886E-17
7.580000E+03	2.853835E-16	1.138860E-17
7.590000E+03	2.864313E-16	1.152108E-17
7.600000E+03	2.875180E-16	1.167560E-17
7.610000E+03	2.886431E-16	1.185129E-17
7.620000E+03	2.898059E-16	1.204719E-17
7.630000E+03	2.910056E-16	1.226224E-17
7.640000E+03	2.922413E-16	1.249531E-17
7.650000E+03	2.935121E-16	1.274525E-17
7.660000E+03	2.948171E-16	1.301091E-17
7.670000E+03	2.961553E-16	1.329112E-17
7.680000E+03	2.975257E-16	1.358473E-17
7.690000E+03	2.989274E-16	1.389064E-17
7.700000E+03	3.003594E-16	1.420777E-17
7.710000E+03	3.018207E-16	1.453507E-17
7.720000E+03	3.032739E-16	1.486977E-17
7.730000E+03	3.047909E-16	1.521446E-17
7.740000E+03	3.063345E-16	1.556648E-17
7.750000E+03	3.078666E-16	1.592305E-17
7.760000E+03	3.094606E-16	1.628718E-17
