#wls	flux	fluxerr
1.544402E+03	4.265761E-02	4.000935E-04
1.583012E+03	4.511326E-02	4.230470E-04
1.621622E+03	4.774386E-02	4.476305E-04
1.660232E+03	5.055767E-02	4.739198E-04
1.698842E+03	5.356594E-02	5.020191E-04
1.737452E+03	5.677950E-02	5.320284E-04
1.776062E+03	6.018587E-02	5.638293E-04
1.814672E+03	6.379118E-02	5.974775E-04
1.853282E+03	6.758226E-02	6.328479E-04
1.891892E+03	7.154422E-02	6.697996E-04
1.930502E+03	7.566605E-02	7.082278E-04
1.969112E+03	7.997221E-02	7.483598E-04
2.007722E+03	8.453372E-02	7.908583E-04
2.046332E+03	8.947501E-02	8.368846E-04
2.084942E+03	9.495646E-02	8.879353E-04
2.123552E+03	1.010531E-01	9.447073E-04
2.162162E+03	1.077300E-01	1.006869E-03
2.200772E+03	1.148742E-01	1.073359E-03
2.239382E+03	1.223583E-01	1.142983E-03
2.277992E+03	1.300917E-01	1.214893E-03
2.316602E+03	1.380211E-01	1.288586E-03
2.355212E+03	1.461174E-01	1.363789E-03
2.393822E+03	1.543840E-01	1.440530E-03
2.432432E+03	1.628102E-01	1.518709E-03
2.471042E+03	1.713972E-01	1.598332E-03
2.509653E+03	1.801218E-01	1.679182E-03
2.548263E+03	1.889607E-01	1.761038E-03
2.586873E+03	1.978696E-01	1.843486E-03
2.625483E+03	2.067963E-01	1.926038E-03
2.664093E+03	2.156811E-01	2.008137E-03
2.702703E+03	2.244508E-01	2.089099E-03
2.741313E+03	2.330263E-01	2.168190E-03
2.779923E+03	2.413379E-01	2.244762E-03
2.818533E+03	2.492994E-01	2.318015E-03
2.857143E+03	2.568555E-01	2.387437E-03
2.895753E+03	2.639326E-01	2.452348E-03
2.905405E+03	2.656274E-01	2.467875E-03
2.915058E+03	2.672841E-01	2.483044E-03
2.924710E+03	2.689010E-01	2.497840E-03
2.934363E+03	2.704897E-01	2.512371E-03
2.944015E+03	2.720444E-01	2.526582E-03
2.953668E+03	2.735662E-01	2.540485E-03
2.963320E+03	2.750590E-01	2.554116E-03
2.972973E+03	2.765147E-01	2.567398E-03
2.982625E+03	2.779313E-01	2.580315E-03
2.992278E+03	2.793191E-01	2.592960E-03
3.001931E+03	2.806643E-01	2.605207E-03
3.011583E+03	2.819710E-01	2.617094E-03
3.021236E+03	2.832324E-01	2.628558E-03
3.030888E+03	2.844633E-01	2.639736E-03
3.040541E+03	2.856461E-01	2.650464E-03
3.050193E+03	2.867843E-01	2.660776E-03
3.059846E+03	2.878828E-01	2.670717E-03
3.069498E+03	2.889401E-01	2.680274E-03
3.079151E+03	2.899444E-01	2.689336E-03
3.088803E+03	2.909105E-01	2.698041E-03
3.098456E+03	2.918271E-01	2.706285E-03
3.108108E+03	2.926985E-01	2.714109E-03
3.117761E+03	2.935189E-01	2.721456E-03
3.127413E+03	2.942927E-01	2.728370E-03
3.137066E+03	2.950192E-01	2.734843E-03
3.146718E+03	2.956983E-01	2.740874E-03
3.156371E+03	2.963240E-01	2.746410E-03
3.166023E+03	2.969013E-01	2.751494E-03
3.175676E+03	2.974299E-01	2.756126E-03
3.185328E+03	2.979051E-01	2.760261E-03
3.194981E+03	2.983315E-01	2.763943E-03
3.204633E+03	2.987042E-01	2.767127E-03
3.214286E+03	2.990287E-01	2.769862E-03
3.223938E+03	2.993000E-01	2.772103E-03
3.233591E+03	2.995189E-01	2.773858E-03
3.243243E+03	2.996858E-01	2.775131E-03
3.252896E+03	2.998013E-01	2.775927E-03
3.262548E+03	2.998661E-01	2.776253E-03
3.272201E+03	2.998765E-01	2.776074E-03
3.281853E+03	2.998379E-01	2.775442E-03
3.291506E+03	2.997429E-01	2.774287E-03
3.301158E+03	2.996007E-01	2.772694E-03
3.310811E+03	2.994047E-01	2.770605E-03
3.320463E+03	2.991558E-01	2.768025E-03
3.330116E+03	2.988556E-01	2.764971E-03
3.339768E+03	2.985019E-01	2.761421E-03
3.349421E+03	2.981000E-01	2.757426E-03
3.359073E+03	2.976480E-01	2.752968E-03
3.368726E+03	2.971437E-01	2.748027E-03
3.378378E+03	2.965894E-01	2.742624E-03
3.388031E+03	2.959832E-01	2.736742E-03
3.397683E+03	2.953311E-01	2.730436E-03
3.407336E+03	2.946241E-01	2.723624E-03
3.416988E+03	2.938686E-01	2.716365E-03
3.426641E+03	2.930634E-01	2.708647E-03
3.436293E+03	2.922115E-01	2.700498E-03
3.445946E+03	2.913081E-01	2.691876E-03
3.455598E+03	2.903528E-01	2.682774E-03
3.465251E+03	2.893521E-01	2.673255E-03
3.474903E+03	2.882989E-01	2.663253E-03
3.484556E+03	2.871997E-01	2.652827E-03
3.494208E+03	2.860544E-01	2.641978E-03
3.503861E+03	2.848596E-01	2.630674E-03
3.513514E+03	2.836160E-01	2.618921E-03
3.523166E+03	2.823268E-01	2.606749E-03
3.532819E+03	2.809892E-01	2.594132E-03
3.542471E+03	2.796099E-01	2.581134E-03
3.552124E+03	2.781835E-01	2.567703E-03
3.561776E+03	2.767136E-01	2.553872E-03
3.571429E+03	2.752011E-01	2.539652E-03
3.581081E+03	2.736495E-01	2.525073E-03
3.590734E+03	2.720569E-01	2.510120E-03
3.600386E+03	2.704267E-01	2.494822E-03
3.610039E+03	2.687600E-01	2.479190E-03
3.619691E+03	2.670601E-01	2.463255E-03
3.629344E+03	2.653281E-01	2.447028E-03
3.638996E+03	2.635674E-01	2.430539E-03
3.648649E+03	2.617783E-01	2.413793E-03
3.658301E+03	2.599622E-01	2.396800E-03
3.667954E+03	2.581271E-01	2.379636E-03
3.677606E+03	2.562684E-01	2.362258E-03
3.687259E+03	2.543920E-01	2.344720E-03
3.696911E+03	2.525030E-01	2.327070E-03
3.706564E+03	2.505994E-01	2.309289E-03
3.716216E+03	2.486838E-01	2.291401E-03
3.725869E+03	2.467613E-01	2.273454E-03
3.735521E+03	2.448340E-01	2.255466E-03
3.745174E+03	2.429046E-01	2.237463E-03
3.754826E+03	2.409729E-01	2.219442E-03
3.764479E+03	2.390434E-01	2.201445E-03
3.774131E+03	2.371176E-01	2.183487E-03
3.783784E+03	2.351976E-01	2.165585E-03
3.793436E+03	2.332850E-01	2.147756E-03
3.803089E+03	2.313816E-01	2.130015E-03
3.812741E+03	2.294909E-01	2.112395E-03
3.822394E+03	2.276141E-01	2.094907E-03
3.832046E+03	2.257506E-01	2.077546E-03
3.841699E+03	2.239056E-01	2.060358E-03
3.851351E+03	2.220781E-01	2.043334E-03
3.861004E+03	2.202710E-01	2.026503E-03
3.870656E+03	2.184852E-01	2.009871E-03
3.880309E+03	2.167195E-01	1.993428E-03
3.889961E+03	2.149785E-01	1.977216E-03
3.899614E+03	2.132608E-01	1.961221E-03
3.909266E+03	2.115689E-01	1.945468E-03
3.918919E+03	2.099032E-01	1.929959E-03
3.928571E+03	2.082641E-01	1.914697E-03
3.938224E+03	2.066518E-01	1.899687E-03
3.947876E+03	2.050685E-01	1.884946E-03
3.957529E+03	2.035125E-01	1.870459E-03
3.967181E+03	2.019840E-01	1.856229E-03
3.976834E+03	2.004866E-01	1.842287E-03
3.986486E+03	1.990169E-01	1.828603E-03
3.996139E+03	1.975765E-01	1.815192E-03
4.005792E+03	1.961653E-01	1.802052E-03
4.015444E+03	1.947834E-01	1.789185E-03
4.025097E+03	1.934306E-01	1.776587E-03
4.034749E+03	1.921067E-01	1.764259E-03
4.044402E+03	1.908115E-01	1.752196E-03
4.054054E+03	1.895448E-01	1.740399E-03
4.063707E+03	1.883063E-01	1.728863E-03
4.073359E+03	1.870958E-01	1.717587E-03
4.083012E+03	1.859112E-01	1.706553E-03
4.092664E+03	1.847524E-01	1.695756E-03
4.102317E+03	1.836205E-01	1.685211E-03
4.111969E+03	1.825152E-01	1.674911E-03
4.121622E+03	1.814327E-01	1.664824E-03
4.131274E+03	1.803745E-01	1.654962E-03
4.140927E+03	1.793399E-01	1.645320E-03
4.150579E+03	1.783286E-01	1.635894E-03
4.160232E+03	1.773400E-01	1.626678E-03
4.169884E+03	1.763720E-01	1.617654E-03
4.179537E+03	1.754273E-01	1.608846E-03
4.189189E+03	1.745020E-01	1.600219E-03
4.198842E+03	1.735989E-01	1.591797E-03
4.208494E+03	1.727171E-01	1.583574E-03
4.218147E+03	1.718577E-01	1.575557E-03
4.227799E+03	1.710199E-01	1.567741E-03
4.237452E+03	1.702045E-01	1.560133E-03
4.247104E+03	1.694109E-01	1.552727E-03
4.256757E+03	1.686413E-01	1.545543E-03
4.266409E+03	1.678949E-01	1.538574E-03
4.276062E+03	1.671709E-01	1.531812E-03
4.285714E+03	1.664716E-01	1.525279E-03
4.295367E+03	1.657960E-01	1.518966E-03
4.305019E+03	1.651450E-01	1.512879E-03
4.314672E+03	1.645206E-01	1.507038E-03
4.324324E+03	1.639205E-01	1.501422E-03
4.333977E+03	1.633467E-01	1.496049E-03
4.343629E+03	1.628000E-01	1.490925E-03
4.353282E+03	1.622792E-01	1.486042E-03
4.362934E+03	1.617852E-01	1.481405E-03
4.372587E+03	1.613183E-01	1.477019E-03
4.382239E+03	1.608793E-01	1.472890E-03
4.391892E+03	1.604686E-01	1.469022E-03
4.401544E+03	1.600854E-01	1.465406E-03
4.411197E+03	1.597285E-01	1.462035E-03
4.420849E+03	1.594017E-01	1.458939E-03
4.430502E+03	1.591024E-01	1.456098E-03
4.440154E+03	1.588296E-01	1.453500E-03
4.449807E+03	1.585852E-01	1.451165E-03
4.459459E+03	1.583699E-01	1.449098E-03
4.469112E+03	1.581795E-01	1.447259E-03
4.478764E+03	1.580191E-01	1.445697E-03
4.488417E+03	1.578829E-01	1.444358E-03
4.498069E+03	1.577744E-01	1.443275E-03
4.507722E+03	1.576926E-01	1.442436E-03
4.517375E+03	1.576361E-01	1.441831E-03
4.527027E+03	1.576039E-01	1.441449E-03
4.536680E+03	1.575945E-01	1.441279E-03
4.546332E+03	1.576098E-01	1.441335E-03
4.555985E+03	1.576469E-01	1.441593E-03
4.565637E+03	1.577043E-01	1.442037E-03
4.575290E+03	1.577820E-01	1.442669E-03
4.584942E+03	1.578754E-01	1.443445E-03
4.594595E+03	1.579873E-01	1.444393E-03
4.604247E+03	1.581111E-01	1.445451E-03
4.613900E+03	1.582482E-01	1.446632E-03
4.623552E+03	1.583963E-01	1.447916E-03
4.633205E+03	1.585499E-01	1.449251E-03
4.642857E+03	1.587080E-01	1.450629E-03
4.652510E+03	1.588692E-01	1.452038E-03
4.662162E+03	1.590273E-01	1.453420E-03
4.671815E+03	1.591802E-01	1.454756E-03
4.681467E+03	1.593238E-01	1.456009E-03
4.691120E+03	1.594522E-01	1.457124E-03
4.700772E+03	1.595602E-01	1.458056E-03
4.710425E+03	1.596480E-01	1.458804E-03
4.720077E+03	1.597171E-01	1.459384E-03
4.729730E+03	1.597726E-01	1.459841E-03
4.739382E+03	1.598140E-01	1.460171E-03
4.749035E+03	1.598454E-01	1.460411E-03
4.758687E+03	1.598687E-01	1.460579E-03
4.768340E+03	1.598841E-01	1.460677E-03
4.777992E+03	1.598947E-01	1.460732E-03
4.787645E+03	1.598999E-01	1.460741E-03
4.797297E+03	1.599026E-01	1.460728E-03
4.806950E+03	1.599018E-01	1.460684E-03
4.816602E+03	1.598983E-01	1.460618E-03
4.826255E+03	1.598911E-01	1.460520E-03
4.835907E+03	1.598840E-01	1.460425E-03
4.845560E+03	1.598741E-01	1.460306E-03
4.855212E+03	1.598619E-01	1.460166E-03
4.864865E+03	1.598492E-01	1.460025E-03
4.874517E+03	1.598347E-01	1.459868E-03
4.884170E+03	1.598186E-01	1.459698E-03
4.893822E+03	1.598010E-01	1.459516E-03
4.903475E+03	1.597821E-01	1.459324E-03
4.913127E+03	1.597604E-01	1.459108E-03
4.922780E+03	1.597359E-01	1.458868E-03
4.932432E+03	1.597103E-01	1.458619E-03
4.942085E+03	1.596804E-01	1.458333E-03
4.951737E+03	1.596495E-01	1.458039E-03
4.961390E+03	1.596126E-01	1.457692E-03
4.971042E+03	1.595732E-01	1.457322E-03
4.980695E+03	1.595294E-01	1.456914E-03
4.990347E+03	1.594812E-01	1.456469E-03
5.000000E+03	1.594287E-01	1.455985E-03
5.009653E+03	1.593703E-01	1.455448E-03
5.019305E+03	1.593058E-01	1.454857E-03
5.028958E+03	1.592337E-01	1.454198E-03
5.038610E+03	1.591572E-01	1.453500E-03
5.048263E+03	1.590713E-01	1.452718E-03
5.057915E+03	1.589779E-01	1.451868E-03
5.067568E+03	1.588767E-01	1.450949E-03
5.077220E+03	1.587680E-01	1.449962E-03
5.086873E+03	1.586484E-01	1.448878E-03
5.096525E+03	1.585197E-01	1.447711E-03
5.106178E+03	1.583802E-01	1.446447E-03
5.115830E+03	1.582302E-01	1.445088E-03
5.125483E+03	1.580680E-01	1.443619E-03
5.135135E+03	1.578954E-01	1.442057E-03
5.144788E+03	1.577093E-01	1.440372E-03
5.154440E+03	1.575099E-01	1.438567E-03
5.164093E+03	1.572958E-01	1.436629E-03
5.173745E+03	1.570688E-01	1.434573E-03
5.183398E+03	1.568242E-01	1.432359E-03
5.193050E+03	1.565640E-01	1.430002E-03
5.202703E+03	1.562868E-01	1.427492E-03
5.212355E+03	1.559913E-01	1.424816E-03
5.222008E+03	1.556732E-01	1.421934E-03
5.231660E+03	1.553312E-01	1.418836E-03
5.241313E+03	1.549643E-01	1.415510E-03
5.250965E+03	1.545650E-01	1.411890E-03
5.260618E+03	1.541324E-01	1.407965E-03
5.270270E+03	1.536607E-01	1.403686E-03
5.279923E+03	1.531475E-01	1.399028E-03
5.289575E+03	1.525981E-01	1.394040E-03
5.299228E+03	1.520116E-01	1.388713E-03
5.308880E+03	1.513932E-01	1.383096E-03
5.318533E+03	1.507450E-01	1.377208E-03
5.328185E+03	1.500738E-01	1.371109E-03
5.337838E+03	1.493785E-01	1.364792E-03
5.347490E+03	1.486629E-01	1.358290E-03
5.357143E+03	1.479275E-01	1.351607E-03
5.366795E+03	1.471773E-01	1.344790E-03
5.376448E+03	1.464115E-01	1.337831E-03
5.386100E+03	1.456320E-01	1.330747E-03
5.395753E+03	1.448395E-01	1.323544E-03
5.405405E+03	1.440373E-01	1.316254E-03
5.415058E+03	1.432247E-01	1.308869E-03
5.424710E+03	1.424034E-01	1.301405E-03
5.434363E+03	1.415756E-01	1.293882E-03
5.444015E+03	1.407417E-01	1.286303E-03
5.453668E+03	1.399036E-01	1.278687E-03
5.463320E+03	1.390604E-01	1.271024E-03
5.472973E+03	1.382140E-01	1.263332E-03
5.482625E+03	1.373662E-01	1.255628E-03
5.492278E+03	1.365176E-01	1.247916E-03
5.501931E+03	1.356684E-01	1.240200E-03
5.511583E+03	1.348192E-01	1.232483E-03
5.521236E+03	1.339732E-01	1.224796E-03
5.530888E+03	1.331279E-01	1.217115E-03
5.540541E+03	1.322864E-01	1.209470E-03
5.550193E+03	1.314492E-01	1.201864E-03
5.559846E+03	1.306151E-01	1.194286E-03
5.569498E+03	1.297859E-01	1.186754E-03
5.579151E+03	1.289632E-01	1.179281E-03
5.588803E+03	1.281460E-01	1.171858E-03
5.598456E+03	1.273346E-01	1.164488E-03
5.608108E+03	1.265318E-01	1.157197E-03
5.617761E+03	1.257352E-01	1.149964E-03
5.627413E+03	1.249464E-01	1.142801E-03
5.637066E+03	1.241656E-01	1.135711E-03
5.646718E+03	1.233930E-01	1.128697E-03
5.656371E+03	1.226300E-01	1.121770E-03
5.666023E+03	1.218741E-01	1.114909E-03
5.675676E+03	1.211281E-01	1.108138E-03
5.685328E+03	1.203909E-01	1.101447E-03
5.694981E+03	1.196624E-01	1.094836E-03
5.704633E+03	1.189427E-01	1.088307E-03
5.714286E+03	1.182320E-01	1.081858E-03
5.723938E+03	1.175315E-01	1.075504E-03
5.733591E+03	1.168386E-01	1.069219E-03
5.743243E+03	1.161533E-01	1.063003E-03
5.752896E+03	1.154769E-01	1.056869E-03
5.762548E+03	1.148094E-01	1.050816E-03
5.772201E+03	1.141479E-01	1.044819E-03
5.781853E+03	1.134952E-01	1.038902E-03
5.791506E+03	1.128471E-01	1.033027E-03
5.801158E+03	1.122075E-01	1.027229E-03
5.810811E+03	1.115722E-01	1.021472E-03
5.820463E+03	1.109412E-01	1.015753E-03
5.830116E+03	1.103154E-01	1.010082E-03
5.839768E+03	1.096935E-01	1.004446E-03
5.849421E+03	1.090751E-01	9.988429E-04
5.859073E+03	1.084574E-01	9.932459E-04
5.868726E+03	1.078428E-01	9.876771E-04
5.878378E+03	1.072270E-01	9.820976E-04
5.888031E+03	1.066123E-01	9.765283E-04
5.897683E+03	1.059972E-01	9.709545E-04
5.907336E+03	1.053799E-01	9.653608E-04
5.916988E+03	1.047601E-01	9.597442E-04
5.926641E+03	1.041387E-01	9.541126E-04
5.936293E+03	1.035139E-01	9.484508E-04
5.945946E+03	1.028855E-01	9.427548E-04
5.955598E+03	1.022555E-01	9.370439E-04
5.965251E+03	1.016209E-01	9.312910E-04
5.974903E+03	1.009825E-01	9.255030E-04
5.984556E+03	1.003412E-01	9.196881E-04
5.994208E+03	9.969769E-02	9.138534E-04
6.003861E+03	9.905035E-02	9.079829E-04
6.013514E+03	9.839867E-02	9.020725E-04
6.023166E+03	9.774347E-02	8.961295E-04
6.032819E+03	9.708305E-02	8.901385E-04
6.042471E+03	9.641824E-02	8.841068E-04
6.052124E+03	9.574865E-02	8.780311E-04
6.061776E+03	9.507517E-02	8.719194E-04
6.071429E+03	9.439744E-02	8.657685E-04
6.081081E+03	9.371515E-02	8.595754E-04
6.090734E+03	9.302932E-02	8.533494E-04
6.100386E+03	9.234099E-02	8.471002E-04
6.110039E+03	9.164873E-02	8.408145E-04
6.119691E+03	9.095366E-02	8.345025E-04
6.129344E+03	9.025707E-02	8.281762E-04
6.138996E+03	8.955769E-02	8.218238E-04
6.148649E+03	8.885814E-02	8.154693E-04
6.158301E+03	8.815860E-02	8.091144E-04
6.167954E+03	8.745931E-02	8.027611E-04
6.177606E+03	8.676047E-02	7.964115E-04
6.187259E+03	8.606487E-02	7.900910E-04
6.196911E+03	8.537139E-02	7.837894E-04
6.206564E+03	8.468252E-02	7.775295E-04
6.216216E+03	8.399800E-02	7.713089E-04
6.225869E+03	8.331755E-02	7.651250E-04
6.235521E+03	8.264242E-02	7.589893E-04
6.245174E+03	8.197235E-02	7.528994E-04
6.254826E+03	8.130819E-02	7.468632E-04
6.264479E+03	8.064690E-02	7.408525E-04
6.274131E+03	7.999047E-02	7.348858E-04
6.283784E+03	7.933841E-02	7.289587E-04
6.293436E+03	7.868905E-02	7.230556E-04
6.303089E+03	7.804332E-02	7.171850E-04
6.312741E+03	7.740098E-02	7.113450E-04
6.322394E+03	7.676181E-02	7.055333E-04
6.332046E+03	7.612576E-02	6.997495E-04
6.341699E+03	7.549399E-02	6.940043E-04
6.351351E+03	7.486526E-02	6.882864E-04
6.361004E+03	7.423963E-02	6.825960E-04
6.370656E+03	7.361845E-02	6.769460E-04
6.380309E+03	7.300179E-02	6.713366E-04
6.389961E+03	7.238862E-02	6.657585E-04
6.399614E+03	7.178030E-02	6.602242E-04
6.409266E+03	7.117584E-02	6.547246E-04
6.418919E+03	7.057778E-02	6.492831E-04
6.428571E+03	6.998397E-02	6.438798E-04
6.438224E+03	6.939458E-02	6.385165E-04
6.447876E+03	6.881106E-02	6.332062E-04
6.457529E+03	6.823357E-02	6.279508E-04
6.467181E+03	6.766118E-02	6.227413E-04
6.476834E+03	6.709404E-02	6.175794E-04
6.486486E+03	6.653358E-02	6.124782E-04
6.496139E+03	6.597880E-02	6.074285E-04
6.505792E+03	6.543108E-02	6.024428E-04
6.515444E+03	6.488822E-02	5.975012E-04
6.525097E+03	6.435277E-02	5.926269E-04
6.534749E+03	6.382255E-02	5.878001E-04
6.544402E+03	6.330004E-02	5.830434E-04
6.554054E+03	6.278311E-02	5.783373E-04
6.563707E+03	6.227302E-02	5.736935E-04
6.573359E+03	6.176992E-02	5.691132E-04
6.583012E+03	6.127279E-02	5.645871E-04
6.592664E+03	6.078291E-02	5.601271E-04
6.602317E+03	6.029923E-02	5.557234E-04
6.611969E+03	5.982300E-02	5.513876E-04
6.621622E+03	5.935208E-02	5.471000E-04
6.631274E+03	5.888880E-02	5.428821E-04
6.640927E+03	5.843210E-02	5.387241E-04
6.650579E+03	5.798212E-02	5.346272E-04
6.660232E+03	5.753776E-02	5.305814E-04
6.669884E+03	5.710132E-02	5.266080E-04
6.679537E+03	5.666956E-02	5.226769E-04
6.689189E+03	5.624584E-02	5.188193E-04
6.698842E+03	5.582803E-02	5.150155E-04
6.708494E+03	5.541615E-02	5.112657E-04
6.718147E+03	5.501136E-02	5.075806E-04
6.727799E+03	5.461261E-02	5.039505E-04
6.737452E+03	5.421992E-02	5.003757E-04
6.747104E+03	5.383334E-02	4.968566E-04
6.756757E+03	5.345290E-02	4.933935E-04
6.766409E+03	5.307863E-02	4.899866E-04
6.776062E+03	5.270949E-02	4.866264E-04
6.785714E+03	5.234763E-02	4.833328E-04
6.795367E+03	5.198989E-02	4.800767E-04
6.805019E+03	5.163949E-02	4.768876E-04
6.814672E+03	5.129326E-02	4.737365E-04
6.824324E+03	5.095333E-02	4.706429E-04
6.833977E+03	5.061870E-02	4.675976E-04
6.843629E+03	5.028938E-02	4.646008E-04
6.853282E+03	4.996639E-02	4.616618E-04
6.862934E+03	4.964771E-02	4.587621E-04
6.872587E+03	4.933443E-02	4.559117E-04
6.882239E+03	4.902551E-02	4.531010E-04
6.891892E+03	4.872201E-02	4.503399E-04
6.901544E+03	4.842397E-02	4.476286E-04
6.911197E+03	4.813036E-02	4.449578E-04
6.920849E+03	4.784224E-02	4.423370E-04
6.930502E+03	4.755767E-02	4.397486E-04
6.940154E+03	4.727865E-02	4.372111E-04
6.949807E+03	4.700420E-02	4.347152E-04
6.959459E+03	4.673347E-02	4.322532E-04
6.969112E+03	4.646738E-02	4.298336E-04
6.978764E+03	4.620604E-02	4.274574E-04
6.988417E+03	4.594851E-02	4.251159E-04
6.998069E+03	4.569484E-02	4.228097E-04
7.007722E+03	4.544511E-02	4.205395E-04
7.017375E+03	4.519937E-02	4.183056E-04
7.027027E+03	4.495768E-02	4.161089E-04
7.036680E+03	4.471825E-02	4.139324E-04
7.046332E+03	4.448302E-02	4.117945E-04
7.055985E+03	4.425115E-02	4.096871E-04
7.065637E+03	4.402177E-02	4.076023E-04
7.075290E+03	4.379591E-02	4.055497E-04
7.084942E+03	4.357181E-02	4.035130E-04
7.094595E+03	4.334956E-02	4.014929E-04
7.104247E+03	4.312929E-02	3.994907E-04
7.113900E+03	4.291019E-02	3.974988E-04
7.123552E+03	4.269323E-02	3.955264E-04
7.133205E+03	4.247587E-02	3.935498E-04
7.142857E+03	4.225997E-02	3.915863E-04
7.152510E+03	4.204386E-02	3.896204E-04
7.162162E+03	4.182852E-02	3.876612E-04
7.171815E+03	4.161319E-02	3.857016E-04
7.181467E+03	4.139794E-02	3.837424E-04
7.191120E+03	4.118374E-02	3.817924E-04
7.200772E+03	4.096979E-02	3.798443E-04
7.210425E+03	4.075878E-02	3.779231E-04
7.220077E+03	4.054904E-02	3.760132E-04
7.229730E+03	4.034232E-02	3.741308E-04
7.239382E+03	4.013777E-02	3.722681E-04
7.249035E+03	3.993806E-02	3.704500E-04
7.258687E+03	3.974229E-02	3.686679E-04
7.268340E+03	3.955044E-02	3.669218E-04
7.277992E+03	3.936337E-02	3.652196E-04
7.287645E+03	3.918106E-02	3.635613E-04
7.297297E+03	3.900518E-02	3.619621E-04
7.306950E+03	3.883395E-02	3.604058E-04
7.316602E+03	3.866815E-02	3.588996E-04
7.326255E+03	3.850862E-02	3.574511E-04
7.335907E+03	3.835440E-02	3.560516E-04
7.345560E+03	3.820624E-02	3.547081E-04
7.355212E+03	3.806326E-02	3.534122E-04
7.364865E+03	3.792701E-02	3.521786E-04
7.374517E+03	3.779571E-02	3.509906E-04
7.384170E+03	3.767097E-02	3.498633E-04
7.393822E+03	3.755097E-02	3.487797E-04
7.403475E+03	3.743734E-02	3.477549E-04
7.413127E+03	3.732825E-02	3.467720E-04
7.422780E+03	3.722527E-02	3.458458E-04
7.432432E+03	3.712746E-02	3.449672E-04
7.442085E+03	3.703474E-02	3.441357E-04
7.451737E+03	3.694698E-02	3.433501E-04
7.461390E+03	3.686407E-02	3.426093E-04
7.471042E+03	3.678592E-02	3.419126E-04
7.480695E+03	3.671159E-02	3.412511E-04
7.490347E+03	3.664269E-02	3.406399E-04
