#wls	flux	fluxerr
1.544402E+03	4.889626E-02	1.273447E-03
1.583012E+03	5.176403E-02	1.346520E-03
1.621622E+03	5.484492E-02	1.424908E-03
1.660232E+03	5.816371E-02	1.509224E-03
1.698842E+03	6.172181E-02	1.599474E-03
1.737452E+03	6.554931E-02	1.696402E-03
1.776062E+03	6.963743E-02	1.799742E-03
1.814672E+03	7.400164E-02	1.909855E-03
1.853282E+03	7.864087E-02	2.026670E-03
1.891892E+03	8.353984E-02	2.149749E-03
1.930502E+03	8.872042E-02	2.279612E-03
1.969112E+03	9.422165E-02	2.417210E-03
2.007722E+03	1.001514E-01	2.565251E-03
2.046332E+03	1.066973E-01	2.728464E-03
2.084942E+03	1.140632E-01	2.911953E-03
2.123552E+03	1.223535E-01	3.118251E-03
2.162162E+03	1.315125E-01	3.345794E-03
2.200772E+03	1.413931E-01	3.590702E-03
2.239382E+03	1.518731E-01	3.849740E-03
2.277992E+03	1.629421E-01	4.122532E-03
2.316602E+03	1.746081E-01	4.409158E-03
2.355212E+03	1.869119E-01	4.710517E-03
2.393822E+03	1.998674E-01	5.026822E-03
2.432432E+03	2.135096E-01	5.358807E-03
2.471042E+03	2.278407E-01	5.706374E-03
2.509653E+03	2.428704E-01	6.069603E-03
2.548263E+03	2.585646E-01	6.447479E-03
2.586873E+03	2.748700E-01	6.838508E-03
2.625483E+03	2.917120E-01	7.240678E-03
2.664093E+03	3.089643E-01	7.650709E-03
2.702703E+03	3.264767E-01	8.064756E-03
2.741313E+03	3.440663E-01	8.478203E-03
2.779923E+03	3.615494E-01	8.886456E-03
2.818533E+03	3.787624E-01	9.285465E-03
2.857143E+03	3.955641E-01	9.671767E-03
2.895753E+03	4.118556E-01	1.004297E-02
2.905405E+03	4.158389E-01	1.013318E-02
2.915058E+03	4.197761E-01	1.022210E-02
2.924710E+03	4.236817E-01	1.031009E-02
2.934363E+03	4.275333E-01	1.039660E-02
2.944015E+03	4.313487E-01	1.048208E-02
2.953668E+03	4.351270E-01	1.056649E-02
2.963320E+03	4.388719E-01	1.064993E-02
2.972973E+03	4.425591E-01	1.073181E-02
2.982625E+03	4.462113E-01	1.081268E-02
2.992278E+03	4.498046E-01	1.089197E-02
3.001931E+03	4.533517E-01	1.096998E-02
3.011583E+03	4.568477E-01	1.104660E-02
3.021236E+03	4.602780E-01	1.112148E-02
3.030888E+03	4.636556E-01	1.119494E-02
3.040541E+03	4.669663E-01	1.126662E-02
3.050193E+03	4.702142E-01	1.133664E-02
3.059846E+03	4.733944E-01	1.140489E-02
3.069498E+03	4.765018E-01	1.147123E-02
3.079151E+03	4.795404E-01	1.153577E-02
3.088803E+03	4.825056E-01	1.159840E-02
3.098456E+03	4.853842E-01	1.165881E-02
3.108108E+03	4.881893E-01	1.171732E-02
3.117761E+03	4.909075E-01	1.177361E-02
3.127413E+03	4.935433E-01	1.182779E-02
3.137066E+03	4.960929E-01	1.187977E-02
3.146718E+03	4.985440E-01	1.192927E-02
3.156371E+03	5.009095E-01	1.197660E-02
3.166023E+03	5.031699E-01	1.202129E-02
3.175676E+03	5.053375E-01	1.206365E-02
3.185328E+03	5.074096E-01	1.210361E-02
3.194981E+03	5.093676E-01	1.214075E-02
3.204633E+03	5.112249E-01	1.217537E-02
3.214286E+03	5.129783E-01	1.220742E-02
3.223938E+03	5.146189E-01	1.223668E-02
3.233591E+03	5.161445E-01	1.226312E-02
3.243243E+03	5.175544E-01	1.228671E-02
3.252896E+03	5.188467E-01	1.230743E-02
3.262548E+03	5.200210E-01	1.232526E-02
3.272201E+03	5.210766E-01	1.234021E-02
3.281853E+03	5.220064E-01	1.235210E-02
3.291506E+03	5.228039E-01	1.236079E-02
3.301158E+03	5.234831E-01	1.236663E-02
3.310811E+03	5.240252E-01	1.236916E-02
3.320463E+03	5.244378E-01	1.236859E-02
3.330116E+03	5.247165E-01	1.236481E-02
3.339768E+03	5.248633E-01	1.235789E-02
3.349421E+03	5.248685E-01	1.234759E-02
3.359073E+03	5.247286E-01	1.233385E-02
3.368726E+03	5.244481E-01	1.231678E-02
3.378378E+03	5.240184E-01	1.229619E-02
3.388031E+03	5.234444E-01	1.227220E-02
3.397683E+03	5.227082E-01	1.224440E-02
3.407336E+03	5.218158E-01	1.221294E-02
3.416988E+03	5.207566E-01	1.217759E-02
3.426641E+03	5.195269E-01	1.213826E-02
3.436293E+03	5.181235E-01	1.209491E-02
3.445946E+03	5.165341E-01	1.204724E-02
3.455598E+03	5.147676E-01	1.199548E-02
3.465251E+03	5.128185E-01	1.193951E-02
3.474903E+03	5.106813E-01	1.187921E-02
3.484556E+03	5.083671E-01	1.181487E-02
3.494208E+03	5.058672E-01	1.174628E-02
3.503861E+03	5.031835E-01	1.167350E-02
3.513514E+03	5.003186E-01	1.159660E-02
3.523166E+03	4.972752E-01	1.151567E-02
3.532819E+03	4.940565E-01	1.143078E-02
3.542471E+03	4.906664E-01	1.134204E-02
3.552124E+03	4.871133E-01	1.124965E-02
3.561776E+03	4.834053E-01	1.115381E-02
3.571429E+03	4.795463E-01	1.105462E-02
3.581081E+03	4.755576E-01	1.095259E-02
3.590734E+03	4.714382E-01	1.084770E-02
3.600386E+03	4.672043E-01	1.074033E-02
3.610039E+03	4.628634E-01	1.063066E-02
3.619691E+03	4.584267E-01	1.051895E-02
3.629344E+03	4.539121E-01	1.040563E-02
3.638996E+03	4.493187E-01	1.029068E-02
3.648649E+03	4.446634E-01	1.017448E-02
3.658301E+03	4.399594E-01	1.005736E-02
3.667954E+03	4.352079E-01	9.939343E-03
3.677606E+03	4.304244E-01	9.820779E-03
3.687259E+03	4.256203E-01	9.701935E-03
3.696911E+03	4.207990E-01	9.582891E-03
3.706564E+03	4.159673E-01	9.463808E-03
3.716216E+03	4.111420E-01	9.345064E-03
3.725869E+03	4.063218E-01	9.226631E-03
3.735521E+03	4.015188E-01	9.108784E-03
3.745174E+03	3.967379E-01	8.991637E-03
3.754826E+03	3.919865E-01	8.875354E-03
3.764479E+03	3.872717E-01	8.760096E-03
3.774131E+03	3.825941E-01	8.645873E-03
3.783784E+03	3.779602E-01	8.532833E-03
3.793436E+03	3.733784E-01	8.421162E-03
3.803089E+03	3.688518E-01	8.310924E-03
3.812741E+03	3.643819E-01	8.202157E-03
3.822394E+03	3.599738E-01	8.094965E-03
3.832046E+03	3.556290E-01	7.989385E-03
3.841699E+03	3.513515E-01	7.885499E-03
3.851351E+03	3.471451E-01	7.783390E-03
3.861004E+03	3.430129E-01	7.683125E-03
3.870656E+03	3.389534E-01	7.584662E-03
3.880309E+03	3.349692E-01	7.488057E-03
3.889961E+03	3.310630E-01	7.393367E-03
3.899614E+03	3.272373E-01	7.300644E-03
3.909266E+03	3.234918E-01	7.209873E-03
3.918919E+03	3.198264E-01	7.121051E-03
3.928571E+03	3.162428E-01	7.034206E-03
3.938224E+03	3.127402E-01	6.949322E-03
3.947876E+03	3.093206E-01	6.866431E-03
3.957529E+03	3.059830E-01	6.785512E-03
3.967181E+03	3.027286E-01	6.706584E-03
3.976834E+03	2.995566E-01	6.629624E-03
3.986486E+03	2.964659E-01	6.554604E-03
3.996139E+03	2.934572E-01	6.481534E-03
4.005792E+03	2.905298E-01	6.410391E-03
4.015444E+03	2.876843E-01	6.341186E-03
4.025097E+03	2.849172E-01	6.273838E-03
4.034749E+03	2.822295E-01	6.208362E-03
4.044402E+03	2.796174E-01	6.144668E-03
4.054054E+03	2.770841E-01	6.082825E-03
4.063707E+03	2.746258E-01	6.022743E-03
4.073359E+03	2.722431E-01	5.964432E-03
4.083012E+03	2.699307E-01	5.907769E-03
4.092664E+03	2.676910E-01	5.852804E-03
4.102317E+03	2.655185E-01	5.799413E-03
4.111969E+03	2.634163E-01	5.747657E-03
4.121622E+03	2.613783E-01	5.697401E-03
4.131274E+03	2.594014E-01	5.648572E-03
4.140927E+03	2.574881E-01	5.601220E-03
4.150579E+03	2.556310E-01	5.555184E-03
4.160232E+03	2.538330E-01	5.510519E-03
4.169884E+03	2.520862E-01	5.467055E-03
4.179537E+03	2.503937E-01	5.424853E-03
4.189189E+03	2.487518E-01	5.383828E-03
4.198842E+03	2.471571E-01	5.343907E-03
4.208494E+03	2.456106E-01	5.305107E-03
4.218147E+03	2.441103E-01	5.267384E-03
4.227799E+03	2.426590E-01	5.230794E-03
4.237452E+03	2.412532E-01	5.195257E-03
4.247104E+03	2.398971E-01	5.160864E-03
4.256757E+03	2.385912E-01	5.127622E-03
4.266409E+03	2.373359E-01	5.095535E-03
4.276062E+03	2.361311E-01	5.064601E-03
4.285714E+03	2.349797E-01	5.034875E-03
4.295367E+03	2.338796E-01	5.006313E-03
4.305019E+03	2.328330E-01	4.978957E-03
4.314672E+03	2.318406E-01	4.952818E-03
4.324324E+03	2.309023E-01	4.927892E-03
4.333977E+03	2.300165E-01	4.904143E-03
4.343629E+03	2.291834E-01	4.881571E-03
4.353282E+03	2.284016E-01	4.860144E-03
4.362934E+03	2.276731E-01	4.839900E-03
4.372587E+03	2.269945E-01	4.820767E-03
4.382239E+03	2.263660E-01	4.802743E-03
4.391892E+03	2.257876E-01	4.785828E-03
4.401544E+03	2.252561E-01	4.769949E-03
4.411197E+03	2.247733E-01	4.755144E-03
4.420849E+03	2.243360E-01	4.741342E-03
4.430502E+03	2.239441E-01	4.728538E-03
4.440154E+03	2.235940E-01	4.716655E-03
4.449807E+03	2.232878E-01	4.705735E-03
4.459459E+03	2.230238E-01	4.695739E-03
4.469112E+03	2.227982E-01	4.686586E-03
4.478764E+03	2.226110E-01	4.678275E-03
4.488417E+03	2.224625E-01	4.670809E-03
4.498069E+03	2.223506E-01	4.664143E-03
4.507722E+03	2.222716E-01	4.658197E-03
4.517375E+03	2.222292E-01	4.653049E-03
4.527027E+03	2.222235E-01	4.648699E-03
4.536680E+03	2.222505E-01	4.645062E-03
4.546332E+03	2.223102E-01	4.642134E-03
4.555985E+03	2.224024E-01	4.639914E-03
4.565637E+03	2.225210E-01	4.638272E-03
4.575290E+03	2.226659E-01	4.637204E-03
4.584942E+03	2.228328E-01	4.636622E-03
4.594595E+03	2.230216E-01	4.636521E-03
4.604247E+03	2.232299E-01	4.636853E-03
4.613900E+03	2.234534E-01	4.637527E-03
4.623552E+03	2.236918E-01	4.638538E-03
4.633205E+03	2.239407E-01	4.639794E-03
4.642857E+03	2.241999E-01	4.641289E-03
4.652510E+03	2.244647E-01	4.642931E-03
4.662162E+03	2.247329E-01	4.644671E-03
4.671815E+03	2.250020E-01	4.646461E-03
4.681467E+03	2.252720E-01	4.648297E-03
4.691120E+03	2.255385E-01	4.650093E-03
4.700772E+03	2.257999E-01	4.651812E-03
4.710425E+03	2.260525E-01	4.653380E-03
4.720077E+03	2.262995E-01	4.654863E-03
4.729730E+03	2.265381E-01	4.656201E-03
4.739382E+03	2.267676E-01	4.657385E-03
4.749035E+03	2.269857E-01	4.658364E-03
4.758687E+03	2.271941E-01	4.659174E-03
4.768340E+03	2.273904E-01	4.659768E-03
4.777992E+03	2.275745E-01	4.660142E-03
4.787645E+03	2.277484E-01	4.660336E-03
4.797297E+03	2.279095E-01	4.660302E-03
4.806950E+03	2.280579E-01	4.660038E-03
4.816602E+03	2.281911E-01	4.659495E-03
4.826255E+03	2.283112E-01	4.658716E-03
4.835907E+03	2.284180E-01	4.657698E-03
4.845560E+03	2.285092E-01	4.656394E-03
4.855212E+03	2.285847E-01	4.654802E-03
4.864865E+03	2.286445E-01	4.652921E-03
4.874517E+03	2.286860E-01	4.650703E-03
4.884170E+03	2.287115E-01	4.648191E-03
4.893822E+03	2.287208E-01	4.645384E-03
4.903475E+03	2.287094E-01	4.642190E-03
4.913127E+03	2.286794E-01	4.638652E-03
4.922780E+03	2.286307E-01	4.634769E-03
4.932432E+03	2.285610E-01	4.630494E-03
4.942085E+03	2.284703E-01	4.625826E-03
4.951737E+03	2.283583E-01	4.620766E-03
4.961390E+03	2.282251E-01	4.615310E-03
4.971042E+03	2.280685E-01	4.609416E-03
4.980695E+03	2.278905E-01	4.603126E-03
4.990347E+03	2.276868E-01	4.596353E-03
5.000000E+03	2.274596E-01	4.589141E-03
5.009653E+03	2.272066E-01	4.581448E-03
5.019305E+03	2.269280E-01	4.573274E-03
5.028958E+03	2.266238E-01	4.564623E-03
5.038610E+03	2.262942E-01	4.555498E-03
5.048263E+03	2.259349E-01	4.545812E-03
5.057915E+03	2.255505E-01	4.535661E-03
5.067568E+03	2.251391E-01	4.525004E-03
5.077220E+03	2.247007E-01	4.513846E-03
5.086873E+03	2.242337E-01	4.502151E-03
5.096525E+03	2.237382E-01	4.489927E-03
5.106178E+03	2.232148E-01	4.477179E-03
5.115830E+03	2.226636E-01	4.463918E-03
5.125483E+03	2.220854E-01	4.450154E-03
5.135135E+03	2.214782E-01	4.435852E-03
5.144788E+03	2.208471E-01	4.421112E-03
5.154440E+03	2.201882E-01	4.405857E-03
5.164093E+03	2.195022E-01	4.390100E-03
5.173745E+03	2.187939E-01	4.373941E-03
5.183398E+03	2.180597E-01	4.357306E-03
5.193050E+03	2.173046E-01	4.340297E-03
5.202703E+03	2.165273E-01	4.322885E-03
5.212355E+03	2.157305E-01	4.305127E-03
5.222008E+03	2.149128E-01	4.286997E-03
5.231660E+03	2.140794E-01	4.268594E-03
5.241313E+03	2.132289E-01	4.249894E-03
5.250965E+03	2.123642E-01	4.230953E-03
5.260618E+03	2.114820E-01	4.211706E-03
5.270270E+03	2.105851E-01	4.192210E-03
5.279923E+03	2.096724E-01	4.172442E-03
5.289575E+03	2.087427E-01	4.152378E-03
5.299228E+03	2.077990E-01	4.132078E-03
5.308880E+03	2.068381E-01	4.111479E-03
5.318533E+03	2.058590E-01	4.090559E-03
5.328185E+03	2.048625E-01	4.069339E-03
5.337838E+03	2.038457E-01	4.047757E-03
5.347490E+03	2.028117E-01	4.025876E-03
5.357143E+03	2.017553E-01	4.003595E-03
5.366795E+03	2.006820E-01	3.981018E-03
5.376448E+03	1.995906E-01	3.958126E-03
5.386100E+03	1.984803E-01	3.934903E-03
5.395753E+03	1.973523E-01	3.911370E-03
5.405405E+03	1.962077E-01	3.887551E-03
5.415058E+03	1.950456E-01	3.863428E-03
5.424710E+03	1.938712E-01	3.839103E-03
5.434363E+03	1.926816E-01	3.814519E-03
5.444015E+03	1.914819E-01	3.789777E-03
5.453668E+03	1.902693E-01	3.764821E-03
5.463320E+03	1.890487E-01	3.739749E-03
5.472973E+03	1.878212E-01	3.714582E-03
5.482625E+03	1.865860E-01	3.689303E-03
5.492278E+03	1.853460E-01	3.663971E-03
5.501931E+03	1.841022E-01	3.638604E-03
5.511583E+03	1.828575E-01	3.613259E-03
5.521236E+03	1.816129E-01	3.587957E-03
5.530888E+03	1.803675E-01	3.562676E-03
5.540541E+03	1.791258E-01	3.537510E-03
5.550193E+03	1.778888E-01	3.512476E-03
5.559846E+03	1.766555E-01	3.487553E-03
5.569498E+03	1.754286E-01	3.462794E-03
5.579151E+03	1.742107E-01	3.438252E-03
5.588803E+03	1.730027E-01	3.413941E-03
5.598456E+03	1.718034E-01	3.389839E-03
5.608108E+03	1.706154E-01	3.365997E-03
5.617761E+03	1.694411E-01	3.342464E-03
5.627413E+03	1.682814E-01	3.319253E-03
5.637066E+03	1.671350E-01	3.296340E-03
5.646718E+03	1.660043E-01	3.273774E-03
5.656371E+03	1.648900E-01	3.251564E-03
5.666023E+03	1.637944E-01	3.229758E-03
5.675676E+03	1.627179E-01	3.208365E-03
5.685328E+03	1.616594E-01	3.187360E-03
5.694981E+03	1.606211E-01	3.166787E-03
5.704633E+03	1.596017E-01	3.146619E-03
5.714286E+03	1.586068E-01	3.126970E-03
5.723938E+03	1.576316E-01	3.107742E-03
5.733591E+03	1.566782E-01	3.088976E-03
5.743243E+03	1.557487E-01	3.070714E-03
5.752896E+03	1.548416E-01	3.052925E-03
5.762548E+03	1.539571E-01	3.035616E-03
5.772201E+03	1.530973E-01	3.018824E-03
5.781853E+03	1.522604E-01	3.002518E-03
5.791506E+03	1.514485E-01	2.986735E-03
5.801158E+03	1.506580E-01	2.971407E-03
5.810811E+03	1.498926E-01	2.956606E-03
5.820463E+03	1.491487E-01	2.942260E-03
5.830116E+03	1.484297E-01	2.928439E-03
5.839768E+03	1.477303E-01	2.915036E-03
5.849421E+03	1.470538E-01	2.902116E-03
5.859073E+03	1.463982E-01	2.889640E-03
5.868726E+03	1.457632E-01	2.877603E-03
5.878378E+03	1.451449E-01	2.865928E-03
5.888031E+03	1.445463E-01	2.854675E-03
5.897683E+03	1.439617E-01	2.843729E-03
5.907336E+03	1.433939E-01	2.833148E-03
5.916988E+03	1.428369E-01	2.822814E-03
5.926641E+03	1.422899E-01	2.812709E-03
5.936293E+03	1.417503E-01	2.802783E-03
5.945946E+03	1.412169E-01	2.793013E-03
5.955598E+03	1.406834E-01	2.783274E-03
5.965251E+03	1.401485E-01	2.773539E-03
5.974903E+03	1.396090E-01	2.763746E-03
5.984556E+03	1.390634E-01	2.753864E-03
5.994208E+03	1.385099E-01	2.743860E-03
6.003861E+03	1.379505E-01	2.733769E-03
6.013514E+03	1.373884E-01	2.723659E-03
6.023166E+03	1.368236E-01	2.713527E-03
6.032819E+03	1.362576E-01	2.703401E-03
6.042471E+03	1.356916E-01	2.693310E-03
6.052124E+03	1.351254E-01	2.683245E-03
6.061776E+03	1.345602E-01	2.673231E-03
6.071429E+03	1.339953E-01	2.663256E-03
6.081081E+03	1.334302E-01	2.653307E-03
6.090734E+03	1.328658E-01	2.643405E-03
6.100386E+03	1.322996E-01	2.633497E-03
6.110039E+03	1.317325E-01	2.623602E-03
6.119691E+03	1.311601E-01	2.613628E-03
6.129344E+03	1.305814E-01	2.603555E-03
6.138996E+03	1.299935E-01	2.593326E-03
6.148649E+03	1.293956E-01	2.582922E-03
6.158301E+03	1.287830E-01	2.572249E-03
6.167954E+03	1.281532E-01	2.561252E-03
6.177606E+03	1.275016E-01	2.549841E-03
6.187259E+03	1.268225E-01	2.537897E-03
6.196911E+03	1.261119E-01	2.525342E-03
6.206564E+03	1.253686E-01	2.512145E-03
6.216216E+03	1.245918E-01	2.498289E-03
6.225869E+03	1.237814E-01	2.483771E-03
6.235521E+03	1.229401E-01	2.468642E-03
6.245174E+03	1.220712E-01	2.452963E-03
6.254826E+03	1.211765E-01	2.436772E-03
6.264479E+03	1.202564E-01	2.420074E-03
6.274131E+03	1.193171E-01	2.402988E-03
6.283784E+03	1.183610E-01	2.385563E-03
6.293436E+03	1.173887E-01	2.367811E-03
6.303089E+03	1.164045E-01	2.349815E-03
6.312741E+03	1.154109E-01	2.331622E-03
6.322394E+03	1.144083E-01	2.313239E-03
6.332046E+03	1.133987E-01	2.294708E-03
6.341699E+03	1.123879E-01	2.276142E-03
6.351351E+03	1.113723E-01	2.257469E-03
6.361004E+03	1.103573E-01	2.238795E-03
6.370656E+03	1.093445E-01	2.220154E-03
6.380309E+03	1.083319E-01	2.201502E-03
6.389961E+03	1.073244E-01	2.182939E-03
6.399614E+03	1.063198E-01	2.164419E-03
6.409266E+03	1.053227E-01	2.146036E-03
6.418919E+03	1.043307E-01	2.127739E-03
6.428571E+03	1.033465E-01	2.109583E-03
6.438224E+03	1.023710E-01	2.091586E-03
6.447876E+03	1.014032E-01	2.073728E-03
6.457529E+03	1.004438E-01	2.056022E-03
6.467181E+03	9.949527E-02	2.038517E-03
6.476834E+03	9.855631E-02	2.021188E-03
6.486486E+03	9.762745E-02	2.004045E-03
6.496139E+03	9.670917E-02	1.987098E-03
6.505792E+03	9.580182E-02	1.970354E-03
6.515444E+03	9.490573E-02	1.953820E-03
6.525097E+03	9.402120E-02	1.937501E-03
6.534749E+03	9.314683E-02	1.921369E-03
6.544402E+03	9.228444E-02	1.905461E-03
6.554054E+03	9.143425E-02	1.889782E-03
6.563707E+03	9.059472E-02	1.874301E-03
6.573359E+03	8.976763E-02	1.859053E-03
6.583012E+03	8.895146E-02	1.844009E-03
6.592664E+03	8.814627E-02	1.829168E-03
6.602317E+03	8.735209E-02	1.814532E-03
6.611969E+03	8.656901E-02	1.800104E-03
6.621622E+03	8.579861E-02	1.785915E-03
6.631274E+03	8.503773E-02	1.771900E-03
6.640927E+03	8.428796E-02	1.758094E-03
6.650579E+03	8.354927E-02	1.744494E-03
6.660232E+03	8.282010E-02	1.731069E-03
6.669884E+03	8.210198E-02	1.717852E-03
6.679537E+03	8.139483E-02	1.704840E-03
6.689189E+03	8.069711E-02	1.692002E-03
6.698842E+03	8.000875E-02	1.679336E-03
6.708494E+03	7.933125E-02	1.666875E-03
6.718147E+03	7.866302E-02	1.654585E-03
6.727799E+03	7.800397E-02	1.642464E-03
6.737452E+03	7.735407E-02	1.630512E-03
6.747104E+03	7.671325E-02	1.618728E-03
6.756757E+03	7.607997E-02	1.607079E-03
6.766409E+03	7.545708E-02	1.595627E-03
6.776062E+03	7.484156E-02	1.584307E-03
6.785714E+03	7.423485E-02	1.573150E-03
6.795367E+03	7.363533E-02	1.562123E-03
6.805019E+03	7.304299E-02	1.551224E-03
6.814672E+03	7.245913E-02	1.540482E-03
6.824324E+03	7.188226E-02	1.529867E-03
6.833977E+03	7.131086E-02	1.519344E-03
6.843629E+03	7.074768E-02	1.508973E-03
6.853282E+03	7.019121E-02	1.498723E-03
6.862934E+03	6.963990E-02	1.488561E-03
6.872587E+03	6.909509E-02	1.478514E-03
6.882239E+03	6.855529E-02	1.468552E-03
6.891892E+03	6.802176E-02	1.458702E-03
6.901544E+03	6.749302E-02	1.448932E-03
6.911197E+03	6.697038E-02	1.439270E-03
6.920849E+03	6.645094E-02	1.429654E-03
6.930502E+03	6.593598E-02	1.420112E-03
6.940154E+03	6.542677E-02	1.410672E-03
6.949807E+03	6.492046E-02	1.401272E-03
6.959459E+03	6.441699E-02	1.391911E-03
6.969112E+03	6.391759E-02	1.382615E-03
6.978764E+03	6.342222E-02	1.373384E-03
6.988417E+03	6.292938E-02	1.364185E-03
6.998069E+03	6.244038E-02	1.355047E-03
7.007722E+03	6.195377E-02	1.345939E-03
7.017375E+03	6.146954E-02	1.336860E-03
7.027027E+03	6.098890E-02	1.327837E-03
7.036680E+03	6.051054E-02	1.318841E-03
7.046332E+03	6.003570E-02	1.309899E-03
7.055985E+03	5.956306E-02	1.300983E-03
7.065637E+03	5.909261E-02	1.292093E-03
7.075290E+03	5.862697E-02	1.283286E-03
7.084942E+03	5.816356E-02	1.274505E-03
7.094595E+03	5.770500E-02	1.265809E-03
7.104247E+03	5.725007E-02	1.257170E-03
7.113900E+03	5.680014E-02	1.248620E-03
7.123552E+03	5.635650E-02	1.240186E-03
7.133205E+03	5.591808E-02	1.231845E-03
7.142857E+03	5.548753E-02	1.223657E-03
7.152510E+03	5.506495E-02	1.215623E-03
7.162162E+03	5.465179E-02	1.207777E-03
7.171815E+03	5.424827E-02	1.200124E-03
7.181467E+03	5.385454E-02	1.192668E-03
7.191120E+03	5.347213E-02	1.185443E-03
7.200772E+03	5.309878E-02	1.178400E-03
7.210425E+03	5.273482E-02	1.171547E-03
7.220077E+03	5.237924E-02	1.164862E-03
7.229730E+03	5.203361E-02	1.158380E-03
7.239382E+03	5.169696E-02	1.152082E-03
7.249035E+03	5.136832E-02	1.145944E-03
7.258687E+03	5.104790E-02	1.139974E-03
7.268340E+03	5.073589E-02	1.134175E-03
7.277992E+03	5.043114E-02	1.128523E-03
7.287645E+03	5.013487E-02	1.123044E-03
7.297297E+03	4.984463E-02	1.117685E-03
7.306950E+03	4.956265E-02	1.112497E-03
7.316602E+03	4.928753E-02	1.107448E-03
7.326255E+03	4.901895E-02	1.102532E-03
7.335907E+03	4.875547E-02	1.097716E-03
7.345560E+03	4.849787E-02	1.093018E-03
7.355212E+03	4.824580E-02	1.088432E-03
7.364865E+03	4.799886E-02	1.083948E-03
7.374517E+03	4.775555E-02	1.079532E-03
7.384170E+03	4.751670E-02	1.075205E-03
7.393822E+03	4.728074E-02	1.070930E-03
7.403475E+03	4.704982E-02	1.066756E-03
7.413127E+03	4.682008E-02	1.062596E-03
7.422780E+03	4.659479E-02	1.058525E-03
7.432432E+03	4.637260E-02	1.054512E-03
7.442085E+03	4.615211E-02	1.050526E-03
7.451737E+03	4.593435E-02	1.046589E-03
7.461390E+03	4.571914E-02	1.042699E-03
7.471042E+03	4.550643E-02	1.038853E-03
7.480695E+03	4.529603E-02	1.035049E-03
7.490347E+03	4.508908E-02	1.031312E-03
