#wls	flux	fluxerr
1.544402E+03	2.602563E-02	7.625061E-04
1.583012E+03	2.659100E-02	7.762787E-04
1.621622E+03	2.717026E-02	7.902657E-04
1.660232E+03	2.775781E-02	8.042943E-04
1.698842E+03	2.836318E-02	8.186310E-04
1.737452E+03	2.897770E-02	8.330136E-04
1.776062E+03	2.959648E-02	8.472925E-04
1.814672E+03	3.021309E-02	8.612761E-04
1.853282E+03	3.083198E-02	8.750848E-04
1.891892E+03	3.143556E-02	8.882132E-04
1.930502E+03	3.203508E-02	9.009767E-04
1.969112E+03	3.263151E-02	9.133969E-04
2.007722E+03	3.327758E-02	9.269365E-04
2.046332E+03	3.401641E-02	9.427622E-04
2.084942E+03	3.491056E-02	9.625517E-04
2.123552E+03	3.599463E-02	9.871761E-04
2.162162E+03	3.724922E-02	1.016010E-03
2.200772E+03	3.864878E-02	1.048271E-03
2.239382E+03	4.013859E-02	1.082399E-03
2.277992E+03	4.170328E-02	1.117923E-03
2.316602E+03	4.333494E-02	1.154577E-03
2.355212E+03	4.501297E-02	1.191764E-03
2.393822E+03	4.675995E-02	1.230034E-03
2.432432E+03	4.857074E-02	1.269197E-03
2.471042E+03	5.045651E-02	1.309487E-03
2.509653E+03	5.242876E-02	1.351137E-03
2.548263E+03	5.449032E-02	1.394147E-03
2.586873E+03	5.665165E-02	1.438709E-03
2.625483E+03	5.893173E-02	1.485216E-03
2.664093E+03	6.133140E-02	1.533593E-03
2.702703E+03	6.385947E-02	1.583956E-03
2.741313E+03	6.653332E-02	1.636625E-03
2.779923E+03	6.937009E-02	1.691895E-03
2.818533E+03	7.236716E-02	1.749564E-03
2.857143E+03	7.555932E-02	1.810328E-03
2.895753E+03	7.894214E-02	1.873914E-03
2.905405E+03	7.981912E-02	1.890267E-03
2.915058E+03	8.071435E-02	1.906933E-03
2.924710E+03	8.162778E-02	1.923906E-03
2.934363E+03	8.254953E-02	1.940952E-03
2.944015E+03	8.349009E-02	1.958313E-03
2.953668E+03	8.445010E-02	1.976001E-03
2.963320E+03	8.541918E-02	1.993769E-03
2.972973E+03	8.641715E-02	2.012077E-03
2.982625E+03	8.742362E-02	2.030446E-03
2.992278E+03	8.844838E-02	2.049099E-03
3.001931E+03	8.949116E-02	2.068027E-03
3.011583E+03	9.055174E-02	2.087221E-03
3.021236E+03	9.164000E-02	2.106904E-03
3.030888E+03	9.273541E-02	2.126599E-03
3.040541E+03	9.385809E-02	2.146765E-03
3.050193E+03	9.499761E-02	2.167158E-03
3.059846E+03	9.615380E-02	2.187771E-03
3.069498E+03	9.733666E-02	2.208826E-03
3.079151E+03	9.854605E-02	2.230315E-03
3.088803E+03	9.976123E-02	2.251763E-03
3.098456E+03	1.010128E-01	2.273860E-03
3.108108E+03	1.022802E-01	2.296132E-03
3.117761E+03	1.035734E-01	2.318803E-03
3.127413E+03	1.048924E-01	2.341865E-03
3.137066E+03	1.062267E-01	2.365079E-03
3.146718E+03	1.075969E-01	2.388898E-03
3.156371E+03	1.089925E-01	2.413084E-03
3.166023E+03	1.104032E-01	2.437401E-03
3.175676E+03	1.118599E-01	2.462529E-03
3.185328E+03	1.133317E-01	2.487776E-03
3.194981E+03	1.148391E-01	2.513591E-03
3.204633E+03	1.163719E-01	2.539742E-03
3.214286E+03	1.179407E-01	2.566451E-03
3.223938E+03	1.195454E-01	2.593712E-03
3.233591E+03	1.211758E-01	2.621295E-03
3.243243E+03	1.228426E-01	2.649425E-03
3.252896E+03	1.245564E-01	2.678322E-03
3.262548E+03	1.262967E-01	2.707536E-03
3.272201E+03	1.280744E-01	2.737293E-03
3.281853E+03	1.299002E-01	2.767814E-03
3.291506E+03	1.317747E-01	2.799101E-03
3.301158E+03	1.336777E-01	2.830715E-03
3.310811E+03	1.356412E-01	2.863324E-03
3.320463E+03	1.376451E-01	2.896494E-03
3.330116E+03	1.397008E-01	2.930455E-03
3.339768E+03	1.418094E-01	2.965216E-03
3.349421E+03	1.439720E-01	3.000790E-03
3.359073E+03	1.462004E-01	3.037411E-03
3.368726E+03	1.484858E-01	3.074881E-03
3.378378E+03	1.508298E-01	3.113220E-03
3.388031E+03	1.532448E-01	3.152670E-03
3.397683E+03	1.557224E-01	3.193044E-03
3.407336E+03	1.582858E-01	3.234804E-03
3.416988E+03	1.609272E-01	3.277769E-03
3.426641E+03	1.636494E-01	3.321981E-03
3.436293E+03	1.664556E-01	3.367483E-03
3.445946E+03	1.693593E-01	3.414535E-03
3.455598E+03	1.723538E-01	3.462974E-03
3.465251E+03	1.754529E-01	3.513062E-03
3.474903E+03	1.786603E-01	3.564846E-03
3.484556E+03	1.819789E-01	3.618363E-03
3.494208E+03	1.854113E-01	3.673636E-03
3.503861E+03	1.889687E-01	3.730863E-03
3.513514E+03	1.926393E-01	3.789786E-03
3.523166E+03	1.964295E-01	3.850503E-03
3.532819E+03	2.003210E-01	3.912630E-03
3.542471E+03	2.043233E-01	3.976330E-03
3.552124E+03	2.084101E-01	4.041067E-03
3.561776E+03	2.125621E-01	4.106452E-03
3.571429E+03	2.167577E-01	4.172050E-03
3.581081E+03	2.209846E-01	4.237618E-03
3.590734E+03	2.252215E-01	4.302738E-03
3.600386E+03	2.294490E-01	4.367042E-03
3.610039E+03	2.336532E-01	4.430264E-03
3.619691E+03	2.378231E-01	4.492203E-03
3.629344E+03	2.419517E-01	4.552733E-03
3.638996E+03	2.460441E-01	4.611957E-03
3.648649E+03	2.500836E-01	4.669572E-03
3.658301E+03	2.540724E-01	4.725630E-03
3.667954E+03	2.579996E-01	4.779941E-03
3.677606E+03	2.618500E-01	4.832235E-03
3.687259E+03	2.656064E-01	4.882214E-03
3.696911E+03	2.692486E-01	4.929530E-03
3.706564E+03	2.727668E-01	4.974028E-03
3.716216E+03	2.761300E-01	5.015175E-03
3.725869E+03	2.793302E-01	5.052861E-03
3.735521E+03	2.823416E-01	5.086655E-03
3.745174E+03	2.851634E-01	5.116587E-03
3.754826E+03	2.877801E-01	5.142422E-03
3.764479E+03	2.902029E-01	5.164407E-03
3.774131E+03	2.924503E-01	5.182912E-03
3.783784E+03	2.945198E-01	5.197938E-03
3.793436E+03	2.964463E-01	5.210134E-03
3.803089E+03	2.982618E-01	5.220096E-03
3.812741E+03	2.999937E-01	5.228326E-03
3.822394E+03	3.016981E-01	5.235821E-03
3.832046E+03	3.033905E-01	5.242855E-03
3.841699E+03	3.051040E-01	5.250004E-03
3.851351E+03	3.068493E-01	5.257448E-03
3.861004E+03	3.086105E-01	5.264910E-03
3.870656E+03	3.103720E-01	5.272129E-03
3.880309E+03	3.120843E-01	5.278264E-03
3.889961E+03	3.137034E-01	5.282591E-03
3.899614E+03	3.151537E-01	5.283868E-03
3.909266E+03	3.163852E-01	5.281297E-03
3.918919E+03	3.173462E-01	5.274072E-03
3.928571E+03	3.179887E-01	5.261460E-03
3.938224E+03	3.182885E-01	5.243139E-03
3.947876E+03	3.182413E-01	5.219113E-03
3.957529E+03	3.178533E-01	5.189564E-03
3.967181E+03	3.171588E-01	5.155127E-03
3.976834E+03	3.162092E-01	5.116703E-03
3.986486E+03	3.150640E-01	5.075312E-03
3.996139E+03	3.138008E-01	5.032241E-03
4.005792E+03	3.124968E-01	4.988751E-03
4.015444E+03	3.112351E-01	4.946177E-03
4.025097E+03	3.100931E-01	4.905736E-03
4.034749E+03	3.091225E-01	4.868218E-03
4.044402E+03	3.083704E-01	4.834329E-03
4.054054E+03	3.078634E-01	4.804440E-03
4.063707E+03	3.076019E-01	4.778510E-03
4.073359E+03	3.075742E-01	4.756309E-03
4.083012E+03	3.077367E-01	4.737118E-03
4.092664E+03	3.080663E-01	4.720550E-03
4.102317E+03	3.085129E-01	4.705808E-03
4.111969E+03	3.090325E-01	4.692205E-03
4.121622E+03	3.095838E-01	4.679107E-03
4.131274E+03	3.101340E-01	4.666017E-03
4.140927E+03	3.106514E-01	4.652469E-03
4.150579E+03	3.110871E-01	4.637742E-03
4.160232E+03	3.114031E-01	4.621297E-03
4.169884E+03	3.115553E-01	4.602511E-03
4.179537E+03	3.114884E-01	4.580609E-03
4.189189E+03	3.111419E-01	4.554756E-03
4.198842E+03	3.104555E-01	4.524132E-03
4.208494E+03	3.093740E-01	4.488008E-03
4.218147E+03	3.078577E-01	4.445894E-03
4.227799E+03	3.058890E-01	4.397625E-03
4.237452E+03	3.034562E-01	4.343122E-03
4.247104E+03	3.005835E-01	4.282824E-03
4.256757E+03	2.973085E-01	4.217347E-03
4.266409E+03	2.936854E-01	4.147536E-03
4.276062E+03	2.897801E-01	4.074379E-03
4.285714E+03	2.856511E-01	3.998747E-03
4.295367E+03	2.813723E-01	3.921710E-03
4.305019E+03	2.769886E-01	3.843916E-03
4.314672E+03	2.725485E-01	3.766050E-03
4.324324E+03	2.681066E-01	3.688871E-03
4.333977E+03	2.637156E-01	3.613096E-03
4.343629E+03	2.594415E-01	3.539615E-03
4.353282E+03	2.553549E-01	3.469361E-03
4.362934E+03	2.515412E-01	3.403456E-03
4.372587E+03	2.480849E-01	3.342986E-03
4.382239E+03	2.450816E-01	3.289175E-03
4.391892E+03	2.426187E-01	3.243113E-03
4.401544E+03	2.407794E-01	3.205820E-03
4.411197E+03	2.396321E-01	3.178107E-03
4.420849E+03	2.392401E-01	3.160702E-03
4.430502E+03	2.396418E-01	3.154001E-03
4.440154E+03	2.408593E-01	3.158179E-03
4.449807E+03	2.429075E-01	3.173322E-03
4.459459E+03	2.457812E-01	3.199250E-03
4.469112E+03	2.494621E-01	3.235623E-03
4.478764E+03	2.539189E-01	3.281944E-03
4.488417E+03	2.591081E-01	3.337563E-03
4.498069E+03	2.649806E-01	3.401775E-03
4.507722E+03	2.714626E-01	3.473574E-03
4.517375E+03	2.784754E-01	3.551905E-03
4.527027E+03	2.859105E-01	3.635352E-03
4.536680E+03	2.936441E-01	3.722327E-03
4.546332E+03	3.015305E-01	3.810988E-03
4.555985E+03	3.093870E-01	3.899049E-03
4.565637E+03	3.170159E-01	3.984062E-03
4.575290E+03	3.241959E-01	4.063313E-03
4.584942E+03	3.306925E-01	4.133949E-03
4.594595E+03	3.362853E-01	4.193317E-03
4.604247E+03	3.407711E-01	4.239007E-03
4.613900E+03	3.439979E-01	4.269254E-03
4.623552E+03	3.458628E-01	4.282908E-03
4.633205E+03	3.463410E-01	4.279783E-03
4.642857E+03	3.454620E-01	4.260351E-03
4.652510E+03	3.433272E-01	4.225957E-03
4.662162E+03	3.400795E-01	4.178434E-03
4.671815E+03	3.358968E-01	4.120024E-03
4.681467E+03	3.309731E-01	4.053142E-03
4.691120E+03	3.255028E-01	3.980183E-03
4.700772E+03	3.196668E-01	3.903360E-03
4.710425E+03	3.136350E-01	3.824729E-03
4.720077E+03	3.075476E-01	3.745983E-03
4.729730E+03	3.015296E-01	3.668611E-03
4.739382E+03	2.956753E-01	3.593733E-03
4.749035E+03	2.900646E-01	3.522282E-03
4.758687E+03	2.847543E-01	3.454914E-03
4.768340E+03	2.797840E-01	3.392077E-03
4.777992E+03	2.751805E-01	3.334062E-03
4.787645E+03	2.709488E-01	3.280898E-03
4.797297E+03	2.670944E-01	3.232624E-03
4.806950E+03	2.636082E-01	3.189108E-03
4.816602E+03	2.604754E-01	3.150145E-03
4.826255E+03	2.576732E-01	3.115442E-03
4.835907E+03	2.551847E-01	3.084775E-03
4.845560E+03	2.529803E-01	3.057772E-03
4.855212E+03	2.510301E-01	3.034058E-03
4.864865E+03	2.493018E-01	3.013231E-03
4.874517E+03	2.477521E-01	2.994756E-03
4.884170E+03	2.463362E-01	2.978083E-03
4.893822E+03	2.450018E-01	2.962570E-03
4.903475E+03	2.436929E-01	2.947532E-03
4.913127E+03	2.423555E-01	2.932306E-03
4.922780E+03	2.409423E-01	2.916311E-03
4.932432E+03	2.394202E-01	2.899136E-03
4.942085E+03	2.377748E-01	2.880597E-03
4.951737E+03	2.360159E-01	2.860799E-03
4.961390E+03	2.341699E-01	2.840054E-03
4.971042E+03	2.322883E-01	2.818975E-03
4.980695E+03	2.304354E-01	2.798334E-03
4.990347E+03	2.286828E-01	2.778994E-03
5.000000E+03	2.271108E-01	2.761925E-03
5.009653E+03	2.257938E-01	2.748031E-03
5.019305E+03	2.247951E-01	2.738084E-03
5.028958E+03	2.241720E-01	2.732783E-03
5.038610E+03	2.239591E-01	2.732559E-03
5.048263E+03	2.241777E-01	2.737677E-03
5.057915E+03	2.248347E-01	2.748233E-03
5.067568E+03	2.259248E-01	2.764174E-03
5.077220E+03	2.274339E-01	2.785335E-03
5.086873E+03	2.293436E-01	2.811505E-03
5.096525E+03	2.316290E-01	2.842388E-03
5.106178E+03	2.342570E-01	2.877590E-03
5.115830E+03	2.372038E-01	2.916828E-03
5.125483E+03	2.404308E-01	2.959636E-03
5.135135E+03	2.439000E-01	3.005555E-03
5.144788E+03	2.475718E-01	3.054102E-03
5.154440E+03	2.513991E-01	3.104701E-03
5.164093E+03	2.553286E-01	3.156698E-03
5.173745E+03	2.592992E-01	3.209336E-03
5.183398E+03	2.632506E-01	3.261867E-03
5.193050E+03	2.671166E-01	3.313467E-03
5.202703E+03	2.708299E-01	3.363291E-03
5.212355E+03	2.743220E-01	3.410479E-03
5.222008E+03	2.775359E-01	3.454308E-03
5.231660E+03	2.804102E-01	3.493997E-03
5.241313E+03	2.829000E-01	3.528969E-03
5.250965E+03	2.849694E-01	3.558754E-03
5.260618E+03	2.865928E-01	3.583013E-03
5.270270E+03	2.877693E-01	3.601709E-03
5.279923E+03	2.885039E-01	3.614885E-03
5.289575E+03	2.888243E-01	3.622864E-03
5.299228E+03	2.887773E-01	3.626215E-03
5.308880E+03	2.884194E-01	3.625629E-03
5.318533E+03	2.878129E-01	3.621874E-03
5.328185E+03	2.870269E-01	3.615810E-03
5.337838E+03	2.861299E-01	3.608288E-03
5.347490E+03	2.851875E-01	3.600130E-03
5.357143E+03	2.842513E-01	3.591985E-03
5.366795E+03	2.833658E-01	3.584413E-03
5.376448E+03	2.825603E-01	3.577784E-03
5.386100E+03	2.818464E-01	3.572248E-03
5.395753E+03	2.812281E-01	3.567856E-03
5.405405E+03	2.806932E-01	3.564455E-03
5.415058E+03	2.802278E-01	3.561869E-03
5.424710E+03	2.797983E-01	3.559671E-03
5.434363E+03	2.793822E-01	3.557576E-03
5.444015E+03	2.789534E-01	3.555248E-03
5.453668E+03	2.784859E-01	3.552355E-03
5.463320E+03	2.779668E-01	3.548729E-03
5.472973E+03	2.773823E-01	3.544191E-03
5.482625E+03	2.767386E-01	3.538817E-03
5.492278E+03	2.760395E-01	3.532653E-03
5.501931E+03	2.752960E-01	3.525838E-03
5.511583E+03	2.745196E-01	3.518516E-03
5.521236E+03	2.737150E-01	3.510747E-03
5.530888E+03	2.728888E-01	3.502613E-03
5.540541E+03	2.720265E-01	3.493930E-03
5.550193E+03	2.711096E-01	3.484457E-03
5.559846E+03	2.701120E-01	3.473856E-03
5.569498E+03	2.689947E-01	3.461624E-03
5.579151E+03	2.677193E-01	3.447266E-03
5.588803E+03	2.662396E-01	3.430180E-03
5.598456E+03	2.645218E-01	3.409930E-03
5.608108E+03	2.625394E-01	3.386168E-03
5.617761E+03	2.602801E-01	3.358732E-03
5.627413E+03	2.577491E-01	3.327685E-03
5.637066E+03	2.549758E-01	3.293403E-03
5.646718E+03	2.520052E-01	3.256467E-03
5.656371E+03	2.489010E-01	3.217698E-03
5.666023E+03	2.457404E-01	3.178096E-03
5.675676E+03	2.425992E-01	3.138644E-03
5.685328E+03	2.395614E-01	3.100432E-03
5.694981E+03	2.367046E-01	3.064467E-03
5.704633E+03	2.340964E-01	3.031631E-03
5.714286E+03	2.318024E-01	3.002780E-03
5.723938E+03	2.298662E-01	2.978482E-03
5.733591E+03	2.283311E-01	2.959306E-03
5.743243E+03	2.272213E-01	2.945572E-03
5.752896E+03	2.265503E-01	2.937458E-03
5.762548E+03	2.263192E-01	2.934983E-03
5.772201E+03	2.265073E-01	2.937885E-03
5.781853E+03	2.270870E-01	2.945806E-03
5.791506E+03	2.280059E-01	2.958068E-03
5.801158E+03	2.292027E-01	2.973881E-03
5.810811E+03	2.306030E-01	2.992276E-03
5.820463E+03	2.321144E-01	3.012057E-03
5.830116E+03	2.336437E-01	3.032015E-03
5.839768E+03	2.350934E-01	3.050881E-03
5.849421E+03	2.363691E-01	3.067434E-03
5.859073E+03	2.373865E-01	3.080579E-03
5.868726E+03	2.380753E-01	3.089402E-03
5.878378E+03	2.383935E-01	3.093361E-03
5.888031E+03	2.383146E-01	3.092115E-03
5.897683E+03	2.378447E-01	3.085742E-03
5.907336E+03	2.370102E-01	3.074591E-03
5.916988E+03	2.358535E-01	3.059215E-03
5.926641E+03	2.344358E-01	3.040408E-03
5.936293E+03	2.328114E-01	3.018880E-03
5.945946E+03	2.310463E-01	2.995491E-03
5.955598E+03	2.291890E-01	2.970871E-03
5.965251E+03	2.272770E-01	2.945506E-03
5.974903E+03	2.253307E-01	2.919664E-03
5.984556E+03	2.233521E-01	2.893373E-03
5.994208E+03	2.213258E-01	2.866431E-03
6.003861E+03	2.192210E-01	2.838444E-03
6.013514E+03	2.169959E-01	2.808872E-03
6.023166E+03	2.146049E-01	2.777129E-03
6.032819E+03	2.119958E-01	2.742540E-03
6.042471E+03	2.091312E-01	2.704628E-03
6.052124E+03	2.059825E-01	2.663028E-03
6.061776E+03	2.025388E-01	2.617602E-03
6.071429E+03	1.988144E-01	2.568546E-03
6.081081E+03	1.948517E-01	2.516408E-03
6.090734E+03	1.907133E-01	2.462006E-03
6.100386E+03	1.864892E-01	2.406507E-03
6.110039E+03	1.822779E-01	2.351182E-03
6.119691E+03	1.781930E-01	2.297502E-03
6.129344E+03	1.743494E-01	2.246945E-03
6.138996E+03	1.708579E-01	2.200938E-03
6.148649E+03	1.678192E-01	2.160774E-03
6.158301E+03	1.653180E-01	2.127535E-03
6.167954E+03	1.634200E-01	2.102056E-03
6.177606E+03	1.621630E-01	2.084813E-03
6.187259E+03	1.615632E-01	2.076004E-03
6.196911E+03	1.616100E-01	2.075476E-03
6.206564E+03	1.622775E-01	2.082884E-03
6.216216E+03	1.635165E-01	2.097585E-03
6.225869E+03	1.652697E-01	2.118828E-03
6.235521E+03	1.674696E-01	2.145738E-03
6.245174E+03	1.700390E-01	2.177313E-03
6.254826E+03	1.728925E-01	2.212451E-03
6.264479E+03	1.759483E-01	2.250097E-03
6.274131E+03	1.791139E-01	2.289062E-03
6.283784E+03	1.823056E-01	2.328273E-03
6.293436E+03	1.854390E-01	2.366651E-03
6.303089E+03	1.884382E-01	2.403227E-03
6.312741E+03	1.912418E-01	2.437222E-03
6.322394E+03	1.938083E-01	2.468111E-03
6.332046E+03	1.961032E-01	2.495460E-03
6.341699E+03	1.981213E-01	2.519211E-03
6.351351E+03	1.998619E-01	2.539362E-03
6.361004E+03	2.013423E-01	2.556141E-03
6.370656E+03	2.025884E-01	2.569884E-03
6.380309E+03	2.036243E-01	2.580904E-03
6.389961E+03	2.044846E-01	2.589646E-03
6.399614E+03	2.051987E-01	2.596487E-03
6.409266E+03	2.057904E-01	2.601734E-03
6.418919E+03	2.062802E-01	2.605650E-03
6.428571E+03	2.066867E-01	2.608475E-03
6.438224E+03	2.070136E-01	2.610259E-03
6.447876E+03	2.072587E-01	2.610977E-03
6.457529E+03	2.074115E-01	2.610502E-03
6.467181E+03	2.074540E-01	2.608612E-03
6.476834E+03	2.073644E-01	2.605036E-03
6.486486E+03	2.071115E-01	2.599391E-03
6.496139E+03	2.066665E-01	2.591323E-03
6.505792E+03	2.059962E-01	2.580423E-03
6.515444E+03	2.050751E-01	2.566384E-03
6.525097E+03	2.038819E-01	2.548949E-03
6.534749E+03	2.024043E-01	2.527978E-03
6.544402E+03	2.006414E-01	2.503471E-03
6.554054E+03	1.986026E-01	2.475558E-03
6.563707E+03	1.963163E-01	2.444605E-03
6.573359E+03	1.938145E-01	2.411023E-03
6.583012E+03	1.911393E-01	2.375344E-03
6.592664E+03	1.883368E-01	2.338149E-03
6.602317E+03	1.854536E-01	2.300024E-03
6.611969E+03	1.825365E-01	2.261553E-03
6.621622E+03	1.796233E-01	2.223208E-03
6.631274E+03	1.767488E-01	2.185419E-03
6.640927E+03	1.739437E-01	2.148568E-03
6.650579E+03	1.712289E-01	2.112911E-03
6.660232E+03	1.686239E-01	2.078686E-03
6.669884E+03	1.661404E-01	2.046036E-03
6.679537E+03	1.637832E-01	2.015017E-03
6.689189E+03	1.615544E-01	1.985651E-03
6.698842E+03	1.594560E-01	1.957961E-03
6.708494E+03	1.574791E-01	1.931833E-03
6.718147E+03	1.556178E-01	1.907192E-03
6.727799E+03	1.538606E-01	1.883895E-03
6.737452E+03	1.521990E-01	1.861837E-03
6.747104E+03	1.506246E-01	1.840912E-03
6.756757E+03	1.491244E-01	1.820963E-03
6.766409E+03	1.476933E-01	1.801922E-03
6.776062E+03	1.463241E-01	1.783705E-03
6.785714E+03	1.450177E-01	1.766319E-03
6.795367E+03	1.437709E-01	1.749728E-03
6.805019E+03	1.425835E-01	1.733926E-03
6.814672E+03	1.414554E-01	1.718915E-03
6.824324E+03	1.403861E-01	1.704687E-03
6.833977E+03	1.393741E-01	1.691224E-03
6.843629E+03	1.384167E-01	1.678493E-03
6.853282E+03	1.375096E-01	1.666443E-03
6.862934E+03	1.366491E-01	1.655030E-03
6.872587E+03	1.358268E-01	1.644153E-03
6.882239E+03	1.350356E-01	1.633726E-03
6.891892E+03	1.342677E-01	1.623656E-03
6.901544E+03	1.335172E-01	1.613873E-03
6.911197E+03	1.327751E-01	1.604271E-03
6.920849E+03	1.320366E-01	1.594792E-03
6.930502E+03	1.312945E-01	1.585352E-03
6.940154E+03	1.305462E-01	1.575920E-03
6.949807E+03	1.297892E-01	1.566469E-03
6.959459E+03	1.290209E-01	1.556969E-03
6.969112E+03	1.282426E-01	1.547436E-03
6.978764E+03	1.274605E-01	1.537946E-03
6.988417E+03	1.266760E-01	1.528519E-03
6.998069E+03	1.258966E-01	1.519246E-03
7.007722E+03	1.251293E-01	1.510212E-03
7.017375E+03	1.243807E-01	1.501499E-03
7.027027E+03	1.236572E-01	1.493184E-03
7.036680E+03	1.229623E-01	1.485313E-03
7.046332E+03	1.223033E-01	1.477974E-03
7.055985E+03	1.216805E-01	1.471173E-03
7.065637E+03	1.210948E-01	1.464923E-03
7.075290E+03	1.205438E-01	1.459196E-03
7.084942E+03	1.200288E-01	1.454010E-03
7.094595E+03	1.195457E-01	1.449319E-03
7.104247E+03	1.190917E-01	1.445090E-03
7.113900E+03	1.186655E-01	1.441309E-03
7.123552E+03	1.182612E-01	1.437908E-03
7.133205E+03	1.178792E-01	1.434894E-03
7.142857E+03	1.175151E-01	1.432216E-03
7.152510E+03	1.171692E-01	1.429879E-03
7.162162E+03	1.168351E-01	1.427807E-03
7.171815E+03	1.165105E-01	1.425974E-03
7.181467E+03	1.161927E-01	1.424349E-03
7.191120E+03	1.158736E-01	1.422833E-03
7.200772E+03	1.155478E-01	1.421364E-03
7.210425E+03	1.152099E-01	1.419873E-03
7.220077E+03	1.148559E-01	1.418310E-03
7.229730E+03	1.144776E-01	1.416568E-03
7.239382E+03	1.140720E-01	1.414605E-03
7.249035E+03	1.136336E-01	1.412348E-03
7.258687E+03	1.131592E-01	1.409749E-03
7.268340E+03	1.126476E-01	1.406788E-03
7.277992E+03	1.120935E-01	1.403390E-03
7.287645E+03	1.114982E-01	1.399564E-03
7.297297E+03	1.108582E-01	1.395258E-03
7.306950E+03	1.101699E-01	1.390418E-03
7.316602E+03	1.094324E-01	1.385022E-03
7.326255E+03	1.086429E-01	1.379025E-03
7.335907E+03	1.077971E-01	1.372364E-03
7.345560E+03	1.068938E-01	1.365011E-03
7.355212E+03	1.059297E-01	1.356913E-03
7.364865E+03	1.049037E-01	1.348042E-03
7.374517E+03	1.038176E-01	1.338410E-03
7.384170E+03	1.026737E-01	1.328035E-03
7.393822E+03	1.014737E-01	1.316924E-03
7.403475E+03	1.002271E-01	1.305191E-03
7.413127E+03	9.894181E-02	1.292927E-03
7.422780E+03	9.762902E-02	1.280268E-03
7.432432E+03	9.630151E-02	1.267372E-03
7.442085E+03	9.497313E-02	1.254417E-03
7.451737E+03	9.365823E-02	1.241586E-03
7.461390E+03	9.237240E-02	1.229085E-03
7.471042E+03	9.112814E-02	1.217081E-03
7.480695E+03	8.993830E-02	1.205746E-03
7.490347E+03	8.881450E-02	1.195242E-03
