#wls	flux	fluxerr
1.544402E+03	7.474022E-03	3.000711E-04
1.583012E+03	7.539075E-03	3.020669E-04
1.621622E+03	7.602195E-03	3.039587E-04
1.660232E+03	7.661770E-03	3.056819E-04
1.698842E+03	7.720037E-03	3.073258E-04
1.737452E+03	7.774585E-03	3.087942E-04
1.776062E+03	7.825370E-03	3.100857E-04
1.814672E+03	7.870716E-03	3.111344E-04
1.853282E+03	7.907483E-03	3.118173E-04
1.891892E+03	7.935609E-03	3.121340E-04
1.930502E+03	7.956517E-03	3.121422E-04
1.969112E+03	7.972247E-03	3.119235E-04
2.007722E+03	7.992504E-03	3.118577E-04
2.046332E+03	8.029995E-03	3.124374E-04
2.084942E+03	8.096787E-03	3.141242E-04
2.123552E+03	8.198879E-03	3.171394E-04
2.162162E+03	8.331331E-03	3.212793E-04
2.200772E+03	8.483726E-03	3.261310E-04
2.239382E+03	8.645887E-03	3.312958E-04
2.277992E+03	8.813541E-03	3.366051E-04
2.316602E+03	8.981769E-03	3.418678E-04
2.355212E+03	9.149276E-03	3.470327E-04
2.393822E+03	9.318752E-03	3.522000E-04
2.432432E+03	9.490757E-03	3.573880E-04
2.471042E+03	9.666038E-03	3.626218E-04
2.509653E+03	9.848092E-03	3.680287E-04
2.548263E+03	1.003629E-02	3.735803E-04
2.586873E+03	1.023266E-02	3.793472E-04
2.625483E+03	1.044057E-02	3.854475E-04
2.664093E+03	1.065927E-02	3.918463E-04
2.702703E+03	1.089346E-02	3.987079E-04
2.741313E+03	1.114245E-02	4.059970E-04
2.779923E+03	1.140965E-02	4.138277E-04
2.818533E+03	1.169721E-02	4.222654E-04
2.857143E+03	1.200872E-02	4.314258E-04
2.895753E+03	1.234522E-02	4.413302E-04
2.905405E+03	1.243464E-02	4.439703E-04
2.915058E+03	1.252421E-02	4.466051E-04
2.924710E+03	1.261663E-02	4.493305E-04
2.934363E+03	1.271194E-02	4.521479E-04
2.944015E+03	1.280760E-02	4.549663E-04
2.953668E+03	1.290641E-02	4.578849E-04
2.963320E+03	1.300835E-02	4.609027E-04
2.972973E+03	1.311076E-02	4.639249E-04
2.982625E+03	1.321763E-02	4.670928E-04
2.992278E+03	1.332497E-02	4.702644E-04
3.001931E+03	1.343679E-02	4.735808E-04
3.011583E+03	1.354909E-02	4.769010E-04
3.021236E+03	1.366589E-02	4.803657E-04
3.030888E+03	1.378452E-02	4.838812E-04
3.040541E+03	1.390502E-02	4.874476E-04
3.050193E+03	1.402873E-02	4.911120E-04
3.059846E+03	1.415567E-02	4.948746E-04
3.069498E+03	1.428587E-02	4.987357E-04
3.079151E+03	1.441801E-02	5.026491E-04
3.088803E+03	1.455347E-02	5.066619E-04
3.098456E+03	1.469227E-02	5.107745E-04
3.108108E+03	1.483443E-02	5.149874E-04
3.117761E+03	1.498001E-02	5.193014E-04
3.127413E+03	1.512769E-02	5.236707E-04
3.137066E+03	1.528018E-02	5.281886E-04
3.146718E+03	1.543486E-02	5.327635E-04
3.156371E+03	1.559443E-02	5.374885E-04
3.166023E+03	1.575627E-02	5.422721E-04
3.175676E+03	1.592309E-02	5.472073E-04
3.185328E+03	1.609227E-02	5.522030E-04
3.194981E+03	1.626652E-02	5.573523E-04
3.204633E+03	1.644456E-02	5.626099E-04
3.214286E+03	1.662778E-02	5.680229E-04
3.223938E+03	1.681355E-02	5.735004E-04
3.233591E+03	1.700460E-02	5.791352E-04
3.243243E+03	1.719965E-02	5.848827E-04
3.252896E+03	1.740009E-02	5.907895E-04
3.262548E+03	1.760464E-02	5.968111E-04
3.272201E+03	1.781471E-02	6.029944E-04
3.281853E+03	1.802900E-02	6.092945E-04
3.291506E+03	1.824893E-02	6.157585E-04
3.301158E+03	1.847319E-02	6.223417E-04
3.310811E+03	1.870321E-02	6.290910E-04
3.320463E+03	1.893906E-02	6.360075E-04
3.330116E+03	1.917943E-02	6.430465E-04
3.339768E+03	1.942574E-02	6.502550E-04
3.349421E+03	1.967808E-02	6.576340E-04
3.359073E+03	1.993648E-02	6.651845E-04
3.368726E+03	2.020103E-02	6.729076E-04
3.378378E+03	2.047179E-02	6.808042E-04
3.388031E+03	2.074743E-02	6.888295E-04
3.397683E+03	2.103078E-02	6.970758E-04
3.407336E+03	2.132052E-02	7.054983E-04
3.416988E+03	2.161671E-02	7.140976E-04
3.426641E+03	2.192079E-02	7.229202E-04
3.436293E+03	2.223004E-02	7.318748E-04
3.445946E+03	2.254727E-02	7.410533E-04
3.455598E+03	2.287114E-02	7.504094E-04
3.465251E+03	2.320310E-02	7.599903E-04
3.474903E+03	2.354179E-02	7.697492E-04
3.484556E+03	2.388862E-02	7.797309E-04
3.494208E+03	2.424221E-02	7.898896E-04
3.503861E+03	2.460398E-02	8.002692E-04
3.513514E+03	2.497249E-02	8.108224E-04
3.523166E+03	2.534914E-02	8.215924E-04
3.532819E+03	2.573394E-02	8.325784E-04
3.542471E+03	2.612536E-02	8.437294E-04
3.552124E+03	2.652622E-02	8.551349E-04
3.561776E+03	2.693354E-02	8.666971E-04
3.571429E+03	2.734868E-02	8.784586E-04
3.581081E+03	2.777147E-02	8.904126E-04
3.590734E+03	2.820175E-02	9.025521E-04
3.600386E+03	2.863933E-02	9.148696E-04
3.610039E+03	2.908399E-02	9.273569E-04
3.619691E+03	2.953548E-02	9.400044E-04
3.629344E+03	2.999497E-02	9.528481E-04
3.638996E+03	3.045922E-02	9.657835E-04
3.648649E+03	3.093083E-02	9.788921E-04
3.658301E+03	3.140795E-02	9.921138E-04
3.667954E+03	3.189019E-02	1.005435E-03
3.677606E+03	3.237858E-02	1.018888E-03
3.687259E+03	3.286973E-02	1.032364E-03
3.696911E+03	3.336761E-02	1.045987E-03
3.706564E+03	3.386727E-02	1.059602E-03
3.716216E+03	3.437119E-02	1.073284E-03
3.725869E+03	3.487885E-02	1.087017E-03
3.735521E+03	3.538672E-02	1.100691E-03
3.745174E+03	3.589875E-02	1.114428E-03
3.754826E+03	3.640989E-02	1.128070E-03
3.764479E+03	3.692258E-02	1.141693E-03
3.774131E+03	3.743622E-02	1.155278E-03
3.783784E+03	3.794870E-02	1.168761E-03
3.793436E+03	3.845945E-02	1.182123E-03
3.803089E+03	3.896924E-02	1.195388E-03
3.812741E+03	3.947599E-02	1.208493E-03
3.822394E+03	3.998042E-02	1.221461E-03
3.832046E+03	4.047882E-02	1.234179E-03
3.841699E+03	4.097490E-02	1.246760E-03
3.851351E+03	4.146336E-02	1.259045E-03
3.861004E+03	4.194629E-02	1.271098E-03
3.870656E+03	4.242132E-02	1.282848E-03
3.880309E+03	4.288754E-02	1.294270E-03
3.889961E+03	4.334396E-02	1.305335E-03
3.899614E+03	4.378960E-02	1.316016E-03
3.909266E+03	4.422495E-02	1.326329E-03
3.918919E+03	4.464610E-02	1.336160E-03
3.928571E+03	4.505355E-02	1.345526E-03
3.938224E+03	4.544493E-02	1.354360E-03
3.947876E+03	4.582083E-02	1.362681E-03
3.957529E+03	4.618048E-02	1.370471E-03
3.967181E+03	4.652174E-02	1.377669E-03
3.976834E+03	4.684545E-02	1.384303E-03
3.986486E+03	4.714968E-02	1.390321E-03
3.996139E+03	4.743410E-02	1.395716E-03
4.005792E+03	4.769714E-02	1.400446E-03
4.015444E+03	4.794152E-02	1.404594E-03
4.025097E+03	4.816454E-02	1.408087E-03
4.034749E+03	4.836784E-02	1.410975E-03
4.044402E+03	4.855041E-02	1.413235E-03
4.054054E+03	4.871284E-02	1.414885E-03
4.063707E+03	4.885705E-02	1.415988E-03
4.073359E+03	4.898120E-02	1.416492E-03
4.083012E+03	4.908750E-02	1.416466E-03
4.092664E+03	4.917565E-02	1.415905E-03
4.102317E+03	4.924807E-02	1.414882E-03
4.111969E+03	4.930458E-02	1.413395E-03
4.121622E+03	4.934524E-02	1.411449E-03
4.131274E+03	4.937384E-02	1.409156E-03
4.140927E+03	4.938923E-02	1.406485E-03
4.150579E+03	4.939280E-02	1.403479E-03
4.160232E+03	4.938602E-02	1.400181E-03
4.169884E+03	4.937031E-02	1.396635E-03
4.179537E+03	4.934715E-02	1.392884E-03
4.189189E+03	4.931682E-02	1.388937E-03
4.198842E+03	4.928198E-02	1.384871E-03
4.208494E+03	4.924184E-02	1.380666E-03
4.218147E+03	4.919907E-02	1.376396E-03
4.227799E+03	4.915513E-02	1.372103E-03
4.237452E+03	4.911045E-02	1.367801E-03
4.247104E+03	4.906654E-02	1.363531E-03
4.256757E+03	4.902492E-02	1.359335E-03
4.266409E+03	4.898715E-02	1.355258E-03
4.276062E+03	4.895363E-02	1.351308E-03
4.285714E+03	4.892697E-02	1.347559E-03
4.295367E+03	4.890762E-02	1.344020E-03
4.305019E+03	4.889605E-02	1.340705E-03
4.314672E+03	4.889581E-02	1.337709E-03
4.324324E+03	4.890526E-02	1.334985E-03
4.333977E+03	4.892782E-02	1.332626E-03
4.343629E+03	4.896480E-02	1.330665E-03
4.353282E+03	4.901545E-02	1.329079E-03
4.362934E+03	4.908190E-02	1.327924E-03
4.372587E+03	4.916519E-02	1.327225E-03
4.382239E+03	4.926513E-02	1.326975E-03
4.391892E+03	4.938342E-02	1.327217E-03
4.401544E+03	4.951952E-02	1.327934E-03
4.411197E+03	4.967463E-02	1.329154E-03
4.420849E+03	4.984678E-02	1.330823E-03
4.430502E+03	5.003661E-02	1.332955E-03
4.440154E+03	5.024348E-02	1.335531E-03
4.449807E+03	5.046642E-02	1.338522E-03
4.459459E+03	5.070413E-02	1.341892E-03
4.469112E+03	5.095405E-02	1.345571E-03
4.478764E+03	5.121415E-02	1.349504E-03
4.488417E+03	5.148405E-02	1.353680E-03
4.498069E+03	5.175840E-02	1.357958E-03
4.507722E+03	5.203628E-02	1.362314E-03
4.517375E+03	5.231479E-02	1.366671E-03
4.527027E+03	5.258903E-02	1.370903E-03
4.536680E+03	5.285795E-02	1.374984E-03
4.546332E+03	5.311873E-02	1.378843E-03
4.555985E+03	5.336704E-02	1.382368E-03
4.565637E+03	5.360357E-02	1.385582E-03
4.575290E+03	5.382407E-02	1.388376E-03
4.584942E+03	5.402963E-02	1.390782E-03
4.594595E+03	5.421940E-02	1.392782E-03
4.604247E+03	5.439525E-02	1.394427E-03
4.613900E+03	5.455817E-02	1.395744E-03
4.623552E+03	5.471179E-02	1.396829E-03
4.633205E+03	5.485863E-02	1.397749E-03
4.642857E+03	5.500347E-02	1.398627E-03
4.652510E+03	5.515042E-02	1.399568E-03
4.662162E+03	5.530379E-02	1.400681E-03
4.671815E+03	5.546698E-02	1.402053E-03
4.681467E+03	5.564607E-02	1.403835E-03
4.691120E+03	5.584313E-02	1.406079E-03
4.700772E+03	5.606323E-02	1.408910E-03
4.710425E+03	5.630770E-02	1.412357E-03
4.720077E+03	5.657765E-02	1.416447E-03
4.729730E+03	5.687317E-02	1.421177E-03
4.739382E+03	5.719545E-02	1.426575E-03
4.749035E+03	5.754059E-02	1.432539E-03
4.758687E+03	5.790995E-02	1.439101E-03
4.768340E+03	5.830004E-02	1.446173E-03
4.777992E+03	5.871003E-02	1.453729E-03
4.787645E+03	5.913800E-02	1.461721E-03
4.797297E+03	5.958176E-02	1.470092E-03
4.806950E+03	6.003893E-02	1.478780E-03
4.816602E+03	6.050770E-02	1.487740E-03
4.826255E+03	6.098410E-02	1.496873E-03
4.835907E+03	6.146472E-02	1.506095E-03
4.845560E+03	6.194679E-02	1.515336E-03
4.855212E+03	6.242538E-02	1.524477E-03
4.864865E+03	6.289720E-02	1.533437E-03
4.874517E+03	6.335788E-02	1.542110E-03
4.884170E+03	6.380298E-02	1.550391E-03
4.893822E+03	6.422716E-02	1.558151E-03
4.903475E+03	6.462826E-02	1.565339E-03
4.913127E+03	6.500050E-02	1.571820E-03
4.922780E+03	6.534257E-02	1.577564E-03
4.932432E+03	6.564975E-02	1.582460E-03
4.942085E+03	6.592214E-02	1.586515E-03
4.951737E+03	6.615765E-02	1.589682E-03
4.961390E+03	6.635612E-02	1.591960E-03
4.971042E+03	6.651939E-02	1.593398E-03
4.980695E+03	6.664829E-02	1.594019E-03
4.990347E+03	6.674561E-02	1.593893E-03
5.000000E+03	6.681516E-02	1.593113E-03
5.009653E+03	6.686150E-02	1.591790E-03
5.019305E+03	6.689104E-02	1.590079E-03
5.028958E+03	6.690874E-02	1.588099E-03
5.038610E+03	6.692217E-02	1.586029E-03
5.048263E+03	6.693611E-02	1.583983E-03
5.057915E+03	6.695967E-02	1.582174E-03
5.067568E+03	6.699902E-02	1.580748E-03
5.077220E+03	6.706220E-02	1.579892E-03
5.086873E+03	6.715415E-02	1.579717E-03
5.096525E+03	6.728351E-02	1.580424E-03
5.106178E+03	6.745553E-02	1.582132E-03
5.115830E+03	6.767601E-02	1.584971E-03
5.125483E+03	6.795034E-02	1.589062E-03
5.135135E+03	6.828429E-02	1.594533E-03
5.144788E+03	6.868001E-02	1.601428E-03
5.154440E+03	6.914211E-02	1.609847E-03
5.164093E+03	6.967359E-02	1.619854E-03
5.173745E+03	7.027675E-02	1.631494E-03
5.183398E+03	7.095334E-02	1.644800E-03
5.193050E+03	7.170437E-02	1.659786E-03
5.202703E+03	7.253030E-02	1.676457E-03
5.212355E+03	7.342980E-02	1.694773E-03
5.222008E+03	7.440307E-02	1.714731E-03
5.231660E+03	7.544865E-02	1.736288E-03
5.241313E+03	7.656439E-02	1.759389E-03
5.250965E+03	7.774756E-02	1.783964E-03
5.260618E+03	7.899362E-02	1.809899E-03
5.270270E+03	8.030094E-02	1.837152E-03
5.279923E+03	8.166257E-02	1.865557E-03
5.289575E+03	8.307451E-02	1.895017E-03
5.299228E+03	8.452979E-02	1.925367E-03
5.308880E+03	8.602457E-02	1.956514E-03
5.318533E+03	8.754945E-02	1.988241E-03
5.328185E+03	8.909958E-02	2.020435E-03
5.337838E+03	9.066440E-02	2.052851E-03
5.347490E+03	9.223817E-02	2.085359E-03
5.357143E+03	9.380927E-02	2.117695E-03
5.366795E+03	9.537113E-02	2.149709E-03
5.376448E+03	9.691268E-02	2.181154E-03
5.386100E+03	9.842392E-02	2.211804E-03
5.395753E+03	9.989459E-02	2.241433E-03
5.405405E+03	1.013158E-01	2.269844E-03
5.415058E+03	1.026772E-01	2.296811E-03
5.424710E+03	1.039654E-01	2.322040E-03
5.434363E+03	1.051751E-01	2.345418E-03
5.444015E+03	1.062935E-01	2.366671E-03
5.453668E+03	1.073149E-01	2.385677E-03
5.463320E+03	1.082281E-01	2.402197E-03
5.472973E+03	1.090274E-01	2.416118E-03
5.482625E+03	1.097070E-01	2.427321E-03
5.492278E+03	1.102623E-01	2.435718E-03
5.501931E+03	1.106919E-01	2.441290E-03
5.511583E+03	1.109913E-01	2.443950E-03
5.521236E+03	1.111657E-01	2.443826E-03
5.530888E+03	1.112122E-01	2.440868E-03
5.540541E+03	1.111380E-01	2.435246E-03
5.550193E+03	1.109485E-01	2.427093E-03
5.559846E+03	1.106506E-01	2.416571E-03
5.569498E+03	1.102511E-01	2.403839E-03
5.579151E+03	1.097611E-01	2.389148E-03
5.588803E+03	1.091908E-01	2.372734E-03
5.598456E+03	1.085512E-01	2.354845E-03
5.608108E+03	1.078538E-01	2.335731E-03
5.617761E+03	1.071083E-01	2.315614E-03
5.627413E+03	1.063291E-01	2.294810E-03
5.637066E+03	1.055254E-01	2.273520E-03
5.646718E+03	1.047073E-01	2.251964E-03
5.656371E+03	1.038841E-01	2.230345E-03
5.666023E+03	1.030640E-01	2.208837E-03
5.675676E+03	1.022556E-01	2.187627E-03
5.685328E+03	1.014631E-01	2.166801E-03
5.694981E+03	1.006895E-01	2.146424E-03
5.704633E+03	9.994105E-02	2.126627E-03
5.714286E+03	9.921967E-02	2.107446E-03
5.723938E+03	9.852303E-02	2.088831E-03
5.733591E+03	9.785372E-02	2.070834E-03
5.743243E+03	9.720885E-02	2.053390E-03
5.752896E+03	9.658617E-02	2.036450E-03
5.762548E+03	9.598276E-02	2.019950E-03
5.772201E+03	9.539526E-02	2.003818E-03
5.781853E+03	9.481999E-02	1.987976E-03
5.791506E+03	9.425459E-02	1.972372E-03
5.801158E+03	9.369403E-02	1.956901E-03
5.810811E+03	9.313349E-02	1.941462E-03
5.820463E+03	9.257292E-02	1.926055E-03
5.830116E+03	9.200860E-02	1.910603E-03
5.839768E+03	9.143757E-02	1.895046E-03
5.849421E+03	9.086183E-02	1.879426E-03
5.859073E+03	9.028007E-02	1.863717E-03
5.868726E+03	8.969183E-02	1.847910E-03
5.878378E+03	8.910034E-02	1.832075E-03
5.888031E+03	8.850959E-02	1.816293E-03
5.897683E+03	8.792016E-02	1.800577E-03
5.907336E+03	8.733613E-02	1.785010E-03
5.916988E+03	8.676475E-02	1.769740E-03
5.926641E+03	8.620828E-02	1.754813E-03
5.936293E+03	8.567325E-02	1.740359E-03
5.945946E+03	8.516502E-02	1.726485E-03
5.955598E+03	8.468756E-02	1.713269E-03
5.965251E+03	8.424733E-02	1.700838E-03
5.974903E+03	8.384920E-02	1.689285E-03
5.984556E+03	8.349635E-02	1.678669E-03
5.994208E+03	8.319412E-02	1.669093E-03
6.003861E+03	8.294610E-02	1.660620E-03
6.013514E+03	8.275393E-02	1.653278E-03
6.023166E+03	8.262130E-02	1.647132E-03
6.032819E+03	8.254855E-02	1.642182E-03
6.042471E+03	8.253907E-02	1.638486E-03
6.052124E+03	8.258880E-02	1.635956E-03
6.061776E+03	8.270050E-02	1.634640E-03
6.071429E+03	8.286945E-02	1.634435E-03
6.081081E+03	8.309249E-02	1.635273E-03
6.090734E+03	8.336821E-02	1.637118E-03
6.100386E+03	8.368891E-02	1.639812E-03
6.110039E+03	8.404868E-02	1.643235E-03
6.119691E+03	8.444361E-02	1.647304E-03
6.129344E+03	8.486366E-02	1.651819E-03
6.138996E+03	8.530367E-02	1.656677E-03
6.148649E+03	8.575264E-02	1.661661E-03
6.158301E+03	8.620347E-02	1.666634E-03
6.167954E+03	8.664622E-02	1.671403E-03
6.177606E+03	8.707548E-02	1.675863E-03
6.187259E+03	8.748227E-02	1.679845E-03
6.196911E+03	8.786003E-02	1.683225E-03
6.206564E+03	8.820385E-02	1.685912E-03
6.216216E+03	8.851240E-02	1.687886E-03
6.225869E+03	8.878254E-02	1.689091E-03
6.235521E+03	8.901939E-02	1.689629E-03
6.245174E+03	8.922604E-02	1.689563E-03
6.254826E+03	8.941006E-02	1.689039E-03
6.264479E+03	8.957700E-02	1.688165E-03
6.274131E+03	8.973579E-02	1.687112E-03
6.283784E+03	8.989221E-02	1.685987E-03
6.293436E+03	9.005453E-02	1.684947E-03
6.303089E+03	9.022862E-02	1.684100E-03
6.312741E+03	9.041930E-02	1.683534E-03
6.322394E+03	9.063004E-02	1.683312E-03
6.332046E+03	9.086138E-02	1.683440E-03
6.341699E+03	9.111680E-02	1.683979E-03
6.351351E+03	9.139360E-02	1.684878E-03
6.361004E+03	9.168898E-02	1.686080E-03
6.370656E+03	9.200008E-02	1.687533E-03
6.380309E+03	9.231941E-02	1.689096E-03
6.389961E+03	9.263960E-02	1.690633E-03
6.399614E+03	9.295365E-02	1.692018E-03
6.409266E+03	9.325194E-02	1.693076E-03
6.418919E+03	9.352255E-02	1.693595E-03
6.428571E+03	9.375620E-02	1.693411E-03
6.438224E+03	9.394189E-02	1.692332E-03
6.447876E+03	9.406876E-02	1.690169E-03
6.457529E+03	9.412489E-02	1.686717E-03
6.467181E+03	9.410398E-02	1.681876E-03
6.476834E+03	9.399601E-02	1.675477E-03
6.486486E+03	9.379564E-02	1.667438E-03
6.496139E+03	9.349426E-02	1.657622E-03
6.505792E+03	9.309158E-02	1.646037E-03
6.515444E+03	9.258591E-02	1.632670E-03
6.525097E+03	9.197437E-02	1.617486E-03
6.534749E+03	9.126397E-02	1.600623E-03
6.544402E+03	9.045556E-02	1.582112E-03
6.554054E+03	8.955489E-02	1.562067E-03
6.563707E+03	8.857072E-02	1.540656E-03
6.573359E+03	8.751146E-02	1.518037E-03
6.583012E+03	8.638650E-02	1.494384E-03
6.592664E+03	8.520440E-02	1.469856E-03
6.602317E+03	8.397717E-02	1.444669E-03
6.611969E+03	8.271689E-02	1.419035E-03
6.621622E+03	8.143107E-02	1.393091E-03
6.631274E+03	8.013137E-02	1.367039E-03
6.640927E+03	7.882598E-02	1.341022E-03
6.650579E+03	7.752665E-02	1.315240E-03
6.660232E+03	7.624012E-02	1.289807E-03
6.669884E+03	7.497357E-02	1.264844E-03
6.679537E+03	7.373339E-02	1.240455E-03
6.689189E+03	7.252361E-02	1.216706E-03
6.698842E+03	7.135135E-02	1.193711E-03
6.708494E+03	7.021883E-02	1.171503E-03
6.718147E+03	6.912881E-02	1.150123E-03
6.727799E+03	6.808207E-02	1.129579E-03
6.737452E+03	6.708232E-02	1.109927E-03
6.747104E+03	6.612787E-02	1.091132E-03
6.756757E+03	6.522126E-02	1.073231E-03
6.766409E+03	6.435984E-02	1.056176E-03
6.776062E+03	6.354415E-02	1.039968E-03
6.785714E+03	6.277328E-02	1.024587E-03
6.795367E+03	6.204602E-02	1.010010E-03
6.805019E+03	6.135995E-02	9.961902E-04
6.814672E+03	6.071584E-02	9.831366E-04
6.824324E+03	6.010879E-02	9.707652E-04
6.833977E+03	5.954054E-02	9.590999E-04
6.843629E+03	5.900734E-02	9.480763E-04
6.853282E+03	5.850760E-02	9.376654E-04
6.862934E+03	5.804084E-02	9.278561E-04
6.872587E+03	5.760451E-02	9.186047E-04
6.882239E+03	5.719721E-02	9.098861E-04
6.891892E+03	5.681861E-02	9.016927E-04
6.901544E+03	5.646642E-02	8.939856E-04
6.911197E+03	5.613948E-02	8.867447E-04
6.920849E+03	5.583672E-02	8.799516E-04
6.930502E+03	5.555617E-02	8.735734E-04
6.940154E+03	5.529906E-02	8.676283E-04
6.949807E+03	5.506358E-02	8.620868E-04
6.959459E+03	5.484810E-02	8.569223E-04
6.969112E+03	5.465312E-02	8.521420E-04
6.978764E+03	5.447714E-02	8.477220E-04
6.988417E+03	5.432080E-02	8.436718E-04
6.998069E+03	5.418281E-02	8.399710E-04
7.007722E+03	5.406287E-02	8.366150E-04
7.017375E+03	5.396177E-02	8.336160E-04
7.027027E+03	5.387825E-02	8.309545E-04
7.036680E+03	5.381208E-02	8.286275E-04
7.046332E+03	5.376301E-02	8.266316E-04
7.055985E+03	5.372968E-02	8.249466E-04
7.065637E+03	5.371380E-02	8.235993E-04
7.075290E+03	5.371290E-02	8.225529E-04
7.084942E+03	5.372850E-02	8.218318E-04
7.094595E+03	5.375703E-02	8.213827E-04
7.104247E+03	5.380086E-02	8.212431E-04
7.113900E+03	5.385629E-02	8.213582E-04
7.123552E+03	5.392563E-02	8.217650E-04
7.133205E+03	5.400509E-02	8.224076E-04
7.142857E+03	5.409589E-02	8.233065E-04
7.152510E+03	5.419635E-02	8.244386E-04
7.162162E+03	5.430677E-02	8.258104E-04
7.171815E+03	5.442457E-02	8.273852E-04
7.181467E+03	5.455135E-02	8.291897E-04
7.191120E+03	5.468585E-02	8.312074E-04
7.200772E+03	5.482802E-02	8.334403E-04
7.210425E+03	5.497811E-02	8.358946E-04
7.220077E+03	5.513660E-02	8.385806E-04
7.229730E+03	5.530430E-02	8.415135E-04
7.239382E+03	5.548232E-02	8.447132E-04
7.249035E+03	5.567196E-02	8.482026E-04
7.258687E+03	5.587465E-02	8.520067E-04
7.268340E+03	5.609169E-02	8.561489E-04
7.277992E+03	5.632302E-02	8.606318E-04
7.287645E+03	5.657099E-02	8.654948E-04
7.297297E+03	5.683294E-02	8.706985E-04
7.306950E+03	5.710954E-02	8.762539E-04
7.316602E+03	5.739639E-02	8.820949E-04
7.326255E+03	5.769187E-02	8.881969E-04
7.335907E+03	5.799304E-02	8.945156E-04
7.345560E+03	5.829691E-02	9.010053E-04
7.355212E+03	5.859945E-02	9.076035E-04
7.364865E+03	5.890020E-02	9.143031E-04
7.374517E+03	5.919437E-02	9.210288E-04
7.384170E+03	5.948083E-02	9.277623E-04
7.393822E+03	5.975762E-02	9.344713E-04
7.403475E+03	6.002307E-02	9.411282E-04
7.413127E+03	6.027467E-02	9.476915E-04
7.422780E+03	6.051376E-02	9.541794E-04
7.432432E+03	6.073734E-02	9.605422E-04
7.442085E+03	6.094631E-02	9.667909E-04
7.451737E+03	6.114072E-02	9.729232E-04
7.461390E+03	6.131976E-02	9.789228E-04
7.471042E+03	6.148650E-02	9.848350E-04
7.480695E+03	6.163948E-02	9.906334E-04
7.490347E+03	6.178104E-02	9.963517E-04
