#wls	flux	fluxerr
1.544402E+03	3.378317E-03	1.889643E-04
1.583012E+03	3.399501E-03	1.899287E-04
1.621622E+03	3.419826E-03	1.908364E-04
1.660232E+03	3.439856E-03	1.917185E-04
1.698842E+03	3.458901E-03	1.925365E-04
1.737452E+03	3.477177E-03	1.933023E-04
1.776062E+03	3.494174E-03	1.939877E-04
1.814672E+03	3.509267E-03	1.945579E-04
1.853282E+03	3.521782E-03	1.949759E-04
1.891892E+03	3.531232E-03	1.952150E-04
1.930502E+03	3.537789E-03	1.952853E-04
1.969112E+03	3.543683E-03	1.953102E-04
2.007722E+03	3.552195E-03	1.954703E-04
2.046332E+03	3.569701E-03	1.961150E-04
2.084942E+03	3.601750E-03	1.975457E-04
2.123552E+03	3.650058E-03	1.998522E-04
2.162162E+03	3.713848E-03	2.029869E-04
2.200772E+03	3.788200E-03	2.066762E-04
2.239382E+03	3.869479E-03	2.107184E-04
2.277992E+03	3.954317E-03	2.149274E-04
2.316602E+03	4.042041E-03	2.192648E-04
2.355212E+03	4.132433E-03	2.237170E-04
2.393822E+03	4.225854E-03	2.283017E-04
2.432432E+03	4.323590E-03	2.330863E-04
2.471042E+03	4.425784E-03	2.380759E-04
2.509653E+03	4.533892E-03	2.433461E-04
2.548263E+03	4.649419E-03	2.489742E-04
2.586873E+03	4.772594E-03	2.549685E-04
2.625483E+03	4.904311E-03	2.613723E-04
2.664093E+03	5.046855E-03	2.683026E-04
2.702703E+03	5.199897E-03	2.757360E-04
2.741313E+03	5.366587E-03	2.838332E-04
2.779923E+03	5.546746E-03	2.925774E-04
2.818533E+03	5.742376E-03	3.020662E-04
2.857143E+03	5.955651E-03	3.124049E-04
2.895753E+03	6.188194E-03	3.236681E-04
2.905405E+03	6.249357E-03	3.266280E-04
2.915058E+03	6.312245E-03	3.296719E-04
2.924710E+03	6.376127E-03	3.327615E-04
2.934363E+03	6.441808E-03	3.359387E-04
2.944015E+03	6.508614E-03	3.391680E-04
2.953668E+03	6.577393E-03	3.424935E-04
2.963320E+03	6.647391E-03	3.458756E-04
2.972973E+03	6.719408E-03	3.493558E-04
2.982625E+03	6.793474E-03	3.529352E-04
2.992278E+03	6.868827E-03	3.565740E-04
3.001931E+03	6.946280E-03	3.603143E-04
3.011583E+03	7.025072E-03	3.641162E-04
3.021236E+03	7.106031E-03	3.680225E-04
3.030888E+03	7.188385E-03	3.719927E-04
3.040541E+03	7.272973E-03	3.760703E-04
3.050193E+03	7.359018E-03	3.802145E-04
3.059846E+03	7.448206E-03	3.845122E-04
3.069498E+03	7.538097E-03	3.888372E-04
3.079151E+03	7.631222E-03	3.933196E-04
3.088803E+03	7.725963E-03	3.978758E-04
3.098456E+03	7.822351E-03	4.025070E-04
3.108108E+03	7.922132E-03	4.073028E-04
3.117761E+03	8.022795E-03	4.121336E-04
3.127413E+03	8.126966E-03	4.171340E-04
3.137066E+03	8.232971E-03	4.222178E-04
3.146718E+03	8.341731E-03	4.274316E-04
3.156371E+03	8.452420E-03	4.327329E-04
3.166023E+03	8.565977E-03	4.381693E-04
3.175676E+03	8.682463E-03	4.437435E-04
3.185328E+03	8.801943E-03	4.494583E-04
3.194981E+03	8.923573E-03	4.552703E-04
3.204633E+03	9.048322E-03	4.612283E-04
3.214286E+03	9.175328E-03	4.672881E-04
3.223938E+03	9.305579E-03	4.734994E-04
3.233591E+03	9.439144E-03	4.798654E-04
3.243243E+03	9.576097E-03	4.863891E-04
3.252896E+03	9.715555E-03	4.930252E-04
3.262548E+03	9.858534E-03	4.998249E-04
3.272201E+03	1.000511E-02	5.067914E-04
3.281853E+03	1.015438E-02	5.138783E-04
3.291506E+03	1.030739E-02	5.211378E-04
3.301158E+03	1.046421E-02	5.285733E-04
3.310811E+03	1.062391E-02	5.361370E-04
3.320463E+03	1.078858E-02	5.439338E-04
3.330116E+03	1.095628E-02	5.518647E-04
3.339768E+03	1.112808E-02	5.599838E-04
3.349421E+03	1.130301E-02	5.682414E-04
3.359073E+03	1.148219E-02	5.766927E-04
3.368726E+03	1.166568E-02	5.853405E-04
3.378378E+03	1.185357E-02	5.941879E-04
3.388031E+03	1.204591E-02	6.032375E-04
3.397683E+03	1.224168E-02	6.124372E-04
3.407336E+03	1.244203E-02	6.218432E-04
3.416988E+03	1.264702E-02	6.314583E-04
3.426641E+03	1.285557E-02	6.412279E-04
3.436293E+03	1.306885E-02	6.512094E-04
3.445946E+03	1.328691E-02	6.614044E-04
3.455598E+03	1.350979E-02	6.718142E-04
3.465251E+03	1.373754E-02	6.824398E-04
3.474903E+03	1.396899E-02	6.932231E-04
3.484556E+03	1.420534E-02	7.042223E-04
3.494208E+03	1.444660E-02	7.154371E-04
3.503861E+03	1.469277E-02	7.268671E-04
3.513514E+03	1.494263E-02	7.384501E-04
3.523166E+03	1.519736E-02	7.502447E-04
3.532819E+03	1.545695E-02	7.622485E-04
3.542471E+03	1.572136E-02	7.744590E-04
3.552124E+03	1.598925E-02	7.868096E-04
3.561776E+03	1.626313E-02	7.994223E-04
3.571429E+03	1.654032E-02	8.121654E-04
3.581081E+03	1.682071E-02	8.250318E-04
3.590734E+03	1.710683E-02	8.381451E-04
3.600386E+03	1.739589E-02	8.513678E-04
3.610039E+03	1.768909E-02	8.647576E-04
3.619691E+03	1.798627E-02	8.783062E-04
3.629344E+03	1.828588E-02	8.919370E-04
3.638996E+03	1.858910E-02	9.057069E-04
3.648649E+03	1.889573E-02	9.196055E-04
3.658301E+03	1.920557E-02	9.336220E-04
3.667954E+03	1.951694E-02	9.476745E-04
3.677606E+03	1.983103E-02	9.618198E-04
3.687259E+03	2.014757E-02	9.760449E-04
3.696911E+03	2.046483E-02	9.902645E-04
3.706564E+03	2.078397E-02	1.004535E-03
3.716216E+03	2.110471E-02	1.018843E-03
3.725869E+03	2.142522E-02	1.033098E-03
3.735521E+03	2.174668E-02	1.047359E-03
3.745174E+03	2.206876E-02	1.061608E-03
3.754826E+03	2.239113E-02	1.075829E-03
3.764479E+03	2.271186E-02	1.089930E-03
3.774131E+03	2.303055E-02	1.103891E-03
3.783784E+03	2.334838E-02	1.117770E-03
3.793436E+03	2.366494E-02	1.131546E-03
3.803089E+03	2.397985E-02	1.145201E-03
3.812741E+03	2.429104E-02	1.158638E-03
3.822394E+03	2.459805E-02	1.171833E-03
3.832046E+03	2.490204E-02	1.184844E-03
3.841699E+03	2.520254E-02	1.197648E-03
3.851351E+03	2.549742E-02	1.210145E-03
3.861004E+03	2.578781E-02	1.222389E-03
3.870656E+03	2.607156E-02	1.234278E-03
3.880309E+03	2.634815E-02	1.245791E-03
3.889961E+03	2.661870E-02	1.256979E-03
3.899614E+03	2.688276E-02	1.267824E-03
3.909266E+03	2.713810E-02	1.278220E-03
3.918919E+03	2.738423E-02	1.288148E-03
3.928571E+03	2.762241E-02	1.297667E-03
3.938224E+03	2.785050E-02	1.306678E-03
3.947876E+03	2.806806E-02	1.315163E-03
3.957529E+03	2.827646E-02	1.323187E-03
3.967181E+03	2.847371E-02	1.330660E-03
3.976834E+03	2.865951E-02	1.337568E-03
3.986486E+03	2.883538E-02	1.343986E-03
3.996139E+03	2.899777E-02	1.349750E-03
4.005792E+03	2.915003E-02	1.355016E-03
4.015444E+03	2.929216E-02	1.359789E-03
4.025097E+03	2.942083E-02	1.363915E-03
4.034749E+03	2.953960E-02	1.367562E-03
4.044402E+03	2.964699E-02	1.370662E-03
4.054054E+03	2.974158E-02	1.373154E-03
4.063707E+03	2.982712E-02	1.375211E-03
4.073359E+03	2.990402E-02	1.376854E-03
4.083012E+03	2.996943E-02	1.377955E-03
4.092664E+03	3.002554E-02	1.378616E-03
4.102317E+03	3.007299E-02	1.378868E-03
4.111969E+03	3.011239E-02	1.378741E-03
4.121622E+03	3.014445E-02	1.378269E-03
4.131274E+03	3.016987E-02	1.377485E-03
4.140927E+03	3.018945E-02	1.376427E-03
4.150579E+03	3.020394E-02	1.375131E-03
4.160232E+03	3.021415E-02	1.373633E-03
4.169884E+03	3.021936E-02	1.371904E-03
4.179537E+03	3.022356E-02	1.370124E-03
4.189189E+03	3.022449E-02	1.368192E-03
4.198842E+03	3.022459E-02	1.366218E-03
4.208494E+03	3.022320E-02	1.364173E-03
4.218147E+03	3.022429E-02	1.362236E-03
4.227799E+03	3.022572E-02	1.360311E-03
4.237452E+03	3.022990E-02	1.358505E-03
4.247104E+03	3.023620E-02	1.356792E-03
4.256757E+03	3.024706E-02	1.355277E-03
4.266409E+03	3.026337E-02	1.354003E-03
4.276062E+03	3.028451E-02	1.352938E-03
4.285714E+03	3.031289E-02	1.352192E-03
4.295367E+03	3.034786E-02	1.351731E-03
4.305019E+03	3.039174E-02	1.351659E-03
4.314672E+03	3.044390E-02	1.351947E-03
4.324324E+03	3.050661E-02	1.352692E-03
4.333977E+03	3.057915E-02	1.353863E-03
4.343629E+03	3.066366E-02	1.355550E-03
4.353282E+03	3.075939E-02	1.357718E-03
4.362934E+03	3.086835E-02	1.360455E-03
4.372587E+03	3.098818E-02	1.363653E-03
4.382239E+03	3.112370E-02	1.367522E-03
4.391892E+03	3.127090E-02	1.371884E-03
4.401544E+03	3.143294E-02	1.376874E-03
4.411197E+03	3.160850E-02	1.382432E-03
4.420849E+03	3.179766E-02	1.388558E-03
4.430502E+03	3.200176E-02	1.395309E-03
4.440154E+03	3.221916E-02	1.402610E-03
4.449807E+03	3.244948E-02	1.410443E-03
4.459459E+03	3.269230E-02	1.418785E-03
4.469112E+03	3.294844E-02	1.427671E-03
4.478764E+03	3.321574E-02	1.437004E-03
4.488417E+03	3.349191E-02	1.446683E-03
4.498069E+03	3.377893E-02	1.456793E-03
4.507722E+03	3.407587E-02	1.467290E-03
4.517375E+03	3.437865E-02	1.477998E-03
4.527027E+03	3.468764E-02	1.488932E-03
4.536680E+03	3.500333E-02	1.500111E-03
4.546332E+03	3.532153E-02	1.511356E-03
4.555985E+03	3.564432E-02	1.522753E-03
4.565637E+03	3.596769E-02	1.534132E-03
4.575290E+03	3.629385E-02	1.545587E-03
4.584942E+03	3.662054E-02	1.557022E-03
4.594595E+03	3.694720E-02	1.568413E-03
4.604247E+03	3.727178E-02	1.579672E-03
4.613900E+03	3.759712E-02	1.590922E-03
4.623552E+03	3.792143E-02	1.602086E-03
4.633205E+03	3.824468E-02	1.613164E-03
4.642857E+03	3.856695E-02	1.624159E-03
4.652510E+03	3.888675E-02	1.635010E-03
4.662162E+03	3.920752E-02	1.645861E-03
4.671815E+03	3.952792E-02	1.656657E-03
4.681467E+03	3.984811E-02	1.667404E-03
4.691120E+03	4.016651E-02	1.678037E-03
4.700772E+03	4.048644E-02	1.688696E-03
4.710425E+03	4.080610E-02	1.699304E-03
4.720077E+03	4.112351E-02	1.709780E-03
4.729730E+03	4.144162E-02	1.720248E-03
4.739382E+03	4.175641E-02	1.730540E-03
4.749035E+03	4.207053E-02	1.740768E-03
4.758687E+03	4.237966E-02	1.750753E-03
4.768340E+03	4.268441E-02	1.760521E-03
4.777992E+03	4.298528E-02	1.770095E-03
4.787645E+03	4.327758E-02	1.779282E-03
4.797297E+03	4.356165E-02	1.788098E-03
4.806950E+03	4.383601E-02	1.796483E-03
4.816602E+03	4.409919E-02	1.804381E-03
4.826255E+03	4.434965E-02	1.811730E-03
4.835907E+03	4.458592E-02	1.818473E-03
4.845560E+03	4.480646E-02	1.824549E-03
4.855212E+03	4.500985E-02	1.829905E-03
4.864865E+03	4.519470E-02	1.834487E-03
4.874517E+03	4.535983E-02	1.838251E-03
4.884170E+03	4.550231E-02	1.841082E-03
4.893822E+03	4.562488E-02	1.843095E-03
4.903475E+03	4.572508E-02	1.844196E-03
4.913127E+03	4.580082E-02	1.844304E-03
4.922780E+03	4.585558E-02	1.843564E-03
4.932432E+03	4.588792E-02	1.841922E-03
4.942085E+03	4.589671E-02	1.839336E-03
4.951737E+03	4.588653E-02	1.835996E-03
4.961390E+03	4.585531E-02	1.831822E-03
4.971042E+03	4.580837E-02	1.827030E-03
4.980695E+03	4.574442E-02	1.821571E-03
4.990347E+03	4.566943E-02	1.815687E-03
5.000000E+03	4.558279E-02	1.809355E-03
5.009653E+03	4.549106E-02	1.802837E-03
5.019305E+03	4.539412E-02	1.796130E-03
5.028958E+03	4.529893E-02	1.789509E-03
5.038610E+03	4.520566E-02	1.782982E-03
5.048263E+03	4.512146E-02	1.776828E-03
5.057915E+03	4.504658E-02	1.771056E-03
5.067568E+03	4.498812E-02	1.765944E-03
5.077220E+03	4.494796E-02	1.761561E-03
5.086873E+03	4.492786E-02	1.757974E-03
5.096525E+03	4.493448E-02	1.755439E-03
5.106178E+03	4.496922E-02	1.754006E-03
5.115830E+03	4.503492E-02	1.753779E-03
5.125483E+03	4.513420E-02	1.754855E-03
5.135135E+03	4.526933E-02	1.757317E-03
5.144788E+03	4.544236E-02	1.761237E-03
5.154440E+03	4.565496E-02	1.766673E-03
5.164093E+03	4.591028E-02	1.773739E-03
5.173745E+03	4.620590E-02	1.782335E-03
5.183398E+03	4.654598E-02	1.792614E-03
5.193050E+03	4.692745E-02	1.804449E-03
5.202703E+03	4.735375E-02	1.817967E-03
5.212355E+03	4.782283E-02	1.833079E-03
5.222008E+03	4.833392E-02	1.849750E-03
5.231660E+03	4.888596E-02	1.867931E-03
5.241313E+03	4.947930E-02	1.887629E-03
5.250965E+03	5.010842E-02	1.908627E-03
5.260618E+03	5.077476E-02	1.930974E-03
5.270270E+03	5.147388E-02	1.954495E-03
5.279923E+03	5.220277E-02	1.979070E-03
5.289575E+03	5.295803E-02	2.004566E-03
5.299228E+03	5.373790E-02	2.030912E-03
5.308880E+03	5.453435E-02	2.057803E-03
5.318533E+03	5.534693E-02	2.085218E-03
5.328185E+03	5.616892E-02	2.112903E-03
5.337838E+03	5.699736E-02	2.140746E-03
5.347490E+03	5.782281E-02	2.168392E-03
5.357143E+03	5.864405E-02	2.195797E-03
5.366795E+03	5.945329E-02	2.222672E-03
5.376448E+03	6.024707E-02	2.248890E-03
5.386100E+03	6.101517E-02	2.274073E-03
5.395753E+03	6.175638E-02	2.298183E-03
5.405405E+03	6.246282E-02	2.320932E-03
5.415058E+03	6.313139E-02	2.342212E-03
5.424710E+03	6.375471E-02	2.361756E-03
5.434363E+03	6.432792E-02	2.379393E-03
5.444015E+03	6.484672E-02	2.394974E-03
5.453668E+03	6.530966E-02	2.408456E-03
5.463320E+03	6.571115E-02	2.419642E-03
5.472973E+03	6.604859E-02	2.428449E-03
5.482625E+03	6.632256E-02	2.434908E-03
5.492278E+03	6.652956E-02	2.438902E-03
5.501931E+03	6.667173E-02	2.440522E-03
5.511583E+03	6.674704E-02	2.439703E-03
5.521236E+03	6.675677E-02	2.436506E-03
5.530888E+03	6.670536E-02	2.431101E-03
5.540541E+03	6.659305E-02	2.423509E-03
5.550193E+03	6.642568E-02	2.413951E-03
5.559846E+03	6.620467E-02	2.402488E-03
5.569498E+03	6.593442E-02	2.389288E-03
5.579151E+03	6.562216E-02	2.374620E-03
5.588803E+03	6.527048E-02	2.358586E-03
5.598456E+03	6.488701E-02	2.341466E-03
5.608108E+03	6.447463E-02	2.323369E-03
5.617761E+03	6.404095E-02	2.304573E-03
5.627413E+03	6.358863E-02	2.285177E-03
5.637066E+03	6.312490E-02	2.265444E-03
5.646718E+03	6.265193E-02	2.245453E-03
5.656371E+03	6.217618E-02	2.225436E-03
5.666023E+03	6.170131E-02	2.205525E-03
5.675676E+03	6.122600E-02	2.185672E-03
5.685328E+03	6.075976E-02	2.166217E-03
5.694981E+03	6.030027E-02	2.147075E-03
5.704633E+03	5.984921E-02	2.128305E-03
5.714286E+03	5.940994E-02	2.110026E-03
5.723938E+03	5.898318E-02	2.092261E-03
5.733591E+03	5.856690E-02	2.074938E-03
5.743243E+03	5.816313E-02	2.058125E-03
5.752896E+03	5.776917E-02	2.041726E-03
5.762548E+03	5.738633E-02	2.025787E-03
5.772201E+03	5.701141E-02	2.010192E-03
5.781853E+03	5.664739E-02	1.995046E-03
5.791506E+03	5.628658E-02	1.980077E-03
5.801158E+03	5.593390E-02	1.965458E-03
5.810811E+03	5.558376E-02	1.950991E-03
5.820463E+03	5.523694E-02	1.936704E-03
5.830116E+03	5.489020E-02	1.922481E-03
5.839768E+03	5.454457E-02	1.908361E-03
5.849421E+03	5.419923E-02	1.894313E-03
5.859073E+03	5.385156E-02	1.880246E-03
5.868726E+03	5.350325E-02	1.866220E-03
5.878378E+03	5.315419E-02	1.852229E-03
5.888031E+03	5.280252E-02	1.838211E-03
5.897683E+03	5.245063E-02	1.824247E-03
5.907336E+03	5.209908E-02	1.810358E-03
5.916988E+03	5.174861E-02	1.796568E-03
5.926641E+03	5.139818E-02	1.782842E-03
5.936293E+03	5.105075E-02	1.769281E-03
5.945946E+03	5.070732E-02	1.755920E-03
5.955598E+03	5.036712E-02	1.742732E-03
5.965251E+03	5.003498E-02	1.729882E-03
5.974903E+03	4.970819E-02	1.717276E-03
5.984556E+03	4.938972E-02	1.705014E-03
5.994208E+03	4.907871E-02	1.693069E-03
6.003861E+03	4.877815E-02	1.681539E-03
6.013514E+03	4.849107E-02	1.670530E-03
6.023166E+03	4.821306E-02	1.659887E-03
6.032819E+03	4.795073E-02	1.649838E-03
6.042471E+03	4.770320E-02	1.640351E-03
6.052124E+03	4.746933E-02	1.631385E-03
6.061776E+03	4.725141E-02	1.623018E-03
6.071429E+03	4.704957E-02	1.615253E-03
6.081081E+03	4.686364E-02	1.608083E-03
6.090734E+03	4.669313E-02	1.601491E-03
6.100386E+03	4.653557E-02	1.595389E-03
6.110039E+03	4.639356E-02	1.589865E-03
6.119691E+03	4.626242E-02	1.584757E-03
6.129344E+03	4.614263E-02	1.580079E-03
6.138996E+03	4.603284E-02	1.575785E-03
6.148649E+03	4.593164E-02	1.571823E-03
6.158301E+03	4.583764E-02	1.568146E-03
6.167954E+03	4.574778E-02	1.564648E-03
6.177606E+03	4.566443E-02	1.561409E-03
6.187259E+03	4.558305E-02	1.558272E-03
6.196911E+03	4.550630E-02	1.555327E-03
6.206564E+03	4.543002E-02	1.552432E-03
6.216216E+03	4.535538E-02	1.549624E-03
6.225869E+03	4.528194E-02	1.546889E-03
6.235521E+03	4.520931E-02	1.544212E-03
6.245174E+03	4.513716E-02	1.541580E-03
6.254826E+03	4.506523E-02	1.538985E-03
6.264479E+03	4.499333E-02	1.536419E-03
6.274131E+03	4.492127E-02	1.533873E-03
6.283784E+03	4.484880E-02	1.531340E-03
6.293436E+03	4.477568E-02	1.528810E-03
6.303089E+03	4.469968E-02	1.526206E-03
6.312741E+03	4.462367E-02	1.523625E-03
6.322394E+03	4.454501E-02	1.520977E-03
6.332046E+03	4.446250E-02	1.518218E-03
6.341699E+03	4.437466E-02	1.515299E-03
6.351351E+03	4.427798E-02	1.512098E-03
6.361004E+03	4.417388E-02	1.508663E-03
6.370656E+03	4.405824E-02	1.504853E-03
6.380309E+03	4.392848E-02	1.500578E-03
6.389961E+03	4.378190E-02	1.495745E-03
6.399614E+03	4.361555E-02	1.490252E-03
6.409266E+03	4.342485E-02	1.483943E-03
6.418919E+03	4.321032E-02	1.476832E-03
6.428571E+03	4.296751E-02	1.468767E-03
6.438224E+03	4.269555E-02	1.459717E-03
6.447876E+03	4.238874E-02	1.449486E-03
6.457529E+03	4.204697E-02	1.438068E-03
6.467181E+03	4.166874E-02	1.425411E-03
6.476834E+03	4.125313E-02	1.411481E-03
6.486486E+03	4.080140E-02	1.396320E-03
6.496139E+03	4.031048E-02	1.379821E-03
6.505792E+03	3.978443E-02	1.362121E-03
6.515444E+03	3.922139E-02	1.343155E-03
6.525097E+03	3.862655E-02	1.323099E-03
6.534749E+03	3.800077E-02	1.301981E-03
6.544402E+03	3.734706E-02	1.279902E-03
6.554054E+03	3.666878E-02	1.256977E-03
6.563707E+03	3.596965E-02	1.233330E-03
6.573359E+03	3.525366E-02	1.209098E-03
6.583012E+03	3.452490E-02	1.184419E-03
6.592664E+03	3.378759E-02	1.159439E-03
6.602317E+03	3.304593E-02	1.134299E-03
6.611969E+03	3.230533E-02	1.109185E-03
6.621622E+03	3.156715E-02	1.084143E-03
6.631274E+03	3.083767E-02	1.059388E-03
6.640927E+03	3.011912E-02	1.034997E-03
6.650579E+03	2.941472E-02	1.011079E-03
6.660232E+03	2.872733E-02	9.877351E-04
6.669884E+03	2.805952E-02	9.650517E-04
6.679537E+03	2.741354E-02	9.431067E-04
6.689189E+03	2.679125E-02	9.219649E-04
6.698842E+03	2.619421E-02	9.016802E-04
6.708494E+03	2.562371E-02	8.822976E-04
6.718147E+03	2.508174E-02	8.638861E-04
6.727799E+03	2.456691E-02	8.463987E-04
6.737452E+03	2.408174E-02	8.299227E-04
6.747104E+03	2.362547E-02	8.144325E-04
6.756757E+03	2.319725E-02	7.998995E-04
6.766409E+03	2.279888E-02	7.863868E-04
6.776062E+03	2.242921E-02	7.738550E-04
6.785714E+03	2.208790E-02	7.622934E-04
6.795367E+03	2.177454E-02	7.516887E-04
6.805019E+03	2.148864E-02	7.420248E-04
6.814672E+03	2.122968E-02	7.332837E-04
6.824324E+03	2.099707E-02	7.254464E-04
6.833977E+03	2.079020E-02	7.184926E-04
6.843629E+03	2.060846E-02	7.124014E-04
6.853282E+03	2.045207E-02	7.071811E-04
6.862934E+03	2.031872E-02	7.027523E-04
6.872587E+03	2.020862E-02	6.991234E-04
6.882239E+03	2.012117E-02	6.962740E-04
6.891892E+03	2.005663E-02	6.942129E-04
6.901544E+03	2.001274E-02	6.928632E-04
6.911197E+03	1.998978E-02	6.922349E-04
6.920849E+03	1.998722E-02	6.923098E-04
6.930502E+03	2.000454E-02	6.930704E-04
6.940154E+03	2.004207E-02	6.945287E-04
6.949807E+03	2.009767E-02	6.966106E-04
6.959459E+03	2.017169E-02	6.993290E-04
6.969112E+03	2.026369E-02	7.026683E-04
6.978764E+03	2.037321E-02	7.066134E-04
6.988417E+03	2.049980E-02	7.111489E-04
6.998069E+03	2.064303E-02	7.162599E-04
7.007722E+03	2.080245E-02	7.219309E-04
7.017375E+03	2.097760E-02	7.281464E-04
7.027027E+03	2.116713E-02	7.348596E-04
7.036680E+03	2.137232E-02	7.421150E-04
7.046332E+03	2.159088E-02	7.498332E-04
7.055985E+03	2.182407E-02	7.580581E-04
7.065637E+03	2.206950E-02	7.667069E-04
7.075290E+03	2.232748E-02	7.757900E-04
7.084942E+03	2.259736E-02	7.852854E-04
7.094595E+03	2.287847E-02	7.951694E-04
7.104247E+03	2.316909E-02	8.053826E-04
7.113900E+03	2.347043E-02	8.159665E-04
7.123552E+03	2.377966E-02	8.268230E-04
7.133205E+03	2.409797E-02	8.379931E-04
7.142857E+03	2.442241E-02	8.493748E-04
7.152510E+03	2.475202E-02	8.609336E-04
7.162162E+03	2.508789E-02	8.727083E-04
7.171815E+03	2.542802E-02	8.846286E-04
7.181467E+03	2.577026E-02	8.966196E-04
7.191120E+03	2.611462E-02	9.086819E-04
7.200772E+03	2.646003E-02	9.207779E-04
7.210425E+03	2.680421E-02	9.328279E-04
7.220077E+03	2.714835E-02	9.448731E-04
7.229730E+03	2.748902E-02	9.567943E-04
7.239382E+03	2.782618E-02	9.685898E-04
7.249035E+03	2.815750E-02	9.801785E-04
7.258687E+03	2.848426E-02	9.916048E-04
7.268340E+03	2.880290E-02	1.002744E-03
7.277992E+03	2.911361E-02	1.013604E-03
7.287645E+03	2.941417E-02	1.024105E-03
7.297297E+03	2.970500E-02	1.034264E-03
7.306950E+03	2.998539E-02	1.044056E-03
7.316602E+03	3.025479E-02	1.053460E-03
7.326255E+03	3.051135E-02	1.062412E-03
7.335907E+03	3.075595E-02	1.070944E-03
7.345560E+03	3.098822E-02	1.079042E-03
7.355212E+03	3.120784E-02	1.086695E-03
7.364865E+03	3.141314E-02	1.093844E-03
7.374517E+03	3.160381E-02	1.100480E-03
7.384170E+03	3.178249E-02	1.106692E-03
7.393822E+03	3.194621E-02	1.112380E-03
7.403475E+03	3.209630E-02	1.117588E-03
7.413127E+03	3.223138E-02	1.122269E-03
7.422780E+03	3.235284E-02	1.126471E-03
7.432432E+03	3.246089E-02	1.130202E-03
7.442085E+03	3.255427E-02	1.133417E-03
7.451737E+03	3.263467E-02	1.136177E-03
7.461390E+03	3.270098E-02	1.138441E-03
7.471042E+03	3.275647E-02	1.140325E-03
7.480695E+03	3.279716E-02	1.141689E-03
7.490347E+03	3.282789E-02	1.142704E-03
