#wls	flux	fluxerr
1.544402E+03	1.882757E-03	8.748181E-05
1.583012E+03	1.895307E-03	8.784434E-05
1.621622E+03	1.907533E-03	8.818317E-05
1.660232E+03	1.920113E-03	8.852936E-05
1.698842E+03	1.932701E-03	8.886667E-05
1.737452E+03	1.944795E-03	8.917177E-05
1.776062E+03	1.957142E-03	8.947880E-05
1.814672E+03	1.968440E-03	8.972809E-05
1.853282E+03	1.979014E-03	8.993450E-05
1.891892E+03	1.988292E-03	9.007225E-05
1.930502E+03	1.996415E-03	9.014800E-05
1.969112E+03	2.004678E-03	9.022031E-05
2.007722E+03	2.015322E-03	9.038939E-05
2.046332E+03	2.031716E-03	9.080451E-05
2.084942E+03	2.056802E-03	9.159355E-05
2.123552E+03	2.092384E-03	9.283200E-05
2.162162E+03	2.137203E-03	9.445835E-05
2.200772E+03	2.189633E-03	9.639568E-05
2.239382E+03	2.247074E-03	9.852525E-05
2.277992E+03	2.307719E-03	1.007646E-04
2.316602E+03	2.371702E-03	1.031168E-04
2.355212E+03	2.439075E-03	1.055814E-04
2.393822E+03	2.509470E-03	1.081395E-04
2.432432E+03	2.584228E-03	1.108457E-04
2.471042E+03	2.664040E-03	1.137259E-04
2.509653E+03	2.749241E-03	1.167897E-04
2.548263E+03	2.841023E-03	1.200830E-04
2.586873E+03	2.940229E-03	1.236355E-04
2.625483E+03	3.047318E-03	1.274600E-04
2.664093E+03	3.164141E-03	1.316265E-04
2.702703E+03	3.290853E-03	1.361329E-04
2.741313E+03	3.429544E-03	1.410564E-04
2.779923E+03	3.581037E-03	1.464196E-04
2.818533E+03	3.746751E-03	1.522688E-04
2.857143E+03	3.928791E-03	1.586756E-04
2.895753E+03	4.128411E-03	1.656751E-04
2.905405E+03	4.181303E-03	1.675253E-04
2.915058E+03	4.235340E-03	1.694130E-04
2.924710E+03	4.291128E-03	1.713622E-04
2.934363E+03	4.348142E-03	1.733516E-04
2.944015E+03	4.406451E-03	1.753835E-04
2.953668E+03	4.466124E-03	1.774605E-04
2.963320E+03	4.527184E-03	1.795830E-04
2.972973E+03	4.590263E-03	1.817759E-04
2.982625E+03	4.654796E-03	1.840162E-04
2.992278E+03	4.720812E-03	1.863048E-04
3.001931E+03	4.788344E-03	1.886425E-04
3.011583E+03	4.858051E-03	1.910551E-04
3.021236E+03	4.929352E-03	1.935190E-04
3.030888E+03	5.002283E-03	1.960354E-04
3.040541E+03	5.076879E-03	1.986051E-04
3.050193E+03	5.153839E-03	2.012551E-04
3.059846E+03	5.231891E-03	2.039352E-04
3.069498E+03	5.312402E-03	2.066983E-04
3.079151E+03	5.395443E-03	2.095465E-04
3.088803E+03	5.479692E-03	2.124280E-04
3.098456E+03	5.566575E-03	2.153976E-04
3.108108E+03	5.655457E-03	2.184302E-04
3.117761E+03	5.746381E-03	2.215268E-04
3.127413E+03	5.839401E-03	2.246891E-04
3.137066E+03	5.935304E-03	2.279467E-04
3.146718E+03	6.033424E-03	2.312734E-04
3.156371E+03	6.133817E-03	2.346706E-04
3.166023E+03	6.236536E-03	2.381399E-04
3.175676E+03	6.342414E-03	2.417125E-04
3.185328E+03	6.450755E-03	2.453609E-04
3.194981E+03	6.561619E-03	2.490868E-04
3.204633E+03	6.675065E-03	2.528918E-04
3.214286E+03	6.791977E-03	2.568087E-04
3.223938E+03	6.911619E-03	2.608087E-04
3.233591E+03	7.034055E-03	2.648936E-04
3.243243E+03	7.159355E-03	2.690652E-04
3.252896E+03	7.288448E-03	2.733576E-04
3.262548E+03	7.420562E-03	2.777409E-04
3.272201E+03	7.555765E-03	2.822168E-04
3.281853E+03	7.694129E-03	2.867873E-04
3.291506E+03	7.835725E-03	2.914539E-04
3.301158E+03	7.981552E-03	2.962531E-04
3.310811E+03	8.130780E-03	3.011528E-04
3.320463E+03	8.284443E-03	3.061903E-04
3.330116E+03	8.440709E-03	3.112970E-04
3.339768E+03	8.601585E-03	3.165459E-04
3.349421E+03	8.766185E-03	3.219033E-04
3.359073E+03	8.934584E-03	3.273708E-04
3.368726E+03	9.106858E-03	3.329502E-04
3.378378E+03	9.284128E-03	3.386812E-04
3.388031E+03	9.465450E-03	3.445282E-04
3.397683E+03	9.650897E-03	3.504927E-04
3.407336E+03	9.840539E-03	3.565761E-04
3.416988E+03	1.003556E-02	3.628200E-04
3.426641E+03	1.023496E-02	3.691865E-04
3.436293E+03	1.043878E-02	3.756767E-04
3.445946E+03	1.064711E-02	3.822915E-04
3.455598E+03	1.086118E-02	3.890743E-04
3.465251E+03	1.107868E-02	3.959410E-04
3.474903E+03	1.130206E-02	4.029777E-04
3.484556E+03	1.153016E-02	4.101415E-04
3.494208E+03	1.176426E-02	4.174764E-04
3.503861E+03	1.200184E-02	4.248916E-04
3.513514E+03	1.224541E-02	4.324748E-04
3.523166E+03	1.249363E-02	4.401769E-04
3.532819E+03	1.274638E-02	4.479925E-04
3.542471E+03	1.300488E-02	4.559625E-04
3.552124E+03	1.326617E-02	4.639825E-04
3.561776E+03	1.353277E-02	4.721391E-04
3.571429E+03	1.380299E-02	4.803718E-04
3.581081E+03	1.407794E-02	4.887181E-04
3.590734E+03	1.435430E-02	4.970619E-04
3.600386E+03	1.463460E-02	5.054894E-04
3.610039E+03	1.491536E-02	5.138800E-04
3.619691E+03	1.519911E-02	5.223205E-04
3.629344E+03	1.548381E-02	5.307398E-04
3.638996E+03	1.577051E-02	5.391730E-04
3.648649E+03	1.605543E-02	5.474912E-04
3.658301E+03	1.634121E-02	5.557837E-04
3.667954E+03	1.662560E-02	5.639746E-04
3.677606E+03	1.690800E-02	5.720431E-04
3.687259E+03	1.718777E-02	5.799687E-04
3.696911E+03	1.746434E-02	5.877324E-04
3.706564E+03	1.773893E-02	5.953758E-04
3.716216E+03	1.800764E-02	6.027687E-04
3.725869E+03	1.827366E-02	6.100194E-04
3.735521E+03	1.853510E-02	6.170654E-04
3.745174E+03	1.879199E-02	6.239091E-04
3.754826E+03	1.904460E-02	6.305603E-04
3.764479E+03	1.929525E-02	6.370965E-04
3.774131E+03	1.954090E-02	6.434187E-04
3.783784E+03	1.978614E-02	6.496783E-04
3.793436E+03	2.002817E-02	6.557840E-04
3.803089E+03	2.027183E-02	6.618946E-04
3.812741E+03	2.051626E-02	6.679819E-04
3.822394E+03	2.076243E-02	6.740768E-04
3.832046E+03	2.101117E-02	6.802055E-04
3.841699E+03	2.126308E-02	6.863869E-04
3.851351E+03	2.152045E-02	6.926936E-04
3.861004E+03	2.177927E-02	6.989958E-04
3.870656E+03	2.204114E-02	7.053438E-04
3.880309E+03	2.230733E-02	7.117778E-04
3.889961E+03	2.257264E-02	7.181307E-04
3.899614E+03	2.283977E-02	7.244883E-04
3.909266E+03	2.310492E-02	7.307305E-04
3.918919E+03	2.336407E-02	7.367306E-04
3.928571E+03	2.361929E-02	7.425557E-04
3.938224E+03	2.386634E-02	7.480741E-04
3.947876E+03	2.410303E-02	7.532197E-04
3.957529E+03	2.432730E-02	7.579309E-04
3.967181E+03	2.453724E-02	7.621526E-04
3.976834E+03	2.472906E-02	7.657716E-04
3.986486E+03	2.490586E-02	7.688884E-04
3.996139E+03	2.506465E-02	7.714154E-04
4.005792E+03	2.520507E-02	7.733472E-04
4.015444E+03	2.532724E-02	7.746927E-04
4.025097E+03	2.543180E-02	7.754767E-04
4.034749E+03	2.551982E-02	7.757372E-04
4.044402E+03	2.559280E-02	7.755240E-04
4.054054E+03	2.565249E-02	7.748949E-04
4.063707E+03	2.569877E-02	7.738503E-04
4.073359E+03	2.573816E-02	7.725896E-04
4.083012E+03	2.577065E-02	7.711147E-04
4.092664E+03	2.579621E-02	7.694274E-04
4.102317E+03	2.582121E-02	7.677187E-04
4.111969E+03	2.584311E-02	7.659140E-04
4.121622E+03	2.586780E-02	7.641884E-04
4.131274E+03	2.589228E-02	7.624531E-04
4.140927E+03	2.591970E-02	7.608007E-04
4.150579E+03	2.595292E-02	7.593143E-04
4.160232E+03	2.598814E-02	7.578817E-04
4.169884E+03	2.602762E-02	7.565683E-04
4.179537E+03	2.606914E-02	7.553087E-04
4.189189E+03	2.611656E-02	7.542143E-04
4.198842E+03	2.616710E-02	7.532039E-04
4.208494E+03	2.621784E-02	7.521924E-04
4.218147E+03	2.627198E-02	7.512723E-04
4.227799E+03	2.632418E-02	7.502902E-04
4.237452E+03	2.637539E-02	7.492743E-04
4.247104E+03	2.642451E-02	7.481939E-04
4.256757E+03	2.647052E-02	7.470211E-04
4.266409E+03	2.651042E-02	7.456728E-04
4.276062E+03	2.654776E-02	7.442506E-04
4.285714E+03	2.657797E-02	7.426278E-04
4.295367E+03	2.660307E-02	7.408628E-04
4.305019E+03	2.662330E-02	7.389645E-04
4.314672E+03	2.663935E-02	7.369531E-04
4.324324E+03	2.665030E-02	7.348053E-04
4.333977E+03	2.665986E-02	7.326243E-04
4.343629E+03	2.667026E-02	7.304723E-04
4.353282E+03	2.668427E-02	7.284248E-04
4.362934E+03	2.670526E-02	7.265729E-04
4.372587E+03	2.673514E-02	7.249671E-04
4.382239E+03	2.678247E-02	7.238365E-04
4.391892E+03	2.684604E-02	7.231443E-04
4.401544E+03	2.693723E-02	7.231920E-04
4.411197E+03	2.705946E-02	7.240642E-04
4.420849E+03	2.721615E-02	7.258444E-04
4.430502E+03	2.741475E-02	7.287221E-04
4.440154E+03	2.766037E-02	7.328220E-04
4.449807E+03	2.795568E-02	7.382033E-04
4.459459E+03	2.830689E-02	7.450172E-04
4.469112E+03	2.871743E-02	7.533397E-04
4.478764E+03	2.918986E-02	7.632235E-04
4.488417E+03	2.972348E-02	7.746356E-04
4.498069E+03	3.032058E-02	7.876210E-04
4.507722E+03	3.098003E-02	8.021359E-04
4.517375E+03	3.169905E-02	8.180940E-04
4.527027E+03	3.247093E-02	8.353096E-04
4.536680E+03	3.329192E-02	8.536750E-04
4.546332E+03	3.415185E-02	8.729200E-04
4.555985E+03	3.504632E-02	8.929253E-04
4.565637E+03	3.595947E-02	9.132819E-04
4.575290E+03	3.688180E-02	9.337466E-04
4.584942E+03	3.779756E-02	9.539226E-04
4.594595E+03	3.869584E-02	9.735392E-04
4.604247E+03	3.956297E-02	9.922600E-04
4.613900E+03	4.038270E-02	1.009689E-03
4.623552E+03	4.114529E-02	1.025597E-03
4.633205E+03	4.183947E-02	1.039718E-03
4.642857E+03	4.245562E-02	1.051833E-03
4.652510E+03	4.298314E-02	1.061700E-03
4.662162E+03	4.341687E-02	1.069213E-03
4.671815E+03	4.376051E-02	1.074486E-03
4.681467E+03	4.400848E-02	1.077403E-03
4.691120E+03	4.416731E-02	1.078145E-03
4.700772E+03	4.424012E-02	1.076810E-03
4.710425E+03	4.423874E-02	1.073702E-03
4.720077E+03	4.417378E-02	1.069096E-03
4.729730E+03	4.405413E-02	1.063218E-03
4.739382E+03	4.389860E-02	1.056533E-03
4.749035E+03	4.371069E-02	1.049132E-03
4.758687E+03	4.351168E-02	1.041531E-03
4.768340E+03	4.330660E-02	1.033852E-03
4.777992E+03	4.310511E-02	1.026325E-03
4.787645E+03	4.291808E-02	1.019206E-03
4.797297E+03	4.275137E-02	1.012631E-03
4.806950E+03	4.260891E-02	1.006687E-03
4.816602E+03	4.248968E-02	1.001345E-03
4.826255E+03	4.239678E-02	9.966721E-04
4.835907E+03	4.232865E-02	9.926272E-04
4.845560E+03	4.227958E-02	9.890710E-04
4.855212E+03	4.224547E-02	9.859041E-04
4.864865E+03	4.222714E-02	9.831424E-04
4.874517E+03	4.221319E-02	9.805175E-04
4.884170E+03	4.220027E-02	9.779508E-04
4.893822E+03	4.217904E-02	9.752251E-04
4.903475E+03	4.214551E-02	9.722491E-04
4.913127E+03	4.209283E-02	9.688665E-04
4.922780E+03	4.201145E-02	9.648602E-04
4.932432E+03	4.189788E-02	9.601539E-04
4.942085E+03	4.174387E-02	9.545624E-04
4.951737E+03	4.155071E-02	9.481208E-04
4.961390E+03	4.130739E-02	9.405828E-04
4.971042E+03	4.102151E-02	9.321277E-04
4.980695E+03	4.068908E-02	9.226694E-04
4.990347E+03	4.031679E-02	9.123648E-04
5.000000E+03	3.990811E-02	9.012969E-04
5.009653E+03	3.947398E-02	8.897156E-04
5.019305E+03	3.902423E-02	8.778444E-04
5.028958E+03	3.856711E-02	8.658694E-04
5.038610E+03	3.811663E-02	8.541038E-04
5.048263E+03	3.768394E-02	8.427953E-04
5.057915E+03	3.727715E-02	8.321215E-04
5.067568E+03	3.690844E-02	8.223491E-04
5.077220E+03	3.658618E-02	8.136588E-04
5.086873E+03	3.631511E-02	8.061490E-04
5.096525E+03	3.610358E-02	7.999976E-04
5.106178E+03	3.595636E-02	7.953024E-04
5.115830E+03	3.587492E-02	7.920874E-04
5.125483E+03	3.586479E-02	7.904661E-04
5.135135E+03	3.592841E-02	7.904838E-04
5.144788E+03	3.606539E-02	7.921230E-04
5.154440E+03	3.627959E-02	7.954596E-04
5.164093E+03	3.656961E-02	8.004541E-04
5.173745E+03	3.694063E-02	8.072116E-04
5.183398E+03	3.738776E-02	8.156161E-04
5.193050E+03	3.790993E-02	8.256365E-04
5.202703E+03	3.851044E-02	8.373366E-04
5.212355E+03	3.918166E-02	8.505425E-04
5.222008E+03	3.991999E-02	8.651694E-04
5.231660E+03	4.072614E-02	8.812260E-04
5.241313E+03	4.158954E-02	8.984773E-04
5.250965E+03	4.250388E-02	9.167818E-04
5.260618E+03	4.346777E-02	9.361054E-04
5.270270E+03	4.446813E-02	9.561622E-04
5.279923E+03	4.549973E-02	9.768370E-04
5.289575E+03	4.655110E-02	9.978817E-04
5.299228E+03	4.761637E-02	1.019169E-03
5.308880E+03	4.868656E-02	1.040508E-03
5.318533E+03	4.975245E-02	1.061700E-03
5.328185E+03	5.080155E-02	1.082482E-03
5.337838E+03	5.182789E-02	1.102728E-03
5.347490E+03	5.282248E-02	1.122250E-03
5.357143E+03	5.377319E-02	1.140795E-03
5.366795E+03	5.467512E-02	1.158264E-03
5.376448E+03	5.552043E-02	1.174495E-03
5.386100E+03	5.630166E-02	1.189338E-03
5.395753E+03	5.700801E-02	1.202571E-03
5.405405E+03	5.763613E-02	1.214130E-03
5.415058E+03	5.817906E-02	1.223877E-03
5.424710E+03	5.862992E-02	1.231675E-03
5.434363E+03	5.897789E-02	1.237304E-03
5.444015E+03	5.921979E-02	1.240709E-03
5.453668E+03	5.934536E-02	1.241683E-03
5.463320E+03	5.935653E-02	1.240278E-03
5.472973E+03	5.924136E-02	1.236252E-03
5.482625E+03	5.900125E-02	1.229646E-03
5.492278E+03	5.863610E-02	1.220469E-03
5.501931E+03	5.814475E-02	1.208705E-03
5.511583E+03	5.754025E-02	1.194636E-03
5.521236E+03	5.682344E-02	1.178287E-03
5.530888E+03	5.600539E-02	1.159897E-03
5.540541E+03	5.510654E-02	1.139895E-03
5.550193E+03	5.413467E-02	1.118448E-03
5.559846E+03	5.310949E-02	1.095967E-03
5.569498E+03	5.204775E-02	1.072801E-03
5.579151E+03	5.096642E-02	1.049300E-03
5.588803E+03	4.987883E-02	1.025740E-03
5.598456E+03	4.880435E-02	1.002519E-03
5.608108E+03	4.775790E-02	9.799405E-04
5.617761E+03	4.675324E-02	9.582839E-04
5.627413E+03	4.579977E-02	9.377387E-04
5.637066E+03	4.491439E-02	9.186460E-04
5.646718E+03	4.410060E-02	9.010725E-04
5.656371E+03	4.336915E-02	8.852325E-04
5.666023E+03	4.272357E-02	8.711926E-04
5.675676E+03	4.217413E-02	8.591564E-04
5.685328E+03	4.171858E-02	8.490718E-04
5.694981E+03	4.136130E-02	8.410230E-04
5.704633E+03	4.110233E-02	8.350045E-04
5.714286E+03	4.093994E-02	8.309765E-04
5.723938E+03	4.086800E-02	8.288096E-04
5.733591E+03	4.088623E-02	8.284939E-04
5.743243E+03	4.098189E-02	8.297674E-04
5.752896E+03	4.114811E-02	8.324884E-04
5.762548E+03	4.137356E-02	8.364253E-04
5.772201E+03	4.164528E-02	8.413144E-04
5.781853E+03	4.194637E-02	8.468138E-04
5.791506E+03	4.226460E-02	8.526767E-04
5.801158E+03	4.258758E-02	8.586541E-04
5.810811E+03	4.289529E-02	8.643432E-04
5.820463E+03	4.317692E-02	8.695286E-04
5.830116E+03	4.341781E-02	8.739172E-04
5.839768E+03	4.361368E-02	8.774255E-04
5.849421E+03	4.375128E-02	8.797894E-04
5.859073E+03	4.383115E-02	8.810227E-04
5.868726E+03	4.384484E-02	8.809579E-04
5.878378E+03	4.379473E-02	8.796451E-04
5.888031E+03	4.368248E-02	8.771195E-04
5.897683E+03	4.350875E-02	8.733962E-04
5.907336E+03	4.328422E-02	8.686908E-04
5.916988E+03	4.300961E-02	8.630187E-04
5.926641E+03	4.269785E-02	8.566400E-04
5.936293E+03	4.235147E-02	8.496056E-04
5.945946E+03	4.198181E-02	8.421432E-04
5.955598E+03	4.159767E-02	8.344293E-04
5.965251E+03	4.120778E-02	8.266383E-04
5.974903E+03	4.082057E-02	8.189391E-04
5.984556E+03	4.044120E-02	8.114348E-04
5.994208E+03	4.008201E-02	8.043730E-04
6.003861E+03	3.974373E-02	7.977680E-04
6.013514E+03	3.943643E-02	7.918218E-04
6.023166E+03	3.915855E-02	7.865037E-04
6.032819E+03	3.891503E-02	7.819131E-04
6.042471E+03	3.870699E-02	7.780733E-04
6.052124E+03	3.853447E-02	7.749861E-04
6.061776E+03	3.839652E-02	7.726332E-04
6.071429E+03	3.828901E-02	7.709330E-04
6.081081E+03	3.821462E-02	7.699409E-04
6.090734E+03	3.816572E-02	7.695036E-04
6.100386E+03	3.814434E-02	7.696621E-04
6.110039E+03	3.814241E-02	7.702535E-04
6.119691E+03	3.816162E-02	7.713120E-04
6.129344E+03	3.819353E-02	7.726670E-04
6.138996E+03	3.823714E-02	7.742982E-04
6.148649E+03	3.828879E-02	7.761309E-04
6.158301E+03	3.834486E-02	7.780916E-04
6.167954E+03	3.840178E-02	7.801069E-04
6.177606E+03	3.845628E-02	7.821098E-04
6.187259E+03	3.850308E-02	7.839916E-04
6.196911E+03	3.854513E-02	7.858108E-04
6.206564E+03	3.857869E-02	7.874899E-04
6.216216E+03	3.860106E-02	7.889721E-04
6.225869E+03	3.861824E-02	7.903785E-04
6.235521E+03	3.862723E-02	7.916460E-04
6.245174E+03	3.863364E-02	7.928881E-04
6.254826E+03	3.864397E-02	7.942372E-04
6.264479E+03	3.865762E-02	7.956802E-04
6.274131E+03	3.868199E-02	7.973690E-04
6.283784E+03	3.872184E-02	7.994022E-04
6.293436E+03	3.878423E-02	8.019258E-04
6.303089E+03	3.886778E-02	8.049127E-04
6.312741E+03	3.897784E-02	8.084752E-04
6.322394E+03	3.911594E-02	8.126469E-04
6.332046E+03	3.927955E-02	8.173768E-04
6.341699E+03	3.947226E-02	8.227420E-04
6.351351E+03	3.968807E-02	8.286194E-04
6.361004E+03	3.992159E-02	8.348980E-04
6.370656E+03	4.016547E-02	8.414249E-04
6.380309E+03	4.040770E-02	8.479485E-04
6.389961E+03	4.064250E-02	8.543465E-04
6.399614E+03	4.085452E-02	8.602942E-04
6.409266E+03	4.102707E-02	8.654362E-04
6.418919E+03	4.115103E-02	8.695747E-04
6.428571E+03	4.120620E-02	8.722757E-04
6.438224E+03	4.118389E-02	8.733465E-04
6.447876E+03	4.106571E-02	8.723868E-04
6.457529E+03	4.084624E-02	8.692696E-04
6.467181E+03	4.051179E-02	8.636902E-04
6.476834E+03	4.005989E-02	8.555824E-04
6.486486E+03	3.949155E-02	8.449526E-04
6.496139E+03	3.880332E-02	8.317132E-04
6.505792E+03	3.800327E-02	8.160226E-04
6.515444E+03	3.709999E-02	7.980516E-04
6.525097E+03	3.610716E-02	7.780827E-04
6.534749E+03	3.503327E-02	7.562878E-04
6.544402E+03	3.389565E-02	7.330316E-04
6.554054E+03	3.270992E-02	7.086447E-04
6.563707E+03	3.149185E-02	6.834637E-04
6.573359E+03	3.025685E-02	6.578189E-04
6.583012E+03	2.901934E-02	6.320226E-04
6.592664E+03	2.779255E-02	6.063630E-04
6.602317E+03	2.658824E-02	5.810980E-04
6.611969E+03	2.541651E-02	5.564516E-04
6.621622E+03	2.428574E-02	5.326111E-04
6.631274E+03	2.320266E-02	5.097291E-04
6.640927E+03	2.217238E-02	4.879240E-04
6.650579E+03	2.119857E-02	4.672825E-04
6.660232E+03	2.028220E-02	4.478324E-04
6.669884E+03	1.942724E-02	4.296685E-04
6.679537E+03	1.863246E-02	4.127708E-04
6.689189E+03	1.789723E-02	3.971318E-04
6.698842E+03	1.721908E-02	3.827037E-04
6.708494E+03	1.659856E-02	3.695049E-04
6.718147E+03	1.603221E-02	3.574653E-04
6.727799E+03	1.551652E-02	3.465119E-04
6.737452E+03	1.505098E-02	3.366394E-04
6.747104E+03	1.463084E-02	3.277465E-04
6.756757E+03	1.425544E-02	3.198238E-04
6.766409E+03	1.392025E-02	3.127741E-04
6.776062E+03	1.362474E-02	3.065895E-04
6.785714E+03	1.336471E-02	3.011800E-04
6.795367E+03	1.313899E-02	2.965225E-04
6.805019E+03	1.294652E-02	2.925966E-04
6.814672E+03	1.278377E-02	2.893257E-04
6.824324E+03	1.265007E-02	2.866978E-04
6.833977E+03	1.254409E-02	2.846851E-04
6.843629E+03	1.246465E-02	2.832639E-04
6.853282E+03	1.241166E-02	2.824338E-04
6.862934E+03	1.238258E-02	2.821401E-04
6.872587E+03	1.237763E-02	2.823896E-04
6.882239E+03	1.239631E-02	2.831727E-04
6.891892E+03	1.243822E-02	2.844824E-04
6.901544E+03	1.250223E-02	2.862944E-04
6.911197E+03	1.258985E-02	2.886453E-04
6.920849E+03	1.270013E-02	2.915146E-04
6.930502E+03	1.283300E-02	2.949028E-04
6.940154E+03	1.298756E-02	2.987905E-04
6.949807E+03	1.316563E-02	3.032207E-04
6.959459E+03	1.336633E-02	3.081748E-04
6.969112E+03	1.358870E-02	3.136322E-04
6.978764E+03	1.383455E-02	3.196353E-04
6.988417E+03	1.410181E-02	3.261377E-04
6.998069E+03	1.439115E-02	3.331559E-04
7.007722E+03	1.470214E-02	3.406811E-04
7.017375E+03	1.503527E-02	3.487251E-04
7.027027E+03	1.538770E-02	3.572232E-04
7.036680E+03	1.575950E-02	3.661775E-04
7.046332E+03	1.614952E-02	3.755617E-04
7.055985E+03	1.655638E-02	3.853439E-04
7.065637E+03	1.697728E-02	3.954595E-04
7.075290E+03	1.741276E-02	4.059208E-04
7.084942E+03	1.785964E-02	4.166538E-04
7.094595E+03	1.831575E-02	4.276076E-04
7.104247E+03	1.877745E-02	4.386966E-04
7.113900E+03	1.924355E-02	4.498927E-04
7.123552E+03	1.971295E-02	4.611696E-04
7.133205E+03	2.018042E-02	4.724038E-04
7.142857E+03	2.064480E-02	4.835675E-04
7.152510E+03	2.110362E-02	4.946017E-04
7.162162E+03	2.155447E-02	5.054489E-04
7.171815E+03	2.199496E-02	5.160520E-04
7.181467E+03	2.242279E-02	5.263556E-04
7.191120E+03	2.283570E-02	5.363059E-04
7.200772E+03	2.322995E-02	5.458132E-04
7.210425E+03	2.360682E-02	5.549068E-04
7.220077E+03	2.396129E-02	5.634673E-04
7.229730E+03	2.429534E-02	5.715399E-04
7.239382E+03	2.460453E-02	5.790193E-04
7.249035E+03	2.489002E-02	5.859314E-04
7.258687E+03	2.515171E-02	5.922731E-04
7.268340E+03	2.538996E-02	5.980517E-04
7.277992E+03	2.560369E-02	6.032411E-04
7.287645E+03	2.579753E-02	6.079499E-04
7.297297E+03	2.597100E-02	6.121657E-04
7.306950E+03	2.612345E-02	6.158729E-04
7.316602E+03	2.625810E-02	6.191471E-04
7.326255E+03	2.637802E-02	6.220602E-04
7.335907E+03	2.648041E-02	6.245457E-04
7.345560E+03	2.656790E-02	6.266661E-04
7.355212E+03	2.663911E-02	6.283880E-04
7.364865E+03	2.669804E-02	6.298060E-04
7.374517E+03	2.674275E-02	6.308743E-04
7.384170E+03	2.677100E-02	6.315401E-04
7.393822E+03	2.678627E-02	6.318855E-04
7.403475E+03	2.678423E-02	6.318085E-04
7.413127E+03	2.676646E-02	6.313465E-04
7.422780E+03	2.673279E-02	6.304961E-04
7.432432E+03	2.668338E-02	6.292609E-04
7.442085E+03	2.661691E-02	6.276102E-04
7.451737E+03	2.653841E-02	6.256635E-04
7.461390E+03	2.644567E-02	6.233686E-04
7.471042E+03	2.634286E-02	6.208245E-04
7.480695E+03	2.623447E-02	6.181375E-04
7.490347E+03	2.611772E-02	6.152423E-04
