#wls	flux	fluxerr
1.544402E+03	1.791406E-03	7.545443E-05
1.583012E+03	1.805374E-03	7.589614E-05
1.621622E+03	1.819455E-03	7.633720E-05
1.660232E+03	1.833672E-03	7.677846E-05
1.698842E+03	1.847696E-03	7.720599E-05
1.737452E+03	1.862001E-03	7.763950E-05
1.776062E+03	1.876039E-03	7.805605E-05
1.814672E+03	1.889517E-03	7.844336E-05
1.853282E+03	1.902434E-03	7.880142E-05
1.891892E+03	1.914240E-03	7.910760E-05
1.930502E+03	1.925067E-03	7.936750E-05
1.969112E+03	1.935849E-03	7.961975E-05
2.007722E+03	1.949078E-03	7.996646E-05
2.046332E+03	1.968035E-03	8.054109E-05
2.084942E+03	1.995603E-03	8.145942E-05
2.123552E+03	2.033261E-03	8.277863E-05
2.162162E+03	2.080831E-03	8.448810E-05
2.200772E+03	2.135458E-03	8.646864E-05
2.239382E+03	2.195315E-03	8.864367E-05
2.277992E+03	2.259029E-03	9.095582E-05
2.316602E+03	2.326062E-03	9.338167E-05
2.355212E+03	2.396477E-03	9.592214E-05
2.393822E+03	2.470685E-03	9.859198E-05
2.432432E+03	2.549293E-03	1.014134E-04
2.471042E+03	2.633407E-03	1.044281E-04
2.509653E+03	2.723405E-03	1.076485E-04
2.548263E+03	2.820106E-03	1.111039E-04
2.586873E+03	2.924816E-03	1.148423E-04
2.625483E+03	3.038059E-03	1.188804E-04
2.664093E+03	3.161310E-03	1.232716E-04
2.702703E+03	3.295715E-03	1.280555E-04
2.741313E+03	3.442538E-03	1.332755E-04
2.779923E+03	3.602663E-03	1.389596E-04
2.818533E+03	3.778639E-03	1.451989E-04
2.857143E+03	3.971137E-03	1.520113E-04
2.895753E+03	4.182574E-03	1.594804E-04
2.905405E+03	4.238654E-03	1.614591E-04
2.915058E+03	4.296560E-03	1.635025E-04
2.924710E+03	4.355162E-03	1.655675E-04
2.934363E+03	4.415677E-03	1.677001E-04
2.944015E+03	4.477593E-03	1.698806E-04
2.953668E+03	4.540982E-03	1.721117E-04
2.963320E+03	4.605871E-03	1.743941E-04
2.972973E+03	4.672288E-03	1.767287E-04
2.982625E+03	4.740898E-03	1.791405E-04
2.992278E+03	4.811113E-03	1.816069E-04
3.001931E+03	4.882966E-03	1.841290E-04
3.011583E+03	4.956495E-03	1.867081E-04
3.021236E+03	5.032400E-03	1.893701E-04
3.030888E+03	5.109397E-03	1.920667E-04
3.040541E+03	5.188865E-03	1.948493E-04
3.050193E+03	5.270183E-03	1.976944E-04
3.059846E+03	5.353388E-03	2.006031E-04
3.069498E+03	5.439237E-03	2.036035E-04
3.079151E+03	5.527083E-03	2.066710E-04
3.088803E+03	5.616253E-03	2.097804E-04
3.098456E+03	5.708234E-03	2.129867E-04
3.108108E+03	5.803106E-03	2.162928E-04
3.117761E+03	5.899441E-03	2.196449E-04
3.127413E+03	5.998794E-03	2.231007E-04
3.137066E+03	6.100476E-03	2.266344E-04
3.146718E+03	6.204538E-03	2.302473E-04
3.156371E+03	6.311046E-03	2.339417E-04
3.166023E+03	6.420860E-03	2.377490E-04
3.175676E+03	6.532441E-03	2.416119E-04
3.185328E+03	6.647476E-03	2.455925E-04
3.194981E+03	6.766061E-03	2.496938E-04
3.204633E+03	6.886592E-03	2.538562E-04
3.214286E+03	7.009963E-03	2.581125E-04
3.223938E+03	7.137122E-03	2.624969E-04
3.233591E+03	7.267284E-03	2.669803E-04
3.243243E+03	7.400515E-03	2.715646E-04
3.252896E+03	7.537809E-03	2.762859E-04
3.262548E+03	7.677411E-03	2.810792E-04
3.272201E+03	7.821246E-03	2.860147E-04
3.281853E+03	7.968471E-03	2.910610E-04
3.291506E+03	8.119157E-03	2.962203E-04
3.301158E+03	8.274375E-03	3.015311E-04
3.310811E+03	8.432229E-03	3.069237E-04
3.320463E+03	8.594799E-03	3.124734E-04
3.330116E+03	8.761166E-03	3.181462E-04
3.339768E+03	8.931411E-03	3.239445E-04
3.349421E+03	9.106681E-03	3.299093E-04
3.359073E+03	9.284927E-03	3.359657E-04
3.368726E+03	9.468391E-03	3.421944E-04
3.378378E+03	9.656074E-03	3.485585E-04
3.388031E+03	9.848055E-03	3.550604E-04
3.397683E+03	1.004441E-02	3.617021E-04
3.407336E+03	1.024639E-02	3.685283E-04
3.416988E+03	1.045294E-02	3.754997E-04
3.426641E+03	1.066412E-02	3.826184E-04
3.436293E+03	1.088000E-02	3.898862E-04
3.445946E+03	1.110066E-02	3.973050E-04
3.455598E+03	1.132745E-02	4.049223E-04
3.465251E+03	1.155789E-02	4.126489E-04
3.474903E+03	1.179461E-02	4.205786E-04
3.484556E+03	1.203641E-02	4.286669E-04
3.494208E+03	1.228335E-02	4.369153E-04
3.500411E+03	1.037050E-02	3.685794E-04
3.501555E+03	1.036106E-02	3.681892E-04
3.502699E+03	1.037756E-02	3.687205E-04
3.503843E+03	1.042560E-02	3.703726E-04
3.506130E+03	1.045925E-02	3.714573E-04
3.507274E+03	1.045824E-02	3.713663E-04
3.508418E+03	1.046977E-02	3.717204E-04
3.509562E+03	1.049405E-02	3.725270E-04
3.510706E+03	1.049435E-02	3.724820E-04
3.511849E+03	1.050545E-02	3.728205E-04
3.512993E+03	1.055048E-02	3.743629E-04
3.514137E+03	1.061519E-02	3.766029E-04
3.515281E+03	1.068445E-02	3.790033E-04
3.516425E+03	1.078310E-02	3.824459E-04
3.517569E+03	1.089495E-02	3.863551E-04
3.518712E+03	1.102237E-02	3.908153E-04
3.519856E+03	1.114332E-02	3.950446E-04
3.521000E+03	1.124200E-02	3.984835E-04
3.522144E+03	1.134393E-02	4.020365E-04
3.523288E+03	1.143095E-02	4.050600E-04
3.524431E+03	1.150717E-02	4.076997E-04
3.525576E+03	1.157431E-02	4.100171E-04
3.526720E+03	1.165096E-02	4.126709E-04
3.527864E+03	1.169411E-02	4.141373E-04
3.529008E+03	1.174224E-02	4.157792E-04
3.531295E+03	1.180347E-02	4.178220E-04
3.532439E+03	1.185765E-02	4.196773E-04
3.533583E+03	1.191379E-02	4.216010E-04
3.534727E+03	1.199913E-02	4.245573E-04
3.535871E+03	1.206393E-02	4.267859E-04
3.537014E+03	1.209997E-02	4.279966E-04
3.538158E+03	1.213320E-02	4.291075E-04
3.539302E+03	1.218049E-02	4.307153E-04
3.540446E+03	1.222368E-02	4.321775E-04
3.541590E+03	1.228071E-02	4.341286E-04
3.542734E+03	1.233233E-02	4.358881E-04
3.543877E+03	1.239500E-02	4.380370E-04
3.545021E+03	1.245312E-02	4.400249E-04
3.546165E+03	1.250130E-02	4.416608E-04
3.547309E+03	1.254148E-02	4.430136E-04
3.548453E+03	1.259313E-02	4.447709E-04
3.549597E+03	1.264067E-02	4.463827E-04
3.550740E+03	1.268583E-02	4.479101E-04
3.551884E+03	1.274203E-02	4.498266E-04
3.553028E+03	1.280992E-02	4.521551E-04
3.554172E+03	1.287241E-02	4.542922E-04
3.555316E+03	1.292213E-02	4.559781E-04
3.556459E+03	1.295455E-02	4.570530E-04
3.557603E+03	1.299260E-02	4.583261E-04
3.558747E+03	1.302718E-02	4.594766E-04
3.559891E+03	1.307995E-02	4.612681E-04
3.561036E+03	1.315847E-02	4.639671E-04
3.562180E+03	1.325865E-02	4.674284E-04
3.563322E+03	1.335579E-02	4.707822E-04
3.564467E+03	1.345836E-02	4.743258E-04
3.565611E+03	1.358452E-02	4.786998E-04
3.566755E+03	1.372802E-02	4.836830E-04
3.567899E+03	1.389316E-02	4.894273E-04
3.569042E+03	1.407044E-02	4.955974E-04
3.570186E+03	1.426374E-02	5.023300E-04
3.571330E+03	1.443282E-02	5.082073E-04
3.572474E+03	1.458935E-02	5.136412E-04
3.573618E+03	1.473442E-02	5.186698E-04
3.574762E+03	1.487430E-02	5.235144E-04
3.575905E+03	1.501420E-02	5.283578E-04
3.577049E+03	1.514999E-02	5.330553E-04
3.578193E+03	1.527626E-02	5.374165E-04
3.579337E+03	1.539128E-02	5.413806E-04
3.580481E+03	1.549981E-02	5.451154E-04
3.581625E+03	1.559666E-02	5.484381E-04
3.582768E+03	1.569698E-02	5.518818E-04
3.583912E+03	1.579320E-02	5.551801E-04
3.585056E+03	1.589570E-02	5.586983E-04
3.586200E+03	1.597547E-02	5.614165E-04
3.587344E+03	1.603900E-02	5.635634E-04
3.588487E+03	1.610687E-02	5.658619E-04
3.589631E+03	1.617432E-02	5.681447E-04
3.590775E+03	1.624090E-02	5.703965E-04
3.591919E+03	1.630943E-02	5.727162E-04
3.593063E+03	1.637603E-02	5.749669E-04
3.594207E+03	1.643201E-02	5.768444E-04
3.595350E+03	1.647847E-02	5.783871E-04
3.596494E+03	1.651302E-02	5.795112E-04
3.597638E+03	1.655407E-02	5.808630E-04
3.598782E+03	1.661267E-02	5.828302E-04
3.599926E+03	1.665828E-02	5.843410E-04
3.601070E+03	1.668634E-02	5.852359E-04
3.602214E+03	1.671051E-02	5.859938E-04
3.603358E+03	1.673424E-02	5.867364E-04
3.604502E+03	1.674975E-02	5.871901E-04
3.605646E+03	1.677912E-02	5.881299E-04
3.606790E+03	1.682367E-02	5.896009E-04
3.607933E+03	1.684200E-02	5.901529E-04
3.609077E+03	1.684972E-02	5.903328E-04
3.610221E+03	1.684551E-02	5.900951E-04
3.611365E+03	1.683091E-02	5.894931E-04
3.612509E+03	1.678293E-02	5.877225E-04
3.613653E+03	1.675185E-02	5.865441E-04
3.614796E+03	1.671666E-02	5.852220E-04
3.615940E+03	1.667647E-02	5.837256E-04
3.617084E+03	1.663542E-02	5.821993E-04
3.618228E+03	1.662212E-02	5.816443E-04
3.619372E+03	1.662138E-02	5.815292E-04
3.620515E+03	1.660916E-02	5.810123E-04
3.621659E+03	1.660084E-02	5.806320E-04
3.622803E+03	1.661312E-02	5.809720E-04
3.623947E+03	1.659938E-02	5.804022E-04
3.625091E+03	1.656071E-02	5.789611E-04
3.626235E+03	1.655521E-02	5.786797E-04
3.627378E+03	1.654690E-02	5.783000E-04
3.628522E+03	1.648329E-02	5.759882E-04
3.629666E+03	1.640450E-02	5.731467E-04
3.630810E+03	1.632744E-02	5.703665E-04
3.631954E+03	1.624539E-02	5.674127E-04
3.633097E+03	1.616334E-02	5.644597E-04
3.634241E+03	1.612032E-02	5.628704E-04
3.635385E+03	1.609985E-02	5.620689E-04
3.636530E+03	1.611646E-02	5.625621E-04
3.637674E+03	1.614154E-02	5.633504E-04
3.638817E+03	1.618788E-02	5.648804E-04
3.639960E+03	1.622294E-02	5.660164E-04
3.641105E+03	1.627015E-02	5.675759E-04
3.642249E+03	1.630804E-02	5.688097E-04
3.643393E+03	1.633010E-02	5.694910E-04
3.644537E+03	1.633893E-02	5.697107E-04
3.645681E+03	1.635774E-02	5.702783E-04
3.646824E+03	1.639673E-02	5.715491E-04
3.647968E+03	1.646609E-02	5.738782E-04
3.649112E+03	1.656258E-02	5.771517E-04
3.650256E+03	1.666147E-02	5.805077E-04
3.651400E+03	1.674583E-02	5.833565E-04
3.652543E+03	1.682825E-02	5.861366E-04
3.653687E+03	1.686293E-02	5.872535E-04
3.654831E+03	1.687656E-02	5.876372E-04
3.655975E+03	1.690127E-02	5.884062E-04
3.657119E+03	1.694681E-02	5.899002E-04
3.658263E+03	1.699778E-02	5.915826E-04
3.659406E+03	1.706808E-02	5.939369E-04
3.660550E+03	1.716638E-02	5.972648E-04
3.661694E+03	1.726317E-02	6.005390E-04
3.662838E+03	1.734260E-02	6.032085E-04
3.663982E+03	1.741835E-02	6.057490E-04
3.665125E+03	1.750605E-02	6.087042E-04
3.666269E+03	1.759484E-02	6.116963E-04
3.667413E+03	1.767843E-02	6.145066E-04
3.668557E+03	1.778047E-02	6.179577E-04
3.669701E+03	1.787689E-02	6.212118E-04
3.670845E+03	1.796137E-02	6.240503E-04
3.671988E+03	1.803304E-02	6.264430E-04
3.673132E+03	1.812731E-02	6.296196E-04
3.674276E+03	1.822072E-02	6.327653E-04
3.675420E+03	1.834475E-02	6.369733E-04
3.676565E+03	1.850115E-02	6.423038E-04
3.677708E+03	1.864845E-02	6.473163E-04
3.678852E+03	1.877881E-02	6.517398E-04
3.679996E+03	1.892157E-02	6.565919E-04
3.681140E+03	1.902959E-02	6.602372E-04
3.682284E+03	1.909048E-02	6.622465E-04
3.683428E+03	1.915508E-02	6.643835E-04
3.684571E+03	1.921512E-02	6.663618E-04
3.685715E+03	1.924779E-02	6.673907E-04
3.686859E+03	1.926288E-02	6.678092E-04
3.688003E+03	1.929730E-02	6.688980E-04
3.689147E+03	1.934041E-02	6.702876E-04
3.690291E+03	1.940613E-02	6.724599E-04
3.691434E+03	1.947772E-02	6.748349E-04
3.692578E+03	1.959407E-02	6.787600E-04
3.693722E+03	1.973151E-02	6.834141E-04
3.694866E+03	1.985593E-02	6.876156E-04
3.696010E+03	1.996037E-02	6.911240E-04
3.697153E+03	2.009915E-02	6.958202E-04
3.698297E+03	2.023924E-02	7.005605E-04
3.699441E+03	2.035588E-02	7.044873E-04
3.700585E+03	2.049014E-02	7.090225E-04
3.701729E+03	2.066570E-02	7.149853E-04
3.702873E+03	2.083758E-02	7.208190E-04
3.704016E+03	2.099948E-02	7.263054E-04
3.705160E+03	2.119922E-02	7.330986E-04
3.706304E+03	2.140441E-02	7.400781E-04
3.707448E+03	2.159506E-02	7.465527E-04
3.708592E+03	2.178116E-02	7.528679E-04
3.709736E+03	2.197553E-02	7.594671E-04
3.710879E+03	2.215035E-02	7.653885E-04
3.712024E+03	2.230779E-02	7.707072E-04
3.713167E+03	2.243699E-02	7.750493E-04
3.714311E+03	2.254880E-02	7.787891E-04
3.715455E+03	2.266496E-02	7.826777E-04
3.716599E+03	2.275505E-02	7.856650E-04
3.717743E+03	2.284732E-02	7.887265E-04
3.718887E+03	2.294612E-02	7.920124E-04
3.720031E+03	2.305147E-02	7.955236E-04
3.721175E+03	2.313940E-02	7.984324E-04
3.722319E+03	2.325783E-02	8.023922E-04
3.723462E+03	2.335233E-02	8.055254E-04
3.724606E+03	2.342507E-02	8.079071E-04
3.725750E+03	2.347390E-02	8.094635E-04
3.726894E+03	2.350098E-02	8.102697E-04
3.728038E+03	2.348891E-02	8.097256E-04
3.729181E+03	2.349425E-02	8.097819E-04
3.730325E+03	2.352570E-02	8.107380E-04
3.731469E+03	2.356586E-02	8.119935E-04
3.732613E+03	2.358860E-02	8.126487E-04
3.733757E+03	2.360048E-02	8.129295E-04
3.734901E+03	2.358624E-02	8.123108E-04
3.736044E+03	2.355678E-02	8.111680E-04
3.737188E+03	2.350990E-02	8.094257E-04
3.738332E+03	2.346519E-02	8.077585E-04
3.739476E+03	2.343573E-02	8.066166E-04
3.740620E+03	2.341062E-02	8.056251E-04
3.741764E+03	2.336156E-02	8.038096E-04
3.742907E+03	2.330378E-02	8.016946E-04
3.744051E+03	2.323513E-02	7.992062E-04
3.745195E+03	2.313601E-02	7.956707E-04
3.746339E+03	2.301509E-02	7.913870E-04
3.747483E+03	2.290287E-02	7.874035E-04
3.748626E+03	2.281024E-02	7.840944E-04
3.749770E+03	2.275028E-02	7.819094E-04
3.750915E+03	2.270773E-02	7.803229E-04
3.752059E+03	2.270436E-02	7.800836E-04
3.753203E+03	2.271187E-02	7.802178E-04
3.754347E+03	2.270853E-02	7.799793E-04
3.755490E+03	2.270081E-02	7.795902E-04
3.756634E+03	2.271268E-02	7.798743E-04
3.757778E+03	2.271588E-02	7.798602E-04
3.758922E+03	2.269946E-02	7.791725E-04
3.760066E+03	2.267650E-02	7.782607E-04
3.761209E+03	2.264266E-02	7.769759E-04
3.762353E+03	2.259792E-02	7.753175E-04
3.763497E+03	2.252921E-02	7.728373E-04
3.764641E+03	2.247574E-02	7.708804E-04
3.765785E+03	2.243099E-02	7.692234E-04
3.766929E+03	2.238190E-02	7.674178E-04
3.768072E+03	2.231754E-02	7.650893E-04
3.769216E+03	2.224881E-02	7.626117E-04
3.770360E+03	2.218008E-02	7.601348E-04
3.771504E+03	2.210483E-02	7.574351E-04
3.772648E+03	2.202955E-02	7.547354E-04
3.773792E+03	2.195863E-02	7.521859E-04
3.774935E+03	2.189207E-02	7.497865E-04
3.776079E+03	2.181241E-02	7.469391E-04
3.777223E+03	2.172950E-02	7.439813E-04
3.778367E+03	2.162825E-02	7.403968E-04
3.779511E+03	2.154120E-02	7.372990E-04
3.780654E+03	2.146784E-02	7.346710E-04
3.781798E+03	2.138599E-02	7.317530E-04
3.782942E+03	2.129824E-02	7.286344E-04
3.784086E+03	2.120373E-02	7.252854E-04
3.785230E+03	2.111205E-02	7.220340E-04
3.786374E+03	2.102298E-02	7.188728E-04
3.787517E+03	2.094742E-02	7.161747E-04
3.788661E+03	2.089169E-02	7.141555E-04
3.789805E+03	2.087173E-02	7.133591E-04
3.790949E+03	2.083127E-02	7.118624E-04
3.792094E+03	2.075700E-02	7.092110E-04
3.793237E+03	2.067837E-02	7.064113E-04
3.794381E+03	2.058271E-02	7.030312E-04
3.795525E+03	2.047266E-02	6.991602E-04
3.796669E+03	2.037110E-02	6.955806E-04
3.797813E+03	2.029048E-02	6.927168E-04
3.798957E+03	2.021290E-02	6.899579E-04
3.800100E+03	2.012158E-02	6.867306E-04
3.801244E+03	2.001846E-02	6.831021E-04
3.802388E+03	1.990531E-02	6.791320E-04
3.803532E+03	1.978363E-02	6.748725E-04
3.804676E+03	1.962834E-02	6.694678E-04
3.805819E+03	1.947936E-02	6.642802E-04
3.806963E+03	1.933671E-02	6.593096E-04
3.808107E+03	1.918967E-02	6.541914E-04
3.809251E+03	1.904393E-02	6.491189E-04
3.810395E+03	1.890298E-02	6.442113E-04
3.811539E+03	1.874696E-02	6.387917E-04
3.812682E+03	1.858743E-02	6.332542E-04
3.813826E+03	1.843291E-02	6.278891E-04
3.814970E+03	1.825917E-02	6.218709E-04
3.816114E+03	1.809938E-02	6.163299E-04
3.817258E+03	1.791840E-02	6.100691E-04
3.818402E+03	1.774767E-02	6.041591E-04
3.819545E+03	1.755793E-02	5.976039E-04
3.820689E+03	1.736031E-02	5.907828E-04
3.821833E+03	1.717249E-02	5.842974E-04
3.822977E+03	1.703685E-02	5.795891E-04
3.824121E+03	1.690994E-02	5.751790E-04
3.825264E+03	1.680485E-02	5.715126E-04
3.826409E+03	1.671614E-02	5.684041E-04
3.827553E+03	1.663506E-02	5.655562E-04
3.828697E+03	1.655943E-02	5.628945E-04
3.829841E+03	1.646939E-02	5.597436E-04
3.830985E+03	1.638195E-02	5.566824E-04
3.832128E+03	1.629626E-02	5.536813E-04
3.833272E+03	1.620598E-02	5.505251E-04
3.834416E+03	1.610366E-02	5.469614E-04
3.835560E+03	1.602035E-02	5.440440E-04
3.836704E+03	1.594250E-02	5.413129E-04
3.837847E+03	1.587622E-02	5.389756E-04
3.838991E+03	1.583200E-02	5.373879E-04
3.840135E+03	1.579609E-02	5.360824E-04
3.841279E+03	1.572673E-02	5.336427E-04
3.842423E+03	1.563289E-02	5.303730E-04
3.843567E+03	1.554998E-02	5.274749E-04
3.844710E+03	1.547492E-02	5.248442E-04
3.845854E+03	1.540248E-02	5.223030E-04
3.846998E+03	1.537485E-02	5.212820E-04
3.848142E+03	1.539247E-02	5.217952E-04
3.849286E+03	1.542627E-02	5.228567E-04
3.850430E+03	1.545505E-02	5.237475E-04
3.851573E+03	1.549302E-02	5.249493E-04
3.852717E+03	1.554826E-02	5.267361E-04
3.853861E+03	1.561620E-02	5.289521E-04
3.855005E+03	1.567540E-02	5.308715E-04
3.856149E+03	1.573394E-02	5.327682E-04
3.857292E+03	1.580934E-02	5.352347E-04
3.858436E+03	1.588015E-02	5.375451E-04
3.859580E+03	1.595338E-02	5.399366E-04
3.860724E+03	1.605068E-02	5.431418E-04
3.861868E+03	1.616570E-02	5.469458E-04
3.863012E+03	1.627899E-02	5.506897E-04
3.864155E+03	1.638771E-02	5.542775E-04
3.865299E+03	1.650015E-02	5.579904E-04
3.866443E+03	1.661370E-02	5.617394E-04
3.867588E+03	1.672529E-02	5.654210E-04
3.868732E+03	1.683187E-02	5.689318E-04
3.869875E+03	1.692598E-02	5.720203E-04
3.871019E+03	1.702514E-02	5.752783E-04
3.872163E+03	1.712190E-02	5.784542E-04
3.873307E+03	1.721452E-02	5.814889E-04
3.874451E+03	1.731131E-02	5.846636E-04
3.875595E+03	1.742058E-02	5.882589E-04
3.876738E+03	1.753337E-02	5.919717E-04
3.877882E+03	1.765274E-02	5.959054E-04
3.879026E+03	1.778395E-02	6.002373E-04
3.880170E+03	1.792678E-02	6.049598E-04
3.881314E+03	1.808714E-02	6.102725E-04
3.882458E+03	1.824774E-02	6.155913E-04
3.883601E+03	1.841580E-02	6.211602E-04
3.884745E+03	1.859067E-02	6.269568E-04
3.885889E+03	1.877936E-02	6.332175E-04
3.887033E+03	1.897859E-02	6.398311E-04
3.888177E+03	1.918243E-02	6.465985E-04
3.889320E+03	1.939857E-02	6.537778E-04
3.890464E+03	1.961144E-02	6.608450E-04
3.891608E+03	1.981361E-02	6.675489E-04
3.892752E+03	2.001098E-02	6.740892E-04
3.893896E+03	2.020465E-02	6.805026E-04
3.895040E+03	2.039856E-02	6.869221E-04
3.896183E+03	2.059644E-02	6.934730E-04
3.897327E+03	2.080464E-02	7.003692E-04
3.898471E+03	2.101791E-02	7.074336E-04
3.899615E+03	2.122857E-02	7.144081E-04
3.900759E+03	2.143619E-02	7.212779E-04
3.901903E+03	2.164317E-02	7.281238E-04
3.903047E+03	2.183528E-02	7.344673E-04
3.904191E+03	2.202412E-02	7.406988E-04
3.905335E+03	2.221826E-02	7.471062E-04
3.906479E+03	2.240802E-02	7.533647E-04
3.907623E+03	2.260879E-02	7.599908E-04
3.908766E+03	2.280955E-02	7.666147E-04
3.909910E+03	2.303228E-02	7.739745E-04
3.911054E+03	2.323968E-02	7.808169E-04
3.912198E+03	2.342957E-02	7.870687E-04
3.913342E+03	2.361509E-02	7.931716E-04
3.914486E+03	2.379625E-02	7.991265E-04
3.915629E+03	2.396209E-02	8.045645E-04
3.916773E+03	2.414768E-02	8.106641E-04
3.917917E+03	2.434865E-02	8.172776E-04
3.919061E+03	2.454745E-02	8.238164E-04
3.920205E+03	2.476603E-02	8.310163E-04
3.921348E+03	2.498462E-02	8.382146E-04
3.922492E+03	2.517912E-02	8.446022E-04
3.923636E+03	2.536267E-02	8.506206E-04
3.924780E+03	2.554843E-02	8.567108E-04
3.925924E+03	2.571226E-02	8.620642E-04
3.927068E+03	2.589150E-02	8.679321E-04
3.928211E+03	2.608831E-02	8.743867E-04
3.929355E+03	2.628513E-02	8.808398E-04
3.930499E+03	2.645785E-02	8.864832E-04
3.931643E+03	2.662619E-02	8.919781E-04
3.932787E+03	2.674406E-02	8.957807E-04
3.933931E+03	2.683564E-02	8.987013E-04
3.935074E+03	2.692720E-02	9.016204E-04
3.936218E+03	2.701440E-02	9.043925E-04
3.937362E+03	2.709940E-02	9.070902E-04
3.938506E+03	2.720638E-02	9.105225E-04
3.939650E+03	2.732435E-02	9.143212E-04
3.940793E+03	2.743575E-02	9.178990E-04
3.941937E+03	2.754718E-02	9.214767E-04
3.943082E+03	2.766300E-02	9.251998E-04
3.944226E+03	2.777004E-02	9.286281E-04
3.945370E+03	2.784856E-02	9.311016E-04
3.946514E+03	2.791392E-02	9.331345E-04
3.947657E+03	2.799027E-02	9.355339E-04
3.948801E+03	2.804904E-02	9.373451E-04
3.949945E+03	2.810563E-02	9.390829E-04
3.951089E+03	2.819299E-02	9.418476E-04
3.952233E+03	2.828696E-02	9.448324E-04
3.953376E+03	2.836116E-02	9.471562E-04
3.954520E+03	2.844198E-02	9.497000E-04
3.955664E+03	2.850962E-02	9.518028E-04
3.956808E+03	2.858164E-02	9.540513E-04
3.957952E+03	2.864929E-02	9.561532E-04
3.959096E+03	2.871258E-02	9.581086E-04
3.960239E+03	2.877145E-02	9.599162E-04
3.961383E+03	2.883476E-02	9.618708E-04
3.962527E+03	2.887826E-02	9.631645E-04
3.963671E+03	2.890420E-02	9.638718E-04
3.964815E+03	2.893454E-02	9.647257E-04
3.965958E+03	2.896707E-02	9.656524E-04
3.967102E+03	2.899523E-02	9.664330E-04
3.968246E+03	2.901460E-02	9.669202E-04
3.969390E+03	2.903836E-02	9.675540E-04
3.970534E+03	2.906873E-02	9.684071E-04
3.971678E+03	2.909690E-02	9.691871E-04
3.972821E+03	2.913167E-02	9.701865E-04
3.973965E+03	2.918626E-02	9.718454E-04
3.975109E+03	2.925406E-02	9.739435E-04
