#wls	flux	fluxerr
1.544402E+03	1.077637E-03	3.402077E-05
1.583012E+03	1.091129E-03	3.438927E-05
1.621622E+03	1.104922E-03	3.476453E-05
1.660232E+03	1.119243E-03	3.515346E-05
1.698842E+03	1.133706E-03	3.554385E-05
1.737452E+03	1.148825E-03	3.595165E-05
1.776062E+03	1.163871E-03	3.635395E-05
1.814672E+03	1.179076E-03	3.675782E-05
1.853282E+03	1.194248E-03	3.715727E-05
1.891892E+03	1.209041E-03	3.754143E-05
1.930502E+03	1.223534E-03	3.791276E-05
1.969112E+03	1.238537E-03	3.829625E-05
2.007722E+03	1.255243E-03	3.872854E-05
2.046332E+03	1.276032E-03	3.928246E-05
2.084942E+03	1.302860E-03	4.001714E-05
2.123552E+03	1.336825E-03	4.096481E-05
2.162162E+03	1.377749E-03	4.211836E-05
2.200772E+03	1.424324E-03	4.343612E-05
2.239382E+03	1.474972E-03	4.486865E-05
2.277992E+03	1.528830E-03	4.638855E-05
2.316602E+03	1.585842E-03	4.799316E-05
2.355212E+03	1.646110E-03	4.968448E-05
2.393822E+03	1.709687E-03	5.146304E-05
2.432432E+03	1.777318E-03	5.335009E-05
2.471042E+03	1.849248E-03	5.535160E-05
2.509653E+03	1.926370E-03	5.749277E-05
2.548263E+03	2.008997E-03	5.978123E-05
2.586873E+03	2.098133E-03	6.224487E-05
2.625483E+03	2.194162E-03	6.489286E-05
2.664093E+03	2.298219E-03	6.775637E-05
2.702703E+03	2.410786E-03	7.084677E-05
2.741313E+03	2.533176E-03	7.419964E-05
2.779923E+03	2.666433E-03	7.784207E-05
2.818533E+03	2.811250E-03	8.179040E-05
2.857143E+03	2.969293E-03	8.608889E-05
2.895753E+03	3.141443E-03	9.075832E-05
2.905405E+03	3.186850E-03	9.198780E-05
2.915058E+03	3.233252E-03	9.324336E-05
2.924710E+03	3.280671E-03	9.452547E-05
2.934363E+03	3.329142E-03	9.583512E-05
2.944015E+03	3.379257E-03	9.718920E-05
2.953668E+03	3.429994E-03	9.855822E-05
2.963320E+03	3.481908E-03	9.995802E-05
2.972973E+03	3.535582E-03	1.014052E-04
2.982625E+03	3.589917E-03	1.028683E-04
2.992278E+03	3.645497E-03	1.043637E-04
3.001931E+03	3.702928E-03	1.059088E-04
3.011583E+03	3.761067E-03	1.074707E-04
3.021236E+03	3.821128E-03	1.090840E-04
3.030888E+03	3.881932E-03	1.107149E-04
3.040541E+03	3.944729E-03	1.123990E-04
3.050193E+03	4.008941E-03	1.141196E-04
3.059846E+03	4.073953E-03	1.158591E-04
3.069498E+03	4.141074E-03	1.176547E-04
3.079151E+03	4.209702E-03	1.194890E-04
3.088803E+03	4.279191E-03	1.213436E-04
3.098456E+03	4.350913E-03	1.232572E-04
3.108108E+03	4.424239E-03	1.252119E-04
3.117761E+03	4.499203E-03	1.272085E-04
3.127413E+03	4.575118E-03	1.292274E-04
3.137066E+03	4.653447E-03	1.313099E-04
3.146718E+03	4.733519E-03	1.334367E-04
3.156371E+03	4.815370E-03	1.356087E-04
3.166023E+03	4.899035E-03	1.378268E-04
3.175676E+03	4.984548E-03	1.400917E-04
3.185328E+03	5.071955E-03	1.424046E-04
3.194981E+03	5.161285E-03	1.447660E-04
3.204633E+03	5.252583E-03	1.471772E-04
3.214286E+03	5.345881E-03	1.496387E-04
3.223938E+03	5.441216E-03	1.521514E-04
3.233591E+03	5.538633E-03	1.547165E-04
3.243243E+03	5.638159E-03	1.573344E-04
3.252896E+03	5.740730E-03	1.600310E-04
3.262548E+03	5.844611E-03	1.627578E-04
3.272201E+03	5.950715E-03	1.655401E-04
3.281853E+03	6.059079E-03	1.683785E-04
3.291506E+03	6.170684E-03	1.713003E-04
3.301158E+03	6.283674E-03	1.742535E-04
3.310811E+03	6.399023E-03	1.772651E-04
3.320463E+03	6.516752E-03	1.803353E-04
3.330116E+03	6.637910E-03	1.834931E-04
3.339768E+03	6.760500E-03	1.866828E-04
3.349421E+03	6.886604E-03	1.899619E-04
3.359073E+03	7.014145E-03	1.932727E-04
3.368726E+03	7.144174E-03	1.966440E-04
3.378378E+03	7.277820E-03	2.001067E-04
3.388031E+03	7.412885E-03	2.036000E-04
3.397683E+03	7.551615E-03	2.071854E-04
3.407336E+03	7.691726E-03	2.108000E-04
3.416988E+03	7.835538E-03	2.145071E-04
3.426641E+03	7.981884E-03	2.182746E-04
3.436293E+03	8.129521E-03	2.220682E-04
3.445946E+03	8.280864E-03	2.259537E-04
3.455598E+03	8.433404E-03	2.298623E-04
3.465251E+03	8.589626E-03	2.338616E-04
3.474903E+03	8.748240E-03	2.379162E-04
3.484556E+03	8.907852E-03	2.419880E-04
3.494208E+03	9.071062E-03	2.461475E-04
3.503861E+03	9.235106E-03	2.503193E-04
3.513514E+03	9.402659E-03	2.545758E-04
3.523166E+03	9.572283E-03	2.588779E-04
3.532819E+03	9.743892E-03	2.632230E-04
3.542471E+03	9.915910E-03	2.675685E-04
3.552124E+03	1.009119E-02	2.719910E-04
3.561776E+03	1.026816E-02	2.764483E-04
3.571429E+03	1.044673E-02	2.809373E-04
3.581081E+03	1.062520E-02	2.854127E-04
3.590734E+03	1.080660E-02	2.899555E-04
3.600386E+03	1.098927E-02	2.945210E-04
3.610039E+03	1.117309E-02	2.991060E-04
3.619691E+03	1.135795E-02	3.037076E-04
3.629344E+03	1.154205E-02	3.082771E-04
3.638996E+03	1.172866E-02	3.129023E-04
3.648649E+03	1.191600E-02	3.175355E-04
3.658301E+03	1.210399E-02	3.221743E-04
3.667954E+03	1.229253E-02	3.268163E-04
3.677606E+03	1.247970E-02	3.314105E-04
3.687259E+03	1.266910E-02	3.360520E-04
3.696911E+03	1.285883E-02	3.406909E-04
3.706564E+03	1.304885E-02	3.453258E-04
3.716216E+03	1.323909E-02	3.499553E-04
3.725869E+03	1.342954E-02	3.545784E-04
3.735521E+03	1.362014E-02	3.591942E-04
3.745174E+03	1.380885E-02	3.637487E-04
3.754826E+03	1.399966E-02	3.683471E-04
3.764479E+03	1.419054E-02	3.729361E-04
3.774131E+03	1.438148E-02	3.775151E-04
3.783784E+03	1.457245E-02	3.820837E-04
3.793436E+03	1.476341E-02	3.866409E-04
3.803089E+03	1.495434E-02	3.911861E-04
3.812741E+03	1.514300E-02	3.956607E-04
3.822394E+03	1.533369E-02	4.001777E-04
3.832046E+03	1.552419E-02	4.046786E-04
3.841699E+03	1.571443E-02	4.091616E-04
3.851351E+03	1.590430E-02	4.136244E-04
3.861004E+03	1.609370E-02	4.180643E-04
3.870656E+03	1.628017E-02	4.224176E-04
3.880309E+03	1.646824E-02	4.268019E-04
3.889961E+03	1.665544E-02	4.311533E-04
3.899614E+03	1.684161E-02	4.354677E-04
3.909266E+03	1.702656E-02	4.397406E-04
3.918919E+03	1.720764E-02	4.439040E-04
3.928571E+03	1.738958E-02	4.480796E-04
3.938224E+03	1.756972E-02	4.521996E-04
3.947876E+03	1.774786E-02	4.562587E-04
3.957529E+03	1.792125E-02	4.601867E-04
3.967181E+03	1.809477E-02	4.641094E-04
3.976834E+03	1.826570E-02	4.679570E-04
3.986486E+03	1.843123E-02	4.716580E-04
3.996139E+03	1.859640E-02	4.753421E-04
4.005792E+03	1.875846E-02	4.789388E-04
4.015444E+03	1.891459E-02	4.823767E-04
4.025097E+03	1.906999E-02	4.857890E-04
4.034749E+03	1.922189E-02	4.891055E-04
4.044402E+03	1.936748E-02	4.922549E-04
4.054054E+03	1.951213E-02	4.953744E-04
4.063707E+03	1.965030E-02	4.983237E-04
4.073359E+03	1.978748E-02	5.012426E-04
4.083012E+03	1.991810E-02	5.039902E-04
4.092664E+03	2.004775E-02	5.067086E-04
4.102317E+03	2.017083E-02	5.092565E-04
4.111969E+03	2.029301E-02	5.117777E-04
4.121622E+03	2.040865E-02	5.141307E-04
4.131274E+03	2.052353E-02	5.164608E-04
4.140927E+03	2.063198E-02	5.186263E-04
4.150579E+03	2.073694E-02	5.207014E-04
4.160232E+03	2.084141E-02	5.227621E-04
4.169884E+03	2.093970E-02	5.246658E-04
4.179537E+03	2.103484E-02	5.264889E-04
4.189189E+03	2.112697E-02	5.282353E-04
4.198842E+03	2.121921E-02	5.299833E-04
4.208494E+03	2.130586E-02	5.315911E-04
4.218147E+03	2.139008E-02	5.331379E-04
4.227799E+03	2.147213E-02	5.346302E-04
4.237452E+03	2.155228E-02	5.360757E-04
4.247104E+03	2.163088E-02	5.374826E-04
4.256757E+03	2.170827E-02	5.388603E-04
4.266409E+03	2.178488E-02	5.402192E-04
4.276062E+03	2.186115E-02	5.415708E-04
4.285714E+03	2.193759E-02	5.429276E-04
4.295367E+03	2.201473E-02	5.443032E-04
4.305019E+03	2.209317E-02	5.457121E-04
4.314672E+03	2.217353E-02	5.471699E-04
4.324324E+03	2.225646E-02	5.486928E-04
4.333977E+03	2.234265E-02	5.502975E-04
4.343629E+03	2.242974E-02	5.519261E-04
4.353282E+03	2.252457E-02	5.537467E-04
4.362934E+03	2.262479E-02	5.557014E-04
4.372587E+03	2.273109E-02	5.578070E-04
4.382239E+03	2.284104E-02	5.600036E-04
4.391892E+03	2.296149E-02	5.624589E-04
4.401544E+03	2.308675E-02	5.650334E-04
4.411197E+03	2.322361E-02	5.678928E-04
4.420849E+03	2.336617E-02	5.708927E-04
4.430502E+03	2.352106E-02	5.741949E-04
4.440154E+03	2.368212E-02	5.776483E-04
4.449807E+03	2.385257E-02	5.813315E-04
4.459459E+03	2.403556E-02	5.853213E-04
4.469112E+03	2.422438E-02	5.894531E-04
4.478764E+03	2.442182E-02	5.937956E-04
4.488417E+03	2.462730E-02	5.983344E-04
4.498069E+03	2.484342E-02	6.031321E-04
4.507722E+03	2.506255E-02	6.080037E-04
4.517375E+03	2.528692E-02	6.130032E-04
4.527027E+03	2.551524E-02	6.181000E-04
4.536680E+03	2.574610E-02	6.232597E-04
4.546332E+03	2.597795E-02	6.284450E-04
4.555985E+03	2.620911E-02	6.336162E-04
4.565637E+03	2.643785E-02	6.387313E-04
4.575290E+03	2.665878E-02	6.436610E-04
4.584942E+03	2.687720E-02	6.485341E-04
4.594595E+03	2.708777E-02	6.532220E-04
4.604247E+03	2.728873E-02	6.576832E-04
4.613900E+03	2.747476E-02	6.617906E-04
4.623552E+03	2.765169E-02	6.656853E-04
4.633205E+03	2.781085E-02	6.691595E-04
4.642857E+03	2.795859E-02	6.723669E-04
4.652510E+03	2.808667E-02	6.751102E-04
4.662162E+03	2.820207E-02	6.775584E-04
4.671815E+03	2.829707E-02	6.795264E-04
4.681467E+03	2.837542E-02	6.811055E-04
4.691120E+03	2.844117E-02	6.823937E-04
4.700772E+03	2.848728E-02	6.832227E-04
4.710425E+03	2.851822E-02	6.837005E-04
4.720077E+03	2.853477E-02	6.838461E-04
4.729730E+03	2.853799E-02	6.836856E-04
4.739382E+03	2.852889E-02	6.832438E-04
4.749035E+03	2.850862E-02	6.825486E-04
4.758687E+03	2.847839E-02	6.816287E-04
4.768340E+03	2.843937E-02	6.805123E-04
4.777992E+03	2.839272E-02	6.792274E-04
4.787645E+03	2.833959E-02	6.778007E-04
4.797297E+03	2.827734E-02	6.761697E-04
4.806950E+03	2.821446E-02	6.745367E-04
4.816602E+03	2.814810E-02	6.728339E-04
4.826255E+03	2.807548E-02	6.709940E-04
4.835907E+03	2.800469E-02	6.692109E-04
4.845560E+03	2.792904E-02	6.673238E-04
4.855212E+03	2.785644E-02	6.655217E-04
4.864865E+03	2.778002E-02	6.636404E-04
4.874517E+03	2.770748E-02	6.618635E-04
4.884170E+03	2.763186E-02	6.600244E-04
4.893822E+03	2.755708E-02	6.582165E-04
4.903475E+03	2.748335E-02	6.564446E-04
4.913127E+03	2.741445E-02	6.547990E-04
4.922780E+03	2.734338E-02	6.531117E-04
4.932432E+03	2.727390E-02	6.514729E-04
4.942085E+03	2.720621E-02	6.498867E-04
4.951737E+03	2.714052E-02	6.483582E-04
4.961390E+03	2.707709E-02	6.468932E-04
4.971042E+03	2.701268E-02	6.454142E-04
4.980695E+03	2.695471E-02	6.440979E-04
4.990347E+03	2.690001E-02	6.428692E-04
5.000000E+03	2.684904E-02	6.417383E-04
5.009653E+03	2.679880E-02	6.406334E-04
5.019305E+03	2.675681E-02	6.397342E-04
5.028958E+03	2.671666E-02	6.388873E-04
5.038610E+03	2.668591E-02	6.382733E-04
5.048263E+03	2.665820E-02	6.377402E-04
5.057915E+03	2.664109E-02	6.374688E-04
5.067568E+03	2.662825E-02	6.373072E-04
5.077220E+03	2.662716E-02	6.374347E-04
5.086873E+03	2.663144E-02	6.376987E-04
5.096525E+03	2.664503E-02	6.381932E-04
5.106178E+03	2.666834E-02	6.389284E-04
5.115830E+03	2.670171E-02	6.399124E-04
5.125483E+03	2.674540E-02	6.411514E-04
5.135135E+03	2.679955E-02	6.426493E-04
5.144788E+03	2.686423E-02	6.444074E-04
5.154440E+03	2.693938E-02	6.464246E-04
5.164093E+03	2.702481E-02	6.486969E-04
5.173745E+03	2.712025E-02	6.512175E-04
5.183398E+03	2.722528E-02	6.539766E-04
5.193050E+03	2.733582E-02	6.568767E-04
5.202703E+03	2.745829E-02	6.600718E-04
5.212355E+03	2.758838E-02	6.634587E-04
5.222008E+03	2.772161E-02	6.669300E-04
5.231660E+03	2.786414E-02	6.706337E-04
5.241313E+03	2.800768E-02	6.743705E-04
5.250965E+03	2.815822E-02	6.782850E-04
5.260618E+03	2.830724E-02	6.821716E-04
5.270270E+03	2.846066E-02	6.861734E-04
5.279923E+03	2.860971E-02	6.900786E-04
5.289575E+03	2.875652E-02	6.939388E-04
5.299228E+03	2.889964E-02	6.977184E-04
5.308880E+03	2.904117E-02	7.014683E-04
5.318533E+03	2.917211E-02	7.049709E-04
5.328185E+03	2.929465E-02	7.082788E-04
5.337838E+03	2.940723E-02	7.113537E-04
5.347490E+03	2.950840E-02	7.141603E-04
5.357143E+03	2.959671E-02	7.166628E-04
5.366795E+03	2.967087E-02	7.188294E-04
5.376448E+03	2.972578E-02	7.205361E-04
5.386100E+03	2.976800E-02	7.219412E-04
5.395753E+03	2.979279E-02	7.229286E-04
5.405405E+03	2.979929E-02	7.234774E-04
5.415058E+03	2.978307E-02	7.234787E-04
5.424710E+03	2.975142E-02	7.231086E-04
5.434363E+03	2.970023E-02	7.222668E-04
5.444015E+03	2.962572E-02	7.208600E-04
5.453668E+03	2.953576E-02	7.190788E-04
5.463320E+03	2.942312E-02	7.167466E-04
5.472973E+03	2.929237E-02	7.139735E-04
5.482625E+03	2.914812E-02	7.108710E-04
5.492278E+03	2.898394E-02	7.072815E-04
5.501931E+03	2.880492E-02	7.033283E-04
5.511583E+03	2.861618E-02	6.991357E-04
5.521236E+03	2.841199E-02	6.945630E-04
5.530888E+03	2.819778E-02	6.897422E-04
5.540541E+03	2.797539E-02	6.847179E-04
5.550193E+03	2.774676E-02	6.795369E-04
5.559846E+03	2.751384E-02	6.742467E-04
5.569498E+03	2.727860E-02	6.688952E-04
5.579151E+03	2.704299E-02	6.635301E-04
5.588803E+03	2.680890E-02	6.581976E-04
5.598456E+03	2.657815E-02	6.529424E-04
5.608108E+03	2.635247E-02	6.478068E-04
5.617761E+03	2.613345E-02	6.428303E-04
5.627413E+03	2.592254E-02	6.380484E-04
5.637066E+03	2.571773E-02	6.334125E-04
5.646718E+03	2.552676E-02	6.291130E-04
5.656371E+03	2.534724E-02	6.250918E-04
5.666023E+03	2.517670E-02	6.212886E-04
5.675676E+03	2.502218E-02	6.178769E-04
5.685328E+03	2.487761E-02	6.147079E-04
5.694981E+03	2.474956E-02	6.119444E-04
5.704633E+03	2.463167E-02	6.094297E-04
5.714286E+03	2.453009E-02	6.073166E-04
5.723938E+03	2.443818E-02	6.054410E-04
5.733591E+03	2.436169E-02	6.039464E-04
5.743243E+03	2.429375E-02	6.026626E-04
5.752896E+03	2.423671E-02	6.016485E-04
5.762548E+03	2.419277E-02	6.009592E-04
5.772201E+03	2.415476E-02	6.004171E-04
5.781853E+03	2.412471E-02	6.000732E-04
5.791506E+03	2.410152E-02	5.999000E-04
5.801158E+03	2.408402E-02	5.998690E-04
5.810811E+03	2.407103E-02	5.999510E-04
5.820463E+03	2.406446E-02	6.001935E-04
5.830116E+03	2.405696E-02	6.004139E-04
5.839768E+03	2.405050E-02	6.006608E-04
5.849421E+03	2.404396E-02	6.009068E-04
5.859073E+03	2.403633E-02	6.011261E-04
5.868726E+03	2.402358E-02	6.012178E-04
5.878378E+03	2.401096E-02	6.013134E-04
5.888031E+03	2.399461E-02	6.013160E-04
5.897683E+03	2.397382E-02	6.012076E-04
5.907336E+03	2.394798E-02	6.009725E-04
5.916988E+03	2.391657E-02	6.005973E-04
5.926641E+03	2.387608E-02	5.999939E-04
5.936293E+03	2.383229E-02	5.993065E-04
5.945946E+03	2.378185E-02	5.984511E-04
5.955598E+03	2.372153E-02	5.973456E-04
5.965251E+03	2.365727E-02	5.961395E-04
5.974903E+03	2.358296E-02	5.946782E-04
5.984556E+03	2.350466E-02	5.931140E-04
5.994208E+03	2.341945E-02	5.913732E-04
6.003861E+03	2.332455E-02	5.893847E-04
6.013514E+03	2.322623E-02	5.873072E-04
6.023166E+03	2.311895E-02	5.849996E-04
6.032819E+03	2.300613E-02	5.825484E-04
6.042471E+03	2.289120E-02	5.800401E-04
6.052124E+03	2.276878E-02	5.773380E-04
6.061776E+03	2.264230E-02	5.745287E-04
6.071429E+03	2.251510E-02	5.716968E-04
6.081081E+03	2.238180E-02	5.687058E-04
6.090734E+03	2.224570E-02	5.656389E-04
6.100386E+03	2.210995E-02	5.625762E-04
6.110039E+03	2.196917E-02	5.593808E-04
6.119691E+03	2.182646E-02	5.561312E-04
6.129344E+03	2.168202E-02	5.528326E-04
6.138996E+03	2.153604E-02	5.494894E-04
6.148649E+03	2.138865E-02	5.461050E-04
6.158301E+03	2.123993E-02	5.426815E-04
6.167954E+03	2.109267E-02	5.392898E-04
6.177606E+03	2.094146E-02	5.357918E-04
6.187259E+03	2.078902E-02	5.322567E-04
6.196911E+03	2.063528E-02	5.286830E-04
6.206564E+03	2.048016E-02	5.250681E-04
6.216216E+03	2.032090E-02	5.213413E-04
6.225869E+03	2.016252E-02	5.176315E-04
6.235521E+03	2.000215E-02	5.138646E-04
6.245174E+03	1.983946E-02	5.100322E-04
6.254826E+03	1.967409E-02	5.061248E-04
6.264479E+03	1.950561E-02	5.021316E-04
6.274131E+03	1.933359E-02	4.980406E-04
6.283784E+03	1.915505E-02	4.937756E-04
6.293436E+03	1.897443E-02	4.894501E-04
6.303089E+03	1.878868E-02	4.849857E-04
6.312741E+03	1.859724E-02	4.803673E-04
6.322394E+03	1.839714E-02	4.755183E-04
6.332046E+03	1.819256E-02	4.705461E-04
6.341699E+03	1.798053E-02	4.653736E-04
6.351351E+03	1.775822E-02	4.599270E-04
6.361004E+03	1.752970E-02	4.543116E-04
6.370656E+03	1.729221E-02	4.484552E-04
6.380309E+03	1.704316E-02	4.422903E-04
6.389961E+03	1.678667E-02	4.359232E-04
6.399614E+03	1.651820E-02	4.292354E-04
6.409266E+03	1.624193E-02	4.223355E-04
6.418919E+03	1.595372E-02	4.151149E-04
6.428571E+03	1.565789E-02	4.076857E-04
6.438224E+03	1.535072E-02	3.999504E-04
6.447876E+03	1.503667E-02	3.920253E-04
6.457529E+03	1.471249E-02	3.838245E-04
6.467181E+03	1.438093E-02	3.754196E-04
6.476834E+03	1.404472E-02	3.668818E-04
6.486486E+03	1.370124E-02	3.581422E-04
6.496139E+03	1.335351E-02	3.492793E-04
6.505792E+03	1.300443E-02	3.403693E-04
6.515444E+03	1.265193E-02	3.313573E-04
6.525097E+03	1.229908E-02	3.223240E-04
6.534749E+03	1.194880E-02	3.133459E-04
6.544402E+03	1.159934E-02	3.043772E-04
6.554054E+03	1.125363E-02	2.954951E-04
6.563707E+03	1.091299E-02	2.867342E-04
6.573359E+03	1.057866E-02	2.781274E-04
6.583012E+03	1.025179E-02	2.697058E-04
6.592664E+03	9.934760E-03	2.615318E-04
6.602317E+03	9.625913E-03	2.535625E-04
6.611969E+03	9.327441E-03	2.458562E-04
6.621622E+03	9.040093E-03	2.384332E-04
6.631274E+03	8.764498E-03	2.313106E-04
6.640927E+03	8.501188E-03	2.245030E-04
6.650579E+03	8.250574E-03	2.180221E-04
6.660232E+03	8.012976E-03	2.118768E-04
6.669884E+03	7.788614E-03	2.060738E-04
6.679537E+03	7.577632E-03	2.006173E-04
6.689189E+03	7.380091E-03	1.955099E-04
6.698842E+03	7.195991E-03	1.907521E-04
6.708494E+03	7.025270E-03	1.863429E-04
6.718147E+03	6.867828E-03	1.822805E-04
6.727799E+03	6.723523E-03	1.785617E-04
6.737452E+03	6.591329E-03	1.751599E-04
6.747104E+03	6.472778E-03	1.721164E-04
6.756757E+03	6.366794E-03	1.694033E-04
6.766409E+03	6.273164E-03	1.670156E-04
6.776062E+03	6.191670E-03	1.649481E-04
6.785714E+03	6.121304E-03	1.631744E-04
6.795367E+03	6.063458E-03	1.617324E-04
6.805019E+03	6.017127E-03	1.605958E-04
6.814672E+03	5.982126E-03	1.597603E-04
6.824324E+03	5.957503E-03	1.592008E-04
6.833977E+03	5.944652E-03	1.589554E-04
6.843629E+03	5.942646E-03	1.589997E-04
6.853282E+03	5.950579E-03	1.593100E-04
6.862934E+03	5.969880E-03	1.599252E-04
6.872587E+03	5.999662E-03	1.608220E-04
6.882239E+03	6.039042E-03	1.619772E-04
6.891892E+03	6.089499E-03	1.634310E-04
6.901544E+03	6.149358E-03	1.651391E-04
6.911197E+03	6.220128E-03	1.671424E-04
6.920849E+03	6.300109E-03	1.693957E-04
6.930502E+03	6.390835E-03	1.719409E-04
6.940154E+03	6.490544E-03	1.747310E-04
6.949807E+03	6.600796E-03	1.778085E-04
6.959459E+03	6.719745E-03	1.811242E-04
6.969112E+03	6.848071E-03	1.846968E-04
6.978764E+03	6.986493E-03	1.885463E-04
6.988417E+03	7.132976E-03	1.926183E-04
6.998069E+03	7.288151E-03	1.969302E-04
7.007722E+03	7.452692E-03	2.015006E-04
7.017375E+03	7.624320E-03	2.062685E-04
7.027027E+03	7.803587E-03	2.112491E-04
7.036680E+03	7.991091E-03	2.164591E-04
7.046332E+03	8.184267E-03	2.218293E-04
7.055985E+03	8.383573E-03	2.273726E-04
7.065637E+03	8.588403E-03	2.330728E-04
7.075290E+03	8.798089E-03	2.389121E-04
7.084942E+03	9.013098E-03	2.449034E-04
7.094595E+03	9.230328E-03	2.509628E-04
7.104247E+03	9.450118E-03	2.570996E-04
7.113900E+03	9.671614E-03	2.632908E-04
7.123552E+03	9.893926E-03	2.695121E-04
7.133205E+03	1.011614E-02	2.757388E-04
7.142857E+03	1.033730E-02	2.819451E-04
7.152510E+03	1.055647E-02	2.881050E-04
7.162162E+03	1.077267E-02	2.941921E-04
7.171815E+03	1.098496E-02	3.001803E-04
7.181467E+03	1.119239E-02	3.060436E-04
7.191120E+03	1.139404E-02	3.117567E-04
7.200772E+03	1.158902E-02	3.172948E-04
7.210425E+03	1.177649E-02	3.226347E-04
7.220077E+03	1.195565E-02	3.277540E-04
7.229730E+03	1.212575E-02	3.326322E-04
7.239382E+03	1.228451E-02	3.372058E-04
7.249035E+03	1.243454E-02	3.415462E-04
7.258687E+03	1.257373E-02	3.455947E-04
7.268340E+03	1.270162E-02	3.493384E-04
7.277992E+03	1.281616E-02	3.527202E-04
7.287645E+03	1.292044E-02	3.558247E-04
7.297297E+03	1.301259E-02	3.585997E-04
7.306950E+03	1.309250E-02	3.610416E-04
7.316602E+03	1.315839E-02	3.631004E-04
7.326255E+03	1.321378E-02	3.648731E-04
7.335907E+03	1.325531E-02	3.662657E-04
7.345560E+03	1.328667E-02	3.673799E-04
7.355212E+03	1.330637E-02	3.681736E-04
7.364865E+03	1.331296E-02	3.686058E-04
7.374517E+03	1.331032E-02	3.687838E-04
7.384170E+03	1.329533E-02	3.686202E-04
7.393822E+03	1.327197E-02	3.682249E-04
7.403475E+03	1.323718E-02	3.675120E-04
7.413127E+03	1.319321E-02	3.665438E-04
7.422780E+03	1.314231E-02	3.653822E-04
7.432432E+03	1.308148E-02	3.639430E-04
7.442085E+03	1.301472E-02	3.623372E-04
7.451737E+03	1.293902E-02	3.604807E-04
7.461390E+03	1.285661E-02	3.584348E-04
7.471042E+03	1.276794E-02	3.562118E-04
7.480695E+03	1.267513E-02	3.538706E-04
7.490347E+03	1.257518E-02	3.513267E-04
