#wls	flux	fluxerr
1.600000E+03	3.239700E-18	1.475536E-18
1.640000E+03	3.355920E-18	1.524025E-18
1.680000E+03	3.481104E-18	1.576135E-18
1.720000E+03	3.615717E-18	1.632024E-18
1.760000E+03	3.760564E-18	1.691994E-18
1.800000E+03	3.916798E-18	1.756499E-18
1.840000E+03	4.084276E-18	1.825400E-18
1.880000E+03	4.264514E-18	1.899298E-18
1.920000E+03	4.458064E-18	1.978351E-18
1.960000E+03	4.665494E-18	2.062715E-18
2.000000E+03	4.887050E-18	2.152399E-18
2.040000E+03	5.123331E-18	2.247557E-18
2.080000E+03	5.374271E-18	2.348048E-18
2.120000E+03	5.639128E-18	2.453426E-18
2.160000E+03	5.918181E-18	2.563691E-18
2.200000E+03	6.210338E-18	2.678245E-18
2.240000E+03	6.514837E-18	2.796631E-18
2.280000E+03	6.831605E-18	2.918689E-18
2.320000E+03	7.161274E-18	3.044555E-18
2.360000E+03	7.505556E-18	3.174808E-18
2.400000E+03	7.866567E-18	3.310177E-18
2.440000E+03	8.246480E-18	3.451389E-18
2.480000E+03	8.648611E-18	3.599618E-18
2.520000E+03	9.075278E-18	3.755585E-18
2.560000E+03	9.529602E-18	3.920308E-18
2.600000E+03	1.001369E-17	4.094349E-18
2.640000E+03	1.053010E-17	4.278411E-18
2.680000E+03	1.108070E-17	4.472891E-18
2.720000E+03	1.166745E-17	4.678173E-18
2.760000E+03	1.229237E-17	4.894632E-18
2.800000E+03	1.295716E-17	5.122478E-18
2.840000E+03	1.366359E-17	5.361905E-18
2.880000E+03	1.441427E-17	5.613393E-18
2.920000E+03	1.521112E-17	5.877098E-18
2.960000E+03	1.605806E-17	6.153910E-18
3.000000E+03	1.695800E-17	6.444240E-18
3.010000E+03	1.719219E-17	6.519200E-18
3.020000E+03	1.742976E-17	6.594970E-18
3.030000E+03	1.767072E-17	6.671545E-18
3.040000E+03	1.791590E-17	6.749221E-18
3.050000E+03	1.816492E-17	6.827845E-18
3.060000E+03	1.841781E-17	6.907411E-18
3.070000E+03	1.867499E-17	6.988066E-18
3.080000E+03	1.893610E-17	7.069654E-18
3.090000E+03	1.920115E-17	7.152173E-18
3.100000E+03	1.947098E-17	7.235915E-18
3.110000E+03	1.974481E-17	7.320576E-18
3.120000E+03	2.002307E-17	7.406302E-18
3.130000E+03	2.030539E-17	7.492937E-18
3.140000E+03	2.059301E-17	7.580924E-18
3.150000E+03	2.088474E-17	7.669810E-18
3.160000E+03	2.118103E-17	7.759736E-18
3.170000E+03	2.148230E-17	7.850848E-18
3.180000E+03	2.178859E-17	7.943138E-18
3.190000E+03	2.209912E-17	8.036302E-18
3.200000E+03	2.241514E-17	8.130780E-18
3.210000E+03	2.273587E-17	8.226267E-18
3.220000E+03	2.306174E-17	8.322906E-18
3.230000E+03	2.339239E-17	8.420539E-18
3.240000E+03	2.372825E-17	8.519309E-18
3.250000E+03	2.406936E-17	8.619208E-18
3.260000E+03	2.441575E-17	8.720227E-18
3.270000E+03	2.476705E-17	8.822211E-18
3.280000E+03	2.512369E-17	8.925298E-18
3.290000E+03	2.548572E-17	9.029480E-18
3.300000E+03	2.585274E-17	9.134601E-18
3.310000E+03	2.622522E-17	9.240799E-18
3.320000E+03	2.660277E-17	9.347917E-18
3.330000E+03	2.698583E-17	9.456094E-18
3.340000E+03	2.737403E-17	9.565171E-18
3.350000E+03	2.776739E-17	9.675139E-18
3.360000E+03	2.816594E-17	9.785988E-18
3.370000E+03	2.856973E-17	9.897707E-18
3.380000E+03	2.897877E-17	1.001029E-17
3.390000E+03	2.939268E-17	1.012357E-17
3.400000E+03	2.981191E-17	1.023768E-17
3.410000E+03	3.023564E-17	1.035233E-17
3.420000E+03	3.066475E-17	1.046780E-17
3.430000E+03	3.109841E-17	1.058377E-17
3.440000E+03	3.153665E-17	1.070024E-17
3.450000E+03	3.197949E-17	1.081720E-17
3.460000E+03	3.242653E-17	1.093449E-17
3.470000E+03	3.287821E-17	1.105223E-17
3.480000E+03	3.333414E-17	1.117028E-17
3.490000E+03	3.379389E-17	1.128848E-17
3.500000E+03	3.425748E-17	1.140680E-17
3.510000E+03	3.472449E-17	1.152510E-17
3.520000E+03	3.519538E-17	1.164351E-17
3.530000E+03	3.566883E-17	1.176157E-17
3.540000E+03	3.614530E-17	1.187942E-17
3.550000E+03	3.662435E-17	1.199691E-17
3.560000E+03	3.710599E-17	1.211402E-17
3.570000E+03	3.758934E-17	1.223045E-17
3.580000E+03	3.807394E-17	1.234603E-17
3.590000E+03	3.856024E-17	1.246092E-17
3.600000E+03	3.904688E-17	1.257465E-17
3.610000E+03	3.953432E-17	1.268737E-17
3.620000E+03	4.002207E-17	1.279891E-17
3.630000E+03	4.050924E-17	1.290899E-17
3.640000E+03	4.099533E-17	1.301744E-17
3.650000E+03	4.148033E-17	1.312426E-17
3.660000E+03	4.196330E-17	1.322915E-17
3.670000E+03	4.244465E-17	1.333224E-17
3.680000E+03	4.292300E-17	1.343311E-17
3.690000E+03	4.339829E-17	1.353174E-17
3.700000E+03	4.387002E-17	1.362799E-17
3.710000E+03	4.433814E-17	1.372184E-17
3.720000E+03	4.480169E-17	1.381301E-17
3.730000E+03	4.526060E-17	1.390150E-17
3.740000E+03	4.571435E-17	1.398716E-17
3.750000E+03	4.616289E-17	1.406999E-17
3.760000E+03	4.660569E-17	1.414984E-17
3.770000E+03	4.704266E-17	1.422671E-17
3.780000E+03	4.747329E-17	1.430047E-17
3.790000E+03	4.789703E-17	1.437096E-17
3.800000E+03	4.831474E-17	1.443849E-17
3.810000E+03	4.872494E-17	1.450261E-17
3.820000E+03	4.912802E-17	1.456349E-17
3.830000E+03	4.952436E-17	1.462125E-17
3.840000E+03	4.991295E-17	1.467563E-17
3.850000E+03	5.029369E-17	1.472663E-17
3.860000E+03	5.066698E-17	1.477439E-17
3.870000E+03	5.103274E-17	1.481892E-17
3.880000E+03	5.139087E-17	1.486023E-17
3.890000E+03	5.174082E-17	1.489818E-17
3.900000E+03	5.208297E-17	1.493292E-17
3.910000E+03	5.241723E-17	1.496446E-17
3.920000E+03	5.274351E-17	1.499281E-17
3.930000E+03	5.306173E-17	1.501797E-17
3.940000E+03	5.337180E-17	1.503996E-17
3.950000E+03	5.367410E-17	1.505892E-17
3.960000E+03	5.396856E-17	1.507486E-17
3.970000E+03	5.425458E-17	1.508767E-17
3.980000E+03	5.453306E-17	1.509761E-17
3.990000E+03	5.480342E-17	1.510458E-17
4.000000E+03	5.506605E-17	1.510871E-17
4.010000E+03	5.532087E-17	1.511002E-17
4.020000E+03	5.556730E-17	1.510839E-17
4.030000E+03	5.580622E-17	1.510411E-17
4.040000E+03	5.603706E-17	1.509705E-17
4.050000E+03	5.626023E-17	1.508736E-17
4.060000E+03	5.647562E-17	1.507506E-17
4.070000E+03	5.668316E-17	1.506017E-17
4.080000E+03	5.688275E-17	1.504270E-17
4.090000E+03	5.707480E-17	1.502280E-17
4.100000E+03	5.725873E-17	1.500036E-17
4.110000E+03	5.743444E-17	1.497541E-17
4.120000E+03	5.760285E-17	1.494821E-17
4.130000E+03	5.776287E-17	1.491853E-17
4.140000E+03	5.791492E-17	1.488652E-17
4.150000E+03	5.805890E-17	1.485220E-17
4.160000E+03	5.819473E-17	1.481560E-17
4.170000E+03	5.832232E-17	1.477673E-17
4.180000E+03	5.844158E-17	1.473563E-17
4.190000E+03	5.855243E-17	1.469231E-17
4.200000E+03	5.865478E-17	1.464680E-17
4.210000E+03	5.874855E-17	1.459913E-17
4.220000E+03	5.883365E-17	1.454933E-17
4.230000E+03	5.890948E-17	1.449728E-17
4.240000E+03	5.897596E-17	1.444304E-17
4.250000E+03	5.903352E-17	1.438674E-17
4.260000E+03	5.908208E-17	1.432841E-17
4.270000E+03	5.912051E-17	1.426785E-17
4.280000E+03	5.914926E-17	1.420521E-17
4.290000E+03	5.916825E-17	1.414051E-17
4.300000E+03	5.917740E-17	1.407379E-17
4.310000E+03	5.917663E-17	1.400509E-17
4.320000E+03	5.916534E-17	1.393432E-17
4.330000E+03	5.914450E-17	1.386176E-17
4.340000E+03	5.911301E-17	1.378719E-17
4.350000E+03	5.907183E-17	1.371090E-17
4.360000E+03	5.902090E-17	1.363292E-17
4.370000E+03	5.896068E-17	1.355340E-17
4.380000E+03	5.889111E-17	1.347239E-17
4.390000E+03	5.881267E-17	1.339003E-17
4.400000E+03	5.872529E-17	1.330636E-17
4.410000E+03	5.862999E-17	1.322165E-17
4.420000E+03	5.852672E-17	1.313592E-17
4.430000E+03	5.841544E-17	1.304921E-17
4.440000E+03	5.829716E-17	1.296178E-17
4.450000E+03	5.817185E-17	1.287367E-17
4.460000E+03	5.804001E-17	1.278501E-17
4.470000E+03	5.790267E-17	1.269606E-17
4.480000E+03	5.775927E-17	1.260673E-17
4.490000E+03	5.761086E-17	1.251727E-17
4.500000E+03	5.745793E-17	1.242782E-17
4.510000E+03	5.730049E-17	1.233840E-17
4.520000E+03	5.713904E-17	1.224915E-17
4.530000E+03	5.697410E-17	1.216018E-17
4.540000E+03	5.680620E-17	1.207163E-17
4.550000E+03	5.663587E-17	1.198363E-17
4.560000E+03	5.646310E-17	1.189619E-17
4.570000E+03	5.628788E-17	1.180931E-17
4.580000E+03	5.611182E-17	1.172335E-17
4.590000E+03	5.593438E-17	1.163819E-17
4.600000E+03	5.575556E-17	1.155384E-17
4.610000E+03	5.557644E-17	1.147053E-17
4.620000E+03	5.539755E-17	1.138837E-17
4.630000E+03	5.521783E-17	1.130714E-17
4.640000E+03	5.503942E-17	1.122728E-17
4.650000E+03	5.486073E-17	1.114845E-17
4.660000E+03	5.468336E-17	1.107099E-17
4.670000E+03	5.450733E-17	1.099489E-17
4.680000E+03	5.433263E-17	1.092013E-17
4.690000E+03	5.415929E-17	1.084672E-17
4.700000E+03	5.398730E-17	1.077464E-17
4.710000E+03	5.381775E-17	1.070410E-17
4.720000E+03	5.365011E-17	1.063498E-17
4.730000E+03	5.348439E-17	1.056727E-17
4.740000E+03	5.332112E-17	1.050106E-17
4.750000E+03	5.315927E-17	1.043613E-17
4.760000E+03	5.300042E-17	1.037277E-17
4.770000E+03	5.284300E-17	1.031067E-17
4.780000E+03	5.268808E-17	1.025000E-17
4.790000E+03	5.253567E-17	1.019076E-17
4.800000E+03	5.238472E-17	1.013272E-17
4.810000E+03	5.223577E-17	1.007597E-17
4.820000E+03	5.208936E-17	1.002058E-17
4.830000E+03	5.194445E-17	9.966341E-18
4.840000E+03	5.180157E-17	9.913329E-18
4.850000E+03	5.166074E-17	9.861523E-18
4.860000E+03	5.152144E-17	9.810803E-18
4.870000E+03	5.138369E-17	9.761148E-18
4.880000E+03	5.124802E-17	9.712635E-18
4.890000E+03	5.111393E-17	9.665143E-18
4.900000E+03	5.098195E-17	9.618746E-18
4.910000E+03	5.085104E-17	9.573225E-18
4.920000E+03	5.072176E-17	9.528655E-18
4.930000E+03	5.059411E-17	9.485011E-18
4.940000E+03	5.046759E-17	9.442172E-18
4.950000E+03	5.034273E-17	9.400210E-18
4.960000E+03	5.021904E-17	9.359005E-18
4.970000E+03	5.009705E-17	9.318626E-18
4.980000E+03	4.997625E-17	9.278954E-18
4.990000E+03	4.985668E-17	9.239962E-18
5.000000E+03	4.973783E-17	9.201530E-18
5.010000E+03	4.962074E-17	9.163823E-18
5.020000E+03	4.950443E-17	9.126626E-18
5.030000E+03	4.938890E-17	9.089914E-18
5.040000E+03	4.927469E-17	9.053757E-18
5.050000E+03	4.916131E-17	9.018034E-18
5.060000E+03	4.904878E-17	8.982721E-18
5.070000E+03	4.893713E-17	8.947794E-18
5.080000E+03	4.882638E-17	8.913227E-18
5.090000E+03	4.871606E-17	8.878905E-18
5.100000E+03	4.860618E-17	8.844805E-18
5.110000E+03	4.849728E-17	8.810993E-18
5.120000E+03	4.838839E-17	8.777266E-18
5.130000E+03	4.828052E-17	8.743781E-18
5.140000E+03	4.817223E-17	8.710245E-18
5.150000E+03	4.806452E-17	8.676819E-18
5.160000E+03	4.795694E-17	8.643389E-18
5.170000E+03	4.784952E-17	8.609937E-18
5.180000E+03	4.774229E-17	8.576442E-18
5.190000E+03	4.763480E-17	8.542797E-18
5.200000E+03	4.752708E-17	8.508983E-18
5.210000E+03	4.741868E-17	8.474896E-18
5.220000E+03	4.731061E-17	8.440693E-18
5.230000E+03	4.720146E-17	8.406097E-18
5.240000E+03	4.709176E-17	8.371180E-18
5.250000E+03	4.698154E-17	8.335928E-18
5.260000E+03	4.687085E-17	8.300326E-18
5.270000E+03	4.675877E-17	8.264193E-18
5.280000E+03	4.664584E-17	8.227600E-18
5.290000E+03	4.653162E-17	8.190454E-18
5.300000E+03	4.641616E-17	8.152746E-18
5.310000E+03	4.629905E-17	8.114383E-18
5.320000E+03	4.618080E-17	8.075441E-18
5.330000E+03	4.606054E-17	8.035748E-18
5.340000E+03	4.593832E-17	7.995302E-18
5.350000E+03	4.581374E-17	7.954017E-18
5.360000E+03	4.568733E-17	7.911972E-18
5.370000E+03	4.555776E-17	7.868925E-18
5.380000E+03	4.542557E-17	7.824958E-18
5.390000E+03	4.529037E-17	7.779995E-18
5.400000E+03	4.515178E-17	7.733960E-18
5.410000E+03	4.500851E-17	7.686629E-18
5.420000E+03	4.486021E-17	7.637935E-18
5.430000E+03	4.470652E-17	7.587817E-18
5.440000E+03	4.454531E-17	7.535910E-18
5.450000E+03	4.437626E-17	7.482166E-18
5.460000E+03	4.419772E-17	7.426313E-18
5.470000E+03	4.400895E-17	7.368238E-18
5.480000E+03	4.381144E-17	7.308200E-18
5.490000E+03	4.360489E-17	7.246162E-18
5.500000E+03	4.339076E-17	7.182379E-18
5.510000E+03	4.316962E-17	7.116958E-18
5.520000E+03	4.294333E-17	7.050216E-18
5.530000E+03	4.271155E-17	6.982109E-18
5.540000E+03	4.247525E-17	6.912808E-18
5.550000E+03	4.223454E-17	6.842338E-18
5.560000E+03	4.199079E-17	6.770934E-18
5.570000E+03	4.174365E-17	6.698551E-18
5.580000E+03	4.149362E-17	6.625279E-18
5.590000E+03	4.124079E-17	6.551144E-18
5.600000E+03	4.098606E-17	6.476302E-18
5.610000E+03	4.072908E-17	6.400707E-18
5.620000E+03	4.047034E-17	6.324447E-18
5.630000E+03	4.021031E-17	6.247609E-18
5.640000E+03	3.994904E-17	6.170212E-18
5.650000E+03	3.968700E-17	6.092339E-18
5.660000E+03	3.942382E-17	6.013946E-18
5.670000E+03	3.915996E-17	5.935115E-18
5.680000E+03	3.889588E-17	5.855926E-18
5.690000E+03	3.863160E-17	5.776396E-18
5.700000E+03	3.836717E-17	5.696542E-18
5.710000E+03	3.810261E-17	5.616382E-18
5.720000E+03	3.783877E-17	5.536049E-18
5.730000E+03	3.757486E-17	5.455440E-18
5.740000E+03	3.731171E-17	5.374689E-18
5.750000E+03	3.704934E-17	5.293808E-18
5.760000E+03	3.678738E-17	5.212755E-18
5.770000E+03	3.652624E-17	5.131600E-18
5.780000E+03	3.626632E-17	5.050412E-18
5.790000E+03	3.600724E-17	4.969147E-18
5.800000E+03	3.574902E-17	4.887820E-18
5.810000E+03	3.549245E-17	4.806549E-18
5.820000E+03	3.523675E-17	4.725239E-18
5.830000E+03	3.498232E-17	4.643955E-18
5.840000E+03	3.472916E-17	4.562709E-18
5.850000E+03	3.447727E-17	4.481511E-18
5.860000E+03	3.422704E-17	4.400422E-18
5.870000E+03	3.397771E-17	4.319355E-18
5.880000E+03	3.373003E-17	4.238418E-18
5.890000E+03	3.348362E-17	4.157573E-18
5.900000E+03	3.323849E-17	4.076833E-18
5.910000E+03	3.299462E-17	3.996208E-18
5.920000E+03	3.275201E-17	3.915710E-18
5.930000E+03	3.251103E-17	3.835395E-18
5.940000E+03	3.227094E-17	3.755185E-18
5.950000E+03	3.203172E-17	3.675096E-18
5.960000E+03	3.179374E-17	3.595183E-18
5.970000E+03	3.155699E-17	3.515458E-18
5.980000E+03	3.132074E-17	3.435853E-18
5.990000E+03	3.108571E-17	3.356465E-18
6.000000E+03	3.085080E-17	3.277191E-18
6.010000E+03	3.061710E-17	3.198163E-18
6.020000E+03	3.038352E-17	3.119286E-18
6.030000E+03	3.015006E-17	3.040580E-18
6.040000E+03	2.991708E-17	2.962101E-18
6.050000E+03	2.968420E-17	2.883836E-18
6.060000E+03	2.945144E-17	2.805806E-18
6.070000E+03	2.921808E-17	2.727969E-18
6.080000E+03	2.898484E-17	2.650417E-18
6.090000E+03	2.875065E-17	2.573083E-18
6.100000E+03	2.851623E-17	2.496059E-18
6.110000E+03	2.828123E-17	2.419345E-18
6.120000E+03	2.804530E-17	2.342945E-18
6.130000E+03	2.780846E-17	2.266895E-18
6.140000E+03	2.757105E-17	2.191261E-18
6.150000E+03	2.733273E-17	2.116053E-18
6.160000E+03	2.709351E-17	2.041313E-18
6.170000E+03	2.685408E-17	1.967134E-18
6.180000E+03	2.661376E-17	1.893510E-18
6.190000E+03	2.637289E-17	1.820513E-18
6.200000E+03	2.613182E-17	1.748216E-18
6.210000E+03	2.589088E-17	1.676692E-18
6.220000E+03	2.564974E-17	1.605974E-18
6.230000E+03	2.540840E-17	1.536124E-18
6.240000E+03	2.516721E-17	1.467231E-18
6.250000E+03	2.492584E-17	1.399348E-18
6.260000E+03	2.468464E-17	1.332580E-18
6.270000E+03	2.444361E-17	1.267018E-18
6.280000E+03	2.420309E-17	1.202787E-18
6.290000E+03	2.396310E-17	1.140005E-18
6.300000E+03	2.372365E-17	1.078811E-18
6.310000E+03	2.348510E-17	1.019380E-18
6.320000E+03	2.324778E-17	9.619111E-19
6.330000E+03	2.301140E-17	9.066085E-19
6.340000E+03	2.277631E-17	8.537398E-19
6.350000E+03	2.254287E-17	8.036139E-19
6.360000E+03	2.231080E-17	7.565653E-19
6.370000E+03	2.208077E-17	7.130128E-19
6.380000E+03	2.185285E-17	6.734028E-19
6.390000E+03	2.162707E-17	6.382239E-19
6.400000E+03	2.140350E-17	6.079867E-19
6.410000E+03	2.118283E-17	5.832048E-19
6.420000E+03	2.096480E-17	5.643007E-19
6.430000E+03	2.075008E-17	5.515959E-19
6.440000E+03	2.053873E-17	5.452086E-19
6.450000E+03	2.033072E-17	5.450042E-19
6.460000E+03	2.012622E-17	5.505923E-19
6.470000E+03	1.992511E-17	5.613981E-19
6.480000E+03	1.972754E-17	5.767537E-19
6.490000E+03	1.953279E-17	5.959324E-19
6.500000E+03	1.934135E-17	6.182634E-19
6.510000E+03	1.915310E-17	6.431159E-19
6.520000E+03	1.896766E-17	6.699232E-19
6.530000E+03	1.878522E-17	6.982177E-19
6.540000E+03	1.860573E-17	7.275982E-19
6.550000E+03	1.842910E-17	7.577324E-19
6.560000E+03	1.825528E-17	7.883468E-19
6.570000E+03	1.808451E-17	8.192320E-19
6.580000E+03	1.791645E-17	8.501947E-19
6.590000E+03	1.775105E-17	8.810887E-19
6.600000E+03	1.758857E-17	9.118109E-19
6.610000E+03	1.742898E-17	9.422687E-19
6.620000E+03	1.727196E-17	9.723719E-19
6.630000E+03	1.711776E-17	1.002078E-18
6.640000E+03	1.696609E-17	1.031324E-18
6.650000E+03	1.681747E-17	1.060109E-18
6.660000E+03	1.667133E-17	1.088373E-18
6.670000E+03	1.652765E-17	1.116095E-18
6.680000E+03	1.638668E-17	1.143281E-18
6.690000E+03	1.624842E-17	1.169923E-18
6.700000E+03	1.611257E-17	1.195998E-18
6.710000E+03	1.597910E-17	1.221503E-18
6.720000E+03	1.584829E-17	1.246462E-18
6.730000E+03	1.571984E-17	1.270858E-18
6.740000E+03	1.559401E-17	1.294720E-18
6.750000E+03	1.547024E-17	1.318010E-18
6.760000E+03	1.534907E-17	1.340784E-18
6.770000E+03	1.522992E-17	1.363005E-18
6.780000E+03	1.511334E-17	1.384732E-18
6.790000E+03	1.499877E-17	1.405928E-18
6.800000E+03	1.488646E-17	1.426631E-18
6.810000E+03	1.477639E-17	1.446853E-18
6.820000E+03	1.466830E-17	1.466581E-18
6.830000E+03	1.456242E-17	1.485855E-18
6.840000E+03	1.445849E-17	1.504663E-18
6.850000E+03	1.435675E-17	1.523045E-18
6.860000E+03	1.425665E-17	1.540958E-18
6.870000E+03	1.415873E-17	1.558473E-18
6.880000E+03	1.406268E-17	1.575575E-18
6.890000E+03	1.396851E-17	1.592278E-18
6.900000E+03	1.387593E-17	1.608565E-18
6.910000E+03	1.378546E-17	1.624509E-18
6.920000E+03	1.369629E-17	1.640031E-18
6.930000E+03	1.360920E-17	1.655238E-18
6.940000E+03	1.352366E-17	1.670078E-18
6.950000E+03	1.343964E-17	1.684566E-18
6.960000E+03	1.335739E-17	1.698743E-18
6.970000E+03	1.327665E-17	1.712592E-18
6.980000E+03	1.319740E-17	1.726122E-18
6.990000E+03	1.311962E-17	1.739345E-18
7.000000E+03	1.304331E-17	1.752273E-18
7.010000E+03	1.296844E-17	1.764916E-18
7.020000E+03	1.289476E-17	1.777251E-18
7.030000E+03	1.282275E-17	1.789357E-18
7.040000E+03	1.275165E-17	1.801140E-18
7.050000E+03	1.268220E-17	1.812715E-18
7.060000E+03	1.261363E-17	1.823985E-18
7.070000E+03	1.254644E-17	1.835031E-18
7.080000E+03	1.248035E-17	1.845827E-18
7.090000E+03	1.241537E-17	1.856380E-18
7.100000E+03	1.235172E-17	1.866738E-18
7.110000E+03	1.228889E-17	1.876833E-18
7.120000E+03	1.222714E-17	1.886712E-18
7.130000E+03	1.216619E-17	1.896344E-18
7.140000E+03	1.210628E-17	1.905775E-18
7.150000E+03	1.204741E-17	1.915013E-18
7.160000E+03	1.198931E-17	1.924026E-18
7.170000E+03	1.193222E-17	1.932861E-18
7.180000E+03	1.187565E-17	1.941446E-18
7.190000E+03	1.182008E-17	1.949867E-18
7.200000E+03	1.176524E-17	1.958090E-18
7.210000E+03	1.171090E-17	1.966082E-18
7.220000E+03	1.165728E-17	1.973888E-18
7.230000E+03	1.160438E-17	1.981515E-18
7.240000E+03	1.155194E-17	1.988928E-18
7.250000E+03	1.149997E-17	1.996132E-18
7.260000E+03	1.144845E-17	2.003132E-18
7.270000E+03	1.139739E-17	2.009933E-18
7.280000E+03	1.134677E-17	2.016540E-18
7.290000E+03	1.129612E-17	2.022874E-18
7.300000E+03	1.124590E-17	2.029023E-18
7.310000E+03	1.119588E-17	2.034949E-18
7.320000E+03	1.114582E-17	2.040614E-18
7.330000E+03	1.109595E-17	2.046065E-18
7.340000E+03	1.104580E-17	2.051218E-18
7.350000E+03	1.099538E-17	2.056078E-18
7.360000E+03	1.094469E-17	2.060646E-18
7.370000E+03	1.089349E-17	2.064883E-18
7.380000E+03	1.084202E-17	2.068834E-18
7.390000E+03	1.078959E-17	2.072371E-18
7.400000E+03	1.073668E-17	2.075583E-18
7.410000E+03	1.068282E-17	2.078384E-18
7.420000E+03	1.062825E-17	2.080820E-18
7.430000E+03	1.057275E-17	2.082849E-18
7.440000E+03	1.051633E-17	2.084472E-18
7.450000E+03	1.045922E-17	2.085734E-18
7.460000E+03	1.040120E-17	2.086595E-18
7.470000E+03	1.034295E-17	2.087189E-18
7.480000E+03	1.028403E-17	2.087430E-18
7.490000E+03	1.022488E-17	2.087410E-18
7.500000E+03	1.016529E-17	2.087087E-18
7.510000E+03	1.010591E-17	2.086598E-18
7.520000E+03	1.004654E-17	2.085903E-18
7.530000E+03	9.987174E-18	2.085004E-18
7.540000E+03	9.928025E-18	2.083950E-18
7.550000E+03	9.869094E-18	2.082744E-18
7.560000E+03	9.810816E-18	2.081482E-18
7.570000E+03	9.752753E-18	2.080075E-18
7.580000E+03	9.695119E-18	2.078572E-18
7.590000E+03	9.638128E-18	2.077023E-18
7.600000E+03	9.581561E-18	2.075386E-18
7.610000E+03	9.525630E-18	2.073709E-18
7.620000E+03	9.470117E-18	2.071951E-18
7.630000E+03	9.415445E-18	2.070206E-18
7.640000E+03	9.361185E-18	2.068386E-18
7.650000E+03	9.307758E-18	2.066586E-18
7.660000E+03	9.254738E-18	2.064718E-18
7.670000E+03	9.202542E-18	2.062876E-18
7.680000E+03	9.150747E-18	2.060970E-18
7.690000E+03	9.099769E-18	2.059098E-18
7.700000E+03	9.049394E-18	2.057215E-18
7.710000E+03	8.999621E-18	2.055324E-18
7.720000E+03	8.950445E-18	2.053428E-18
7.730000E+03	8.901865E-18	2.051529E-18
7.740000E+03	8.853877E-18	2.049630E-18
7.750000E+03	8.806273E-18	2.047686E-18
7.760000E+03	8.759463E-18	2.045795E-18
