#wls	flux	fluxerr
1.600000E+03	4.028746E-18	1.752523E-18
1.640000E+03	4.038558E-18	1.748816E-18
1.680000E+03	4.050661E-18	1.745853E-18
1.720000E+03	4.062777E-18	1.742640E-18
1.760000E+03	4.077202E-18	1.740151E-18
1.800000E+03	4.093953E-18	1.738374E-18
1.840000E+03	4.112272E-18	1.736969E-18
1.880000E+03	4.132944E-18	1.736248E-18
1.920000E+03	4.156762E-18	1.736522E-18
1.960000E+03	4.183750E-18	1.737771E-18
2.000000E+03	4.214714E-18	1.740300E-18
2.040000E+03	4.249685E-18	1.744082E-18
2.080000E+03	4.288693E-18	1.749093E-18
2.120000E+03	4.333349E-18	1.755944E-18
2.160000E+03	4.382906E-18	1.764281E-18
2.200000E+03	4.438196E-18	1.774385E-18
2.240000E+03	4.498464E-18	1.785897E-18
2.280000E+03	4.565348E-18	1.799408E-18
2.320000E+03	4.637291E-18	1.814236E-18
2.360000E+03	4.715135E-18	1.830649E-18
2.400000E+03	4.798920E-18	1.848592E-18
2.440000E+03	4.887877E-18	1.867699E-18
2.480000E+03	4.982853E-18	1.888220E-18
2.520000E+03	5.083072E-18	1.909787E-18
2.560000E+03	5.188568E-18	1.932338E-18
2.600000E+03	5.299373E-18	1.955807E-18
2.640000E+03	5.415520E-18	1.980126E-18
2.680000E+03	5.537044E-18	2.005224E-18
2.720000E+03	5.663977E-18	2.031026E-18
2.760000E+03	5.796356E-18	2.057454E-18
2.800000E+03	5.933385E-18	2.084134E-18
2.840000E+03	6.075928E-18	2.111276E-18
2.880000E+03	6.222356E-18	2.138218E-18
2.920000E+03	6.374372E-18	2.165451E-18
2.960000E+03	6.532864E-18	2.193161E-18
3.000000E+03	6.698729E-18	2.221517E-18
3.010000E+03	6.740934E-18	2.228554E-18
3.020000E+03	6.784870E-18	2.236039E-18
3.030000E+03	6.828852E-18	2.243413E-18
3.040000E+03	6.873725E-18	2.250952E-18
3.050000E+03	6.919491E-18	2.258652E-18
3.060000E+03	6.965307E-18	2.266235E-18
3.070000E+03	7.012864E-18	2.274249E-18
3.080000E+03	7.060475E-18	2.282141E-18
3.090000E+03	7.109832E-18	2.290455E-18
3.100000E+03	7.160093E-18	2.298915E-18
3.110000E+03	7.210412E-18	2.307246E-18
3.120000E+03	7.262485E-18	2.315987E-18
3.130000E+03	7.315468E-18	2.324863E-18
3.140000E+03	7.370213E-18	2.334139E-18
3.150000E+03	7.425874E-18	2.343542E-18
3.160000E+03	7.482451E-18	2.353068E-18
3.170000E+03	7.540801E-18	2.362980E-18
3.180000E+03	7.600073E-18	2.373006E-18
3.190000E+03	7.661977E-18	2.383673E-18
3.200000E+03	7.724810E-18	2.394443E-18
3.210000E+03	7.789431E-18	2.405576E-18
3.220000E+03	7.855842E-18	2.417065E-18
3.230000E+03	7.924047E-18	2.428905E-18
3.240000E+03	7.994052E-18	2.441089E-18
3.250000E+03	8.065861E-18	2.453609E-18
3.260000E+03	8.140333E-18	2.466720E-18
3.270000E+03	8.217476E-18	2.480411E-18
3.280000E+03	8.296439E-18	2.494415E-18
3.290000E+03	8.378083E-18	2.508983E-18
3.300000E+03	8.462415E-18	2.524104E-18
3.310000E+03	8.549441E-18	2.539770E-18
3.320000E+03	8.639169E-18	2.555969E-18
3.330000E+03	8.732464E-18	2.572945E-18
3.340000E+03	8.828475E-18	2.590433E-18
3.350000E+03	8.928070E-18	2.608675E-18
3.360000E+03	9.031258E-18	2.627656E-18
3.370000E+03	9.137184E-18	2.647114E-18
3.380000E+03	9.247582E-18	2.667537E-18
3.390000E+03	9.361600E-18	2.688658E-18
3.400000E+03	9.480110E-18	2.710713E-18
3.410000E+03	9.603125E-18	2.733683E-18
3.420000E+03	9.729789E-18	2.757307E-18
3.430000E+03	9.861845E-18	2.782058E-18
3.440000E+03	9.997573E-18	2.807430E-18
3.450000E+03	1.013872E-17	2.833892E-18
3.460000E+03	1.028529E-17	2.861423E-18
3.470000E+03	1.043731E-17	2.890003E-18
3.480000E+03	1.059479E-17	2.919610E-18
3.490000E+03	1.075774E-17	2.950222E-18
3.500000E+03	1.092705E-17	2.982055E-18
3.510000E+03	1.110187E-17	3.014847E-18
3.520000E+03	1.128308E-17	3.048810E-18
3.530000E+03	1.147070E-17	3.083920E-18
3.540000E+03	1.166475E-17	3.120148E-18
3.550000E+03	1.186524E-17	3.157470E-18
3.560000E+03	1.207308E-17	3.196090E-18
3.570000E+03	1.228828E-17	3.235976E-18
3.580000E+03	1.251086E-17	3.277098E-18
3.590000E+03	1.273997E-17	3.319197E-18
3.600000E+03	1.297739E-17	3.362698E-18
3.610000E+03	1.322226E-17	3.407341E-18
3.620000E+03	1.347548E-17	3.453317E-18
3.630000E+03	1.373621E-17	3.500368E-18
3.640000E+03	1.400534E-17	3.548681E-18
3.650000E+03	1.428291E-17	3.598220E-18
3.660000E+03	1.456806E-17	3.648728E-18
3.670000E+03	1.486258E-17	3.700607E-18
3.680000E+03	1.516562E-17	3.753599E-18
3.690000E+03	1.547722E-17	3.807664E-18
3.700000E+03	1.579740E-17	3.862762E-18
3.710000E+03	1.612708E-17	3.919069E-18
3.720000E+03	1.646542E-17	3.976327E-18
3.730000E+03	1.681243E-17	4.034494E-18
3.740000E+03	1.716994E-17	4.093952E-18
3.750000E+03	1.753532E-17	4.154021E-18
3.760000E+03	1.791127E-17	4.215289E-18
3.770000E+03	1.829516E-17	4.277082E-18
3.780000E+03	1.868970E-17	4.339980E-18
3.790000E+03	1.909316E-17	4.403520E-18
3.800000E+03	1.950556E-17	4.467657E-18
3.810000E+03	1.992874E-17	4.532752E-18
3.820000E+03	2.036007E-17	4.598145E-18
3.830000E+03	2.080226E-17	4.664396E-18
3.840000E+03	2.125268E-17	4.730851E-18
3.850000E+03	2.171407E-17	4.798061E-18
3.860000E+03	2.218378E-17	4.865378E-18
3.870000E+03	2.266365E-17	4.933149E-18
3.880000E+03	2.315284E-17	5.001125E-18
3.890000E+03	2.365139E-17	5.069257E-18
3.900000E+03	2.415846E-17	5.137301E-18
3.910000E+03	2.467589E-17	5.205589E-18
3.920000E+03	2.520283E-17	5.273877E-18
3.930000E+03	2.573845E-17	5.341924E-18
3.940000E+03	2.628279E-17	5.409680E-18
3.950000E+03	2.683680E-17	5.477279E-18
3.960000E+03	2.739964E-17	5.544483E-18
3.970000E+03	2.797136E-17	5.611241E-18
3.980000E+03	2.855111E-17	5.677319E-18
3.990000E+03	2.914076E-17	5.743027E-18
4.000000E+03	2.973764E-17	5.807774E-18
4.010000E+03	3.034362E-17	5.871867E-18
4.020000E+03	3.095785E-17	5.935076E-18
4.030000E+03	3.157946E-17	5.997176E-18
4.040000E+03	3.220944E-17	6.058292E-18
4.050000E+03	3.284691E-17	6.118202E-18
4.060000E+03	3.349284E-17	6.177025E-18
4.070000E+03	3.414547E-17	6.234373E-18
4.080000E+03	3.480483E-17	6.290202E-18
4.090000E+03	3.547190E-17	6.344629E-18
4.100000E+03	3.614582E-17	6.397442E-18
4.110000E+03	3.682662E-17	6.448595E-18
4.120000E+03	3.751344E-17	6.497879E-18
4.130000E+03	3.820725E-17	6.545412E-18
4.140000E+03	3.890624E-17	6.590832E-18
4.150000E+03	3.961137E-17	6.634256E-18
4.160000E+03	4.032178E-17	6.675488E-18
4.170000E+03	4.103841E-17	6.714639E-18
4.180000E+03	4.175945E-17	6.751367E-18
4.190000E+03	4.248587E-17	6.785785E-18
4.200000E+03	4.321676E-17	6.817707E-18
4.210000E+03	4.395214E-17	6.847101E-18
4.220000E+03	4.469205E-17	6.873931E-18
4.230000E+03	4.543557E-17	6.898023E-18
4.240000E+03	4.618272E-17	6.919349E-18
4.250000E+03	4.693350E-17	6.937880E-18
4.260000E+03	4.768793E-17	6.953590E-18
4.270000E+03	4.844507E-17	6.966318E-18
4.280000E+03	4.920397E-17	6.975909E-18
4.290000E+03	4.996652E-17	6.982614E-18
4.300000E+03	5.073081E-17	6.986148E-18
4.310000E+03	5.149588E-17	6.986371E-18
4.320000E+03	5.226360E-17	6.983534E-18
4.330000E+03	5.303204E-17	6.977372E-18
4.340000E+03	5.380212E-17	6.968008E-18
4.350000E+03	5.457188E-17	6.955195E-18
4.360000E+03	5.534222E-17	6.939062E-18
4.370000E+03	5.611310E-17	6.919617E-18
4.380000E+03	5.688348E-17	6.896753E-18
4.390000E+03	5.765329E-17	6.870489E-18
4.400000E+03	5.842245E-17	6.840848E-18
4.410000E+03	5.918989E-17	6.807747E-18
4.420000E+03	5.995649E-17	6.771331E-18
4.430000E+03	6.072213E-17	6.731639E-18
4.440000E+03	6.148573E-17	6.688607E-18
4.450000E+03	6.224715E-17	6.642290E-18
4.460000E+03	6.300724E-17	6.592852E-18
4.470000E+03	6.376390E-17	6.540156E-18
4.480000E+03	6.451695E-17	6.484286E-18
4.490000E+03	6.526721E-17	6.425429E-18
4.500000E+03	6.601352E-17	6.363588E-18
4.510000E+03	6.675470E-17	6.298784E-18
4.520000E+03	6.749054E-17	6.231147E-18
4.530000E+03	6.822081E-17	6.160820E-18
4.540000E+03	6.894529E-17	6.087963E-18
4.550000E+03	6.966275E-17	6.012662E-18
4.560000E+03	7.037390E-17	5.935196E-18
4.570000E+03	7.107750E-17	5.855693E-18
4.580000E+03	7.177228E-17	5.774305E-18
4.590000E+03	7.245893E-17	5.691371E-18
4.600000E+03	7.313714E-17	5.607166E-18
4.610000E+03	7.380562E-17	5.521918E-18
4.620000E+03	7.446402E-17	5.435960E-18
4.630000E+03	7.511103E-17	5.349579E-18
4.640000E+03	7.574729E-17	5.263237E-18
4.650000E+03	7.637245E-17	5.177352E-18
4.660000E+03	7.698514E-17	5.092305E-18
4.670000E+03	7.758501E-17	5.008580E-18
4.680000E+03	7.817166E-17	4.926689E-18
4.690000E+03	7.874474E-17	4.847174E-18
4.700000E+03	7.930385E-17	4.770604E-18
4.710000E+03	7.984761E-17	4.697510E-18
4.720000E+03	8.037664E-17	4.628564E-18
4.730000E+03	8.088956E-17	4.564330E-18
4.740000E+03	8.138699E-17	4.505492E-18
4.750000E+03	8.186758E-17	4.452610E-18
4.760000E+03	8.233095E-17	4.406286E-18
4.770000E+03	8.277677E-17	4.367084E-18
4.780000E+03	8.320371E-17	4.335467E-18
4.790000E+03	8.361248E-17	4.311939E-18
4.800000E+03	8.400383E-17	4.296915E-18
4.810000E+03	8.437653E-17	4.290608E-18
4.820000E+03	8.473242E-17	4.293274E-18
4.830000E+03	8.506939E-17	4.304847E-18
4.840000E+03	8.538937E-17	4.325354E-18
4.850000E+03	8.569232E-17	4.354613E-18
4.860000E+03	8.597726E-17	4.392296E-18
4.870000E+03	8.624520E-17	4.438097E-18
4.880000E+03	8.649622E-17	4.491589E-18
4.890000E+03	8.673039E-17	4.552291E-18
4.900000E+03	8.694782E-17	4.619682E-18
4.910000E+03	8.714961E-17	4.693265E-18
4.920000E+03	8.733591E-17	4.772476E-18
4.930000E+03	8.750685E-17	4.856745E-18
4.940000E+03	8.766261E-17	4.945505E-18
4.950000E+03	8.780435E-17	5.038254E-18
4.960000E+03	8.793225E-17	5.134454E-18
4.970000E+03	8.804650E-17	5.233586E-18
4.980000E+03	8.814830E-17	5.335211E-18
4.990000E+03	8.823686E-17	5.438801E-18
5.000000E+03	8.831339E-17	5.543971E-18
5.010000E+03	8.837908E-17	5.650367E-18
5.020000E+03	8.843220E-17	5.757475E-18
5.030000E+03	8.847591E-17	5.865120E-18
5.040000E+03	8.850848E-17	5.972837E-18
5.050000E+03	8.853112E-17	6.080378E-18
5.060000E+03	8.854502E-17	6.187519E-18
5.070000E+03	8.854945E-17	6.293928E-18
5.080000E+03	8.854464E-17	6.399357E-18
5.090000E+03	8.853178E-17	6.503646E-18
5.100000E+03	8.851111E-17	6.606589E-18
5.110000E+03	8.848283E-17	6.707993E-18
5.120000E+03	8.844717E-17	6.807685E-18
5.130000E+03	8.840531E-17	6.905576E-18
5.140000E+03	8.835555E-17	7.001371E-18
5.150000E+03	8.830096E-17	7.095162E-18
5.160000E+03	8.823890E-17	7.186599E-18
5.170000E+03	8.817147E-17	7.275723E-18
5.180000E+03	8.809886E-17	7.362435E-18
5.190000E+03	8.802126E-17	7.446642E-18
5.200000E+03	8.793793E-17	7.528186E-18
5.210000E+03	8.784999E-17	7.607069E-18
5.220000E+03	8.775761E-17	7.683225E-18
5.230000E+03	8.766006E-17	7.756515E-18
5.240000E+03	8.755933E-17	7.827047E-18
5.250000E+03	8.745467E-17	7.894694E-18
5.260000E+03	8.734534E-17	7.959332E-18
5.270000E+03	8.723329E-17	8.021091E-18
5.280000E+03	8.711688E-17	8.079774E-18
5.290000E+03	8.699714E-17	8.135437E-18
5.300000E+03	8.687512E-17	8.188144E-18
5.310000E+03	8.674915E-17	8.237707E-18
5.320000E+03	8.662026E-17	8.284197E-18
5.330000E+03	8.648857E-17	8.327603E-18
5.340000E+03	8.635510E-17	8.368004E-18
5.350000E+03	8.621816E-17	8.405224E-18
5.360000E+03	8.607878E-17	8.439347E-18
5.370000E+03	8.593704E-17	8.470376E-18
5.380000E+03	8.579305E-17	8.498313E-18
5.390000E+03	8.564691E-17	8.523166E-18
5.400000E+03	8.549870E-17	8.544943E-18
5.410000E+03	8.534765E-17	8.563568E-18
5.420000E+03	8.519557E-17	8.579229E-18
5.430000E+03	8.504081E-17	8.591765E-18
5.440000E+03	8.488518E-17	8.601367E-18
5.450000E+03	8.472701E-17	8.607881E-18
5.460000E+03	8.456809E-17	8.611499E-18
5.470000E+03	8.440677E-17	8.612070E-18
5.480000E+03	8.424398E-17	8.609704E-18
5.490000E+03	8.407975E-17	8.604426E-18
5.500000E+03	8.391500E-17	8.596347E-18
5.510000E+03	8.374807E-17	8.585322E-18
5.520000E+03	8.357985E-17	8.571466E-18
5.530000E+03	8.341123E-17	8.554894E-18
5.540000E+03	8.324057E-17	8.535465E-18
5.550000E+03	8.306874E-17	8.513298E-18
5.560000E+03	8.289660E-17	8.488509E-18
5.570000E+03	8.272418E-17	8.461133E-18
5.580000E+03	8.254984E-17	8.431034E-18
5.590000E+03	8.237526E-17	8.398416E-18
5.600000E+03	8.220044E-17	8.363316E-18
5.610000E+03	8.202460E-17	8.325687E-18
5.620000E+03	8.184774E-17	8.285568E-18
5.630000E+03	8.167069E-17	8.243080E-18
5.640000E+03	8.149265E-17	8.198181E-18
5.650000E+03	8.131362E-17	8.150911E-18
5.660000E+03	8.113442E-17	8.101394E-18
5.670000E+03	8.095425E-17	8.049590E-18
5.680000E+03	8.077310E-17	7.995543E-18
5.690000E+03	8.059178E-17	7.939376E-18
5.700000E+03	8.040949E-17	7.881056E-18
5.710000E+03	8.022544E-17	7.820551E-18
5.720000E+03	8.004120E-17	7.758062E-18
5.730000E+03	7.985599E-17	7.693559E-18
5.740000E+03	7.966979E-17	7.627092E-18
5.750000E+03	7.948260E-17	7.558709E-18
5.760000E+03	7.929364E-17	7.488386E-18
5.770000E+03	7.910446E-17	7.416322E-18
5.780000E+03	7.891272E-17	7.342352E-18
5.790000E+03	7.872073E-17	7.266743E-18
5.800000E+03	7.852618E-17	7.189337E-18
5.810000E+03	7.833060E-17	7.110329E-18
5.820000E+03	7.813322E-17	7.029707E-18
5.830000E+03	7.793403E-17	6.947528E-18
5.840000E+03	7.773303E-17	6.863849E-18
5.850000E+03	7.753021E-17	6.778729E-18
5.860000E+03	7.732481E-17	6.692162E-18
5.870000E+03	7.711759E-17	6.604275E-18
5.880000E+03	7.690780E-17	6.515065E-18
5.890000E+03	7.669544E-17	6.424595E-18
5.900000E+03	7.648125E-17	6.332991E-18
5.910000E+03	7.626375E-17	6.240195E-18
5.920000E+03	7.604297E-17	6.146272E-18
5.930000E+03	7.581965E-17	6.051351E-18
5.940000E+03	7.559379E-17	5.955495E-18
5.950000E+03	7.536395E-17	5.858659E-18
5.960000E+03	7.513088E-17	5.760968E-18
5.970000E+03	7.489461E-17	5.662491E-18
5.980000E+03	7.465443E-17	5.563245E-18
5.990000E+03	7.441039E-17	5.463299E-18
6.000000E+03	7.416252E-17	5.362727E-18
6.010000E+03	7.391085E-17	5.261599E-18
6.020000E+03	7.365473E-17	5.159937E-18
6.030000E+03	7.339491E-17	5.057863E-18
6.040000E+03	7.313075E-17	4.955402E-18
6.050000E+03	7.286159E-17	4.852580E-18
6.060000E+03	7.258823E-17	4.749520E-18
6.070000E+03	7.231072E-17	4.646294E-18
6.080000E+03	7.202845E-17	4.542932E-18
6.090000E+03	7.174083E-17	4.439469E-18
6.100000E+03	7.144933E-17	4.336067E-18
6.110000E+03	7.115336E-17	4.232761E-18
6.120000E+03	7.085235E-17	4.129587E-18
6.130000E+03	7.054709E-17	4.026669E-18
6.140000E+03	7.023841E-17	3.924123E-18
6.150000E+03	6.992573E-17	3.821995E-18
6.160000E+03	6.960988E-17	3.720405E-18
6.170000E+03	6.929301E-17	3.619546E-18
6.180000E+03	6.897525E-17	3.519501E-18
6.190000E+03	6.865807E-17	3.420426E-18
6.200000E+03	6.833961E-17	3.322312E-18
6.210000E+03	6.801934E-17	3.225236E-18
6.220000E+03	6.769545E-17	3.129223E-18
6.230000E+03	6.736813E-17	3.034412E-18
6.240000E+03	6.703759E-17	2.940955E-18
6.250000E+03	6.670404E-17	2.849018E-18
6.260000E+03	6.636770E-17	2.758784E-18
6.270000E+03	6.602815E-17	2.670432E-18
6.280000E+03	6.568627E-17	2.584214E-18
6.290000E+03	6.534294E-17	2.500404E-18
6.300000E+03	6.499841E-17	2.419275E-18
6.310000E+03	6.465291E-17	2.341128E-18
6.320000E+03	6.430669E-17	2.266294E-18
6.330000E+03	6.396063E-17	2.195154E-18
6.340000E+03	6.361561E-17	2.128113E-18
6.350000E+03	6.327124E-17	2.065558E-18
6.360000E+03	6.292902E-17	2.007958E-18
6.370000E+03	6.258855E-17	1.955726E-18
6.380000E+03	6.225131E-17	1.909336E-18
6.390000E+03	6.191752E-17	1.869200E-18
6.400000E+03	6.158672E-17	1.835677E-18
6.410000E+03	6.126035E-17	1.809122E-18
6.420000E+03	6.093855E-17	1.789770E-18
6.430000E+03	6.062204E-17	1.777772E-18
6.440000E+03	6.030959E-17	1.773099E-18
6.450000E+03	6.000244E-17	1.775662E-18
6.460000E+03	5.970047E-17	1.785205E-18
6.470000E+03	5.940168E-17	1.801303E-18
6.480000E+03	5.910711E-17	1.823533E-18
6.490000E+03	5.881530E-17	1.851334E-18
6.500000E+03	5.852665E-17	1.884168E-18
6.510000E+03	5.824214E-17	1.921502E-18
6.520000E+03	5.796152E-17	1.962771E-18
6.530000E+03	5.768576E-17	2.007472E-18
6.540000E+03	5.741463E-17	2.055087E-18
6.550000E+03	5.714910E-17	2.105183E-18
6.560000E+03	5.688770E-17	2.157272E-18
6.570000E+03	5.663143E-17	2.210996E-18
6.580000E+03	5.637946E-17	2.265968E-18
6.590000E+03	5.613279E-17	2.321908E-18
6.600000E+03	5.589000E-17	2.378472E-18
6.610000E+03	5.565210E-17	2.435449E-18
6.620000E+03	5.541831E-17	2.492577E-18
6.630000E+03	5.518905E-17	2.549676E-18
6.640000E+03	5.496355E-17	2.606532E-18
6.650000E+03	5.474225E-17	2.663009E-18
6.660000E+03	5.452561E-17	2.718991E-18
6.670000E+03	5.431288E-17	2.774319E-18
6.680000E+03	5.410392E-17	2.828879E-18
6.690000E+03	5.389921E-17	2.882600E-18
6.700000E+03	5.369862E-17	2.935393E-18
6.710000E+03	5.350204E-17	2.987179E-18
6.720000E+03	5.330935E-17	3.037887E-18
6.730000E+03	5.312047E-17	3.087455E-18
6.740000E+03	5.293588E-17	3.135864E-18
6.750000E+03	5.275489E-17	3.183030E-18
6.760000E+03	5.257802E-17	3.228948E-18
6.770000E+03	5.240518E-17	3.273580E-18
6.780000E+03	5.223630E-17	3.316896E-18
6.790000E+03	5.207069E-17	3.358828E-18
6.800000E+03	5.190948E-17	3.399430E-18
6.810000E+03	5.175200E-17	3.438643E-18
6.820000E+03	5.159819E-17	3.476449E-18
6.830000E+03	5.144858E-17	3.512876E-18
6.840000E+03	5.130250E-17	3.547870E-18
6.850000E+03	5.115990E-17	3.581423E-18
6.860000E+03	5.102133E-17	3.613568E-18
6.870000E+03	5.088611E-17	3.644259E-18
6.880000E+03	5.075480E-17	3.673536E-18
6.890000E+03	5.062675E-17	3.701355E-18
6.900000E+03	5.050249E-17	3.727758E-18
6.910000E+03	5.038198E-17	3.752750E-18
6.920000E+03	5.026456E-17	3.776289E-18
6.930000E+03	5.015079E-17	3.798425E-18
6.940000E+03	5.004000E-17	3.819119E-18
6.950000E+03	4.993276E-17	3.838424E-18
6.960000E+03	4.982901E-17	3.856351E-18
6.970000E+03	4.972810E-17	3.872864E-18
6.980000E+03	4.962997E-17	3.887973E-18
6.990000E+03	4.953518E-17	3.901740E-18
7.000000E+03	4.944308E-17	3.914131E-18
7.010000E+03	4.935421E-17	3.925211E-18
7.020000E+03	4.926791E-17	3.934948E-18
7.030000E+03	4.918355E-17	3.943314E-18
7.040000E+03	4.910226E-17	3.950425E-18
7.050000E+03	4.902338E-17	3.956255E-18
7.060000E+03	4.894626E-17	3.960779E-18
7.070000E+03	4.887205E-17	3.964119E-18
7.080000E+03	4.879890E-17	3.966157E-18
7.090000E+03	4.872793E-17	3.967018E-18
7.100000E+03	4.865909E-17	3.966734E-18
7.110000E+03	4.859112E-17	3.965240E-18
7.120000E+03	4.852457E-17	3.962620E-18
7.130000E+03	4.845936E-17	3.958911E-18
7.140000E+03	4.839544E-17	3.954154E-18
7.150000E+03	4.833215E-17	3.948343E-18
7.160000E+03	4.826883E-17	3.941473E-18
7.170000E+03	4.820659E-17	3.933690E-18
7.180000E+03	4.814420E-17	3.924947E-18
7.190000E+03	4.808217E-17	3.915347E-18
7.200000E+03	4.801925E-17	3.904850E-18
7.210000E+03	4.795597E-17	3.893564E-18
7.220000E+03	4.789226E-17	3.881551E-18
7.230000E+03	4.782687E-17	3.868784E-18
7.240000E+03	4.776092E-17	3.855426E-18
7.250000E+03	4.769315E-17	3.841456E-18
7.260000E+03	4.762351E-17	3.826951E-18
7.270000E+03	4.755133E-17	3.811943E-18
7.280000E+03	4.747715E-17	3.796562E-18
7.290000E+03	4.740032E-17	3.780847E-18
7.300000E+03	4.732076E-17	3.764887E-18
7.310000E+03	4.723726E-17	3.748681E-18
7.320000E+03	4.715093E-17	3.732417E-18
7.330000E+03	4.706053E-17	3.716097E-18
7.340000E+03	4.696545E-17	3.699774E-18
7.350000E+03	4.686680E-17	3.683640E-18
7.360000E+03	4.676337E-17	3.667702E-18
7.370000E+03	4.665453E-17	3.652018E-18
7.380000E+03	4.654085E-17	3.636732E-18
7.390000E+03	4.642170E-17	3.621898E-18
7.400000E+03	4.629764E-17	3.607660E-18
7.410000E+03	4.616750E-17	3.594023E-18
7.420000E+03	4.603183E-17	3.581122E-18
7.430000E+03	4.589064E-17	3.569048E-18
7.440000E+03	4.574390E-17	3.557881E-18
7.450000E+03	4.559106E-17	3.547656E-18
7.460000E+03	4.543326E-17	3.538533E-18
7.470000E+03	4.526938E-17	3.530486E-18
7.480000E+03	4.510000E-17	3.523617E-18
7.490000E+03	4.492515E-17	3.517973E-18
7.500000E+03	4.474542E-17	3.513638E-18
7.510000E+03	4.456030E-17	3.510599E-18
7.520000E+03	4.437037E-17	3.508921E-18
7.530000E+03	4.417513E-17	3.508570E-18
7.540000E+03	4.397575E-17	3.509637E-18
7.550000E+03	4.377230E-17	3.512116E-18
7.560000E+03	4.356426E-17	3.515945E-18
7.570000E+03	4.335226E-17	3.521142E-18
7.580000E+03	4.313693E-17	3.527719E-18
7.590000E+03	4.291780E-17	3.535588E-18
7.600000E+03	4.269603E-17	3.544792E-18
7.610000E+03	4.247061E-17	3.555183E-18
7.620000E+03	4.224217E-17	3.566744E-18
7.630000E+03	4.201134E-17	3.579455E-18
7.640000E+03	4.177822E-17	3.593244E-18
7.650000E+03	4.154236E-17	3.607989E-18
7.660000E+03	4.130492E-17	3.623705E-18
7.670000E+03	4.106492E-17	3.640219E-18
7.680000E+03	4.082355E-17	3.657543E-18
7.690000E+03	4.058035E-17	3.675547E-18
7.700000E+03	4.033543E-17	3.694148E-18
7.710000E+03	4.008943E-17	3.713312E-18
7.720000E+03	3.984190E-17	3.732910E-18
7.730000E+03	3.959349E-17	3.752910E-18
7.740000E+03	3.934376E-17	3.773185E-18
7.750000E+03	3.909334E-17	3.793710E-18
7.760000E+03	3.884182E-17	3.814360E-18
