#wls	flux	fluxerr
1.600000E+03	3.136255E-18	1.267850E-18
1.640000E+03	3.168681E-18	1.270650E-18
1.680000E+03	3.202003E-18	1.273286E-18
1.720000E+03	3.237343E-18	1.276174E-18
1.760000E+03	3.274162E-18	1.279066E-18
1.800000E+03	3.311907E-18	1.281717E-18
1.840000E+03	3.351717E-18	1.284534E-18
1.880000E+03	3.393613E-18	1.287485E-18
1.920000E+03	3.437040E-18	1.290318E-18
1.960000E+03	3.482006E-18	1.292999E-18
2.000000E+03	3.529686E-18	1.295921E-18
2.040000E+03	3.579519E-18	1.298827E-18
2.080000E+03	3.631522E-18	1.301673E-18
2.120000E+03	3.685707E-18	1.304413E-18
2.160000E+03	3.743283E-18	1.307420E-18
2.200000E+03	3.803078E-18	1.310219E-18
2.240000E+03	3.865703E-18	1.312965E-18
2.280000E+03	3.931785E-18	1.315803E-18
2.320000E+03	4.000733E-18	1.318464E-18
2.360000E+03	4.073791E-18	1.321285E-18
2.400000E+03	4.149745E-18	1.323792E-18
2.440000E+03	4.230470E-18	1.326504E-18
2.480000E+03	4.314741E-18	1.328944E-18
2.520000E+03	4.403822E-18	1.331416E-18
2.560000E+03	4.497735E-18	1.333824E-18
2.600000E+03	4.596491E-18	1.336071E-18
2.640000E+03	4.700740E-18	1.338240E-18
2.680000E+03	4.809847E-18	1.340043E-18
2.720000E+03	4.925748E-18	1.341909E-18
2.760000E+03	5.047803E-18	1.343539E-18
2.800000E+03	5.176661E-18	1.344983E-18
2.840000E+03	5.312313E-18	1.346119E-18
2.880000E+03	5.455401E-18	1.346986E-18
2.920000E+03	5.606565E-18	1.347617E-18
2.960000E+03	5.766443E-18	1.348037E-18
3.000000E+03	5.935667E-18	1.348263E-18
3.010000E+03	5.979137E-18	1.348208E-18
3.020000E+03	6.023271E-18	1.348149E-18
3.030000E+03	6.068068E-18	1.348085E-18
3.040000E+03	6.113528E-18	1.348014E-18
3.050000E+03	6.159649E-18	1.347933E-18
3.060000E+03	6.206432E-18	1.347841E-18
3.070000E+03	6.253874E-18	1.347735E-18
3.080000E+03	6.301976E-18	1.347613E-18
3.090000E+03	6.350735E-18	1.347473E-18
3.100000E+03	6.400151E-18	1.347315E-18
3.110000E+03	6.450222E-18	1.347135E-18
3.120000E+03	6.500948E-18	1.346932E-18
3.130000E+03	6.552327E-18	1.346706E-18
3.140000E+03	6.604357E-18	1.346453E-18
3.150000E+03	6.657037E-18	1.346174E-18
3.160000E+03	6.710365E-18	1.345867E-18
3.170000E+03	6.765017E-18	1.345664E-18
3.180000E+03	6.819637E-18	1.345296E-18
3.190000E+03	6.875578E-18	1.345029E-18
3.200000E+03	6.932161E-18	1.344728E-18
3.210000E+03	6.989385E-18	1.344392E-18
3.220000E+03	7.047925E-18	1.344150E-18
3.230000E+03	7.106423E-18	1.343742E-18
3.240000E+03	7.166235E-18	1.343425E-18
3.250000E+03	7.226678E-18	1.343070E-18
3.260000E+03	7.288433E-18	1.342802E-18
3.270000E+03	7.350135E-18	1.342369E-18
3.280000E+03	7.413143E-18	1.342021E-18
3.290000E+03	7.477456E-18	1.341756E-18
3.300000E+03	7.541709E-18	1.341329E-18
3.310000E+03	7.607262E-18	1.340984E-18
3.320000E+03	7.674114E-18	1.340718E-18
3.330000E+03	7.741579E-18	1.340411E-18
3.340000E+03	7.809656E-18	1.340065E-18
3.350000E+03	7.878341E-18	1.339681E-18
3.360000E+03	7.948997E-18	1.339490E-18
3.370000E+03	8.019574E-18	1.339145E-18
3.380000E+03	8.091433E-18	1.338879E-18
3.390000E+03	8.164575E-18	1.338689E-18
3.400000E+03	8.238310E-18	1.338463E-18
3.410000E+03	8.313321E-18	1.338314E-18
3.420000E+03	8.388920E-18	1.338131E-18
3.430000E+03	8.465790E-18	1.338026E-18
3.440000E+03	8.543926E-18	1.337999E-18
3.450000E+03	8.622642E-18	1.337942E-18
3.460000E+03	8.701933E-18	1.337858E-18
3.470000E+03	8.783168E-18	1.337960E-18
3.480000E+03	8.864973E-18	1.338037E-18
3.490000E+03	8.948029E-18	1.338195E-18
3.500000E+03	9.031648E-18	1.338334E-18
3.510000E+03	9.116513E-18	1.338556E-18
3.520000E+03	9.202620E-18	1.338863E-18
3.530000E+03	9.289966E-18	1.339254E-18
3.540000E+03	9.378549E-18	1.339732E-18
3.550000E+03	9.467678E-18	1.340199E-18
3.560000E+03	9.558036E-18	1.340755E-18
3.570000E+03	9.649620E-18	1.341400E-18
3.580000E+03	9.742427E-18	1.342137E-18
3.590000E+03	9.835768E-18	1.342872E-18
3.600000E+03	9.931010E-18	1.343793E-18
3.610000E+03	1.002678E-17	1.344716E-18
3.620000E+03	1.012445E-17	1.345825E-18
3.630000E+03	1.022263E-17	1.346939E-18
3.640000E+03	1.032202E-17	1.348150E-18
3.650000E+03	1.042261E-17	1.349458E-18
3.660000E+03	1.052439E-17	1.350863E-18
3.670000E+03	1.062737E-17	1.352367E-18
3.680000E+03	1.073153E-17	1.353969E-18
3.690000E+03	1.083688E-17	1.355670E-18
3.700000E+03	1.094342E-17	1.357468E-18
3.710000E+03	1.105113E-17	1.359365E-18
3.720000E+03	1.116001E-17	1.361359E-18
3.730000E+03	1.127075E-17	1.363533E-18
3.740000E+03	1.138198E-17	1.365719E-18
3.750000E+03	1.149436E-17	1.368001E-18
3.760000E+03	1.160790E-17	1.370376E-18
3.770000E+03	1.172260E-17	1.372843E-18
3.780000E+03	1.183844E-17	1.375401E-18
3.790000E+03	1.195543E-17	1.378048E-18
3.800000E+03	1.207424E-17	1.380860E-18
3.810000E+03	1.219350E-17	1.383677E-18
3.820000E+03	1.231388E-17	1.386576E-18
3.830000E+03	1.243606E-17	1.389630E-18
3.840000E+03	1.255867E-17	1.392684E-18
3.850000E+03	1.268307E-17	1.395885E-18
3.860000E+03	1.280788E-17	1.399079E-18
3.870000E+03	1.293446E-17	1.402413E-18
3.880000E+03	1.306143E-17	1.405733E-18
3.890000E+03	1.318946E-17	1.409110E-18
3.900000E+03	1.331923E-17	1.412613E-18
3.910000E+03	1.344936E-17	1.416090E-18
3.920000E+03	1.358052E-17	1.419611E-18
3.930000E+03	1.371336E-17	1.423239E-18
3.940000E+03	1.384652E-17	1.426829E-18
3.950000E+03	1.398066E-17	1.430445E-18
3.960000E+03	1.411576E-17	1.434082E-18
3.970000E+03	1.425112E-17	1.437665E-18
3.980000E+03	1.438807E-17	1.441325E-18
3.990000E+03	1.452525E-17	1.444918E-18
4.000000E+03	1.466329E-17	1.448507E-18
4.010000E+03	1.480150E-17	1.452016E-18
4.020000E+03	1.494121E-17	1.455574E-18
4.030000E+03	1.508102E-17	1.459038E-18
4.040000E+03	1.522092E-17	1.462403E-18
4.050000E+03	1.536155E-17	1.465726E-18
4.060000E+03	1.550286E-17	1.468998E-18
4.070000E+03	1.564416E-17	1.472147E-18
4.080000E+03	1.578608E-17	1.475229E-18
4.090000E+03	1.592790E-17	1.478171E-18
4.100000E+03	1.606960E-17	1.480965E-18
4.110000E+03	1.621112E-17	1.483604E-18
4.120000E+03	1.635310E-17	1.486139E-18
4.130000E+03	1.649483E-17	1.488500E-18
4.140000E+03	1.663626E-17	1.490678E-18
4.150000E+03	1.677736E-17	1.492665E-18
4.160000E+03	1.691807E-17	1.494452E-18
4.170000E+03	1.705835E-17	1.496029E-18
4.180000E+03	1.719817E-17	1.497388E-18
4.190000E+03	1.733748E-17	1.498520E-18
4.200000E+03	1.747557E-17	1.499360E-18
4.210000E+03	1.761307E-17	1.499957E-18
4.220000E+03	1.774995E-17	1.500304E-18
4.230000E+03	1.788550E-17	1.500337E-18
4.240000E+03	1.802036E-17	1.500107E-18
4.250000E+03	1.815383E-17	1.499550E-18
4.260000E+03	1.828590E-17	1.498664E-18
4.270000E+03	1.841720E-17	1.497498E-18
4.280000E+03	1.854705E-17	1.495993E-18
4.290000E+03	1.867545E-17	1.494147E-18
4.300000E+03	1.880174E-17	1.491908E-18
4.310000E+03	1.892722E-17	1.489378E-18
4.320000E+03	1.905125E-17	1.486505E-18
4.330000E+03	1.917319E-17	1.483240E-18
4.340000E+03	1.929371E-17	1.479637E-18
4.350000E+03	1.941285E-17	1.475699E-18
4.360000E+03	1.952998E-17	1.471382E-18
4.370000E+03	1.964581E-17	1.466742E-18
4.380000E+03	1.975974E-17	1.461737E-18
4.390000E+03	1.987184E-17	1.456378E-18
4.400000E+03	1.998281E-17	1.450721E-18
4.410000E+03	2.009209E-17	1.444732E-18
4.420000E+03	2.019976E-17	1.438424E-18
4.430000E+03	2.030530E-17	1.431767E-18
4.440000E+03	2.041007E-17	1.424866E-18
4.450000E+03	2.051356E-17	1.417695E-18
4.460000E+03	2.061524E-17	1.410227E-18
4.470000E+03	2.071587E-17	1.402529E-18
4.480000E+03	2.081560E-17	1.394619E-18
4.490000E+03	2.091393E-17	1.386480E-18
4.500000E+03	2.101164E-17	1.378177E-18
4.510000E+03	2.110824E-17	1.369694E-18
4.520000E+03	2.120391E-17	1.361059E-18
4.530000E+03	2.129942E-17	1.352341E-18
4.540000E+03	2.139431E-17	1.343528E-18
4.550000E+03	2.148875E-17	1.334652E-18
4.560000E+03	2.158291E-17	1.325745E-18
4.570000E+03	2.167757E-17	1.316878E-18
4.580000E+03	2.177166E-17	1.308009E-18
4.590000E+03	2.186597E-17	1.299213E-18
4.600000E+03	2.196128E-17	1.290562E-18
4.610000E+03	2.205653E-17	1.282022E-18
4.620000E+03	2.215247E-17	1.273667E-18
4.630000E+03	2.224927E-17	1.265537E-18
4.640000E+03	2.234646E-17	1.257638E-18
4.650000E+03	2.244479E-17	1.250047E-18
4.660000E+03	2.254440E-17	1.242806E-18
4.670000E+03	2.264541E-17	1.235958E-18
4.680000E+03	2.274732E-17	1.229511E-18
4.690000E+03	2.285084E-17	1.223544E-18
4.700000E+03	2.295547E-17	1.218066E-18
4.710000E+03	2.306188E-17	1.213153E-18
4.720000E+03	2.316955E-17	1.208816E-18
4.730000E+03	2.327913E-17	1.205128E-18
4.740000E+03	2.339005E-17	1.202097E-18
4.750000E+03	2.350295E-17	1.199795E-18
4.760000E+03	2.361784E-17	1.198256E-18
4.770000E+03	2.373350E-17	1.197454E-18
4.780000E+03	2.385173E-17	1.197512E-18
4.790000E+03	2.397066E-17	1.198365E-18
4.800000E+03	2.409146E-17	1.200100E-18
4.810000E+03	2.421406E-17	1.202736E-18
4.820000E+03	2.433775E-17	1.206259E-18
4.830000E+03	2.446244E-17	1.210680E-18
4.840000E+03	2.458861E-17	1.216034E-18
4.850000E+03	2.471551E-17	1.222291E-18
4.860000E+03	2.484359E-17	1.229478E-18
4.870000E+03	2.497208E-17	1.237553E-18
4.880000E+03	2.510139E-17	1.246529E-18
4.890000E+03	2.523072E-17	1.256355E-18
4.900000E+03	2.536047E-17	1.267034E-18
4.910000E+03	2.548979E-17	1.278501E-18
4.920000E+03	2.561846E-17	1.290722E-18
4.930000E+03	2.574746E-17	1.303717E-18
4.940000E+03	2.587471E-17	1.317347E-18
4.950000E+03	2.600181E-17	1.331662E-18
4.960000E+03	2.612666E-17	1.346514E-18
4.970000E+03	2.625088E-17	1.361950E-18
4.980000E+03	2.637300E-17	1.377852E-18
4.990000E+03	2.649342E-17	1.394198E-18
5.000000E+03	2.661127E-17	1.410900E-18
5.010000E+03	2.672699E-17	1.427937E-18
5.020000E+03	2.684040E-17	1.445255E-18
5.030000E+03	2.695066E-17	1.462766E-18
5.040000E+03	2.705828E-17	1.480451E-18
5.050000E+03	2.716310E-17	1.498260E-18
5.060000E+03	2.726501E-17	1.516141E-18
5.070000E+03	2.736329E-17	1.534014E-18
5.080000E+03	2.745849E-17	1.551867E-18
5.090000E+03	2.755058E-17	1.569657E-18
5.100000E+03	2.763953E-17	1.587345E-18
5.110000E+03	2.772472E-17	1.604856E-18
5.120000E+03	2.780747E-17	1.622229E-18
5.130000E+03	2.788654E-17	1.639358E-18
5.140000E+03	2.796266E-17	1.656253E-18
5.150000E+03	2.803596E-17	1.672888E-18
5.160000E+03	2.810657E-17	1.689241E-18
5.170000E+03	2.817466E-17	1.705294E-18
5.180000E+03	2.824040E-17	1.721031E-18
5.190000E+03	2.830336E-17	1.736399E-18
5.200000E+03	2.836506E-17	1.751469E-18
5.210000E+03	2.842509E-17	1.766194E-18
5.220000E+03	2.848373E-17	1.780570E-18
5.230000E+03	2.854060E-17	1.794556E-18
5.240000E+03	2.859728E-17	1.808233E-18
5.250000E+03	2.865342E-17	1.821565E-18
5.260000E+03	2.870870E-17	1.834515E-18
5.270000E+03	2.876471E-17	1.847173E-18
5.280000E+03	2.882112E-17	1.859506E-18
5.290000E+03	2.887827E-17	1.871524E-18
5.300000E+03	2.893646E-17	1.883238E-18
5.310000E+03	2.899601E-17	1.894660E-18
5.320000E+03	2.905724E-17	1.905803E-18
5.330000E+03	2.912045E-17	1.916679E-18
5.340000E+03	2.918659E-17	1.927344E-18
5.350000E+03	2.925465E-17	1.937725E-18
5.360000E+03	2.932620E-17	1.947921E-18
5.370000E+03	2.940087E-17	1.957901E-18
5.380000E+03	2.947823E-17	1.967633E-18
5.390000E+03	2.956051E-17	1.977257E-18
5.400000E+03	2.964593E-17	1.986653E-18
5.410000E+03	2.973536E-17	1.995871E-18
5.420000E+03	2.982964E-17	2.004963E-18
5.430000E+03	2.992828E-17	2.013890E-18
5.440000E+03	3.003140E-17	2.022656E-18
5.450000E+03	3.013913E-17	2.031261E-18
5.460000E+03	3.025225E-17	2.039752E-18
5.470000E+03	3.037016E-17	2.048081E-18
5.480000E+03	3.049291E-17	2.056244E-18
5.490000E+03	3.062122E-17	2.064281E-18
5.500000E+03	3.075442E-17	2.072138E-18
5.510000E+03	3.089251E-17	2.079806E-18
5.520000E+03	3.103545E-17	2.087271E-18
5.530000E+03	3.118388E-17	2.094567E-18
5.540000E+03	3.133772E-17	2.101677E-18
5.550000E+03	3.149549E-17	2.108490E-18
5.560000E+03	3.165917E-17	2.115125E-18
5.570000E+03	3.182651E-17	2.121421E-18
5.580000E+03	3.199947E-17	2.127494E-18
5.590000E+03	3.217574E-17	2.133178E-18
5.600000E+03	3.235727E-17	2.138586E-18
5.610000E+03	3.254167E-17	2.143549E-18
5.620000E+03	3.273088E-17	2.148177E-18
5.630000E+03	3.292318E-17	2.152346E-18
5.640000E+03	3.311831E-17	2.156021E-18
5.650000E+03	3.331742E-17	2.159265E-18
5.660000E+03	3.351801E-17	2.161899E-18
5.670000E+03	3.372195E-17	2.164032E-18
5.680000E+03	3.392742E-17	2.165533E-18
5.690000E+03	3.413557E-17	2.166460E-18
5.700000E+03	3.434375E-17	2.166634E-18
5.710000E+03	3.455386E-17	2.166163E-18
5.720000E+03	3.476473E-17	2.164962E-18
5.730000E+03	3.497520E-17	2.162948E-18
5.740000E+03	3.518560E-17	2.160134E-18
5.750000E+03	3.539552E-17	2.156486E-18
5.760000E+03	3.560452E-17	2.151970E-18
5.770000E+03	3.581215E-17	2.146556E-18
5.780000E+03	3.601798E-17	2.140214E-18
5.790000E+03	3.622155E-17	2.132914E-18
5.800000E+03	3.642242E-17	2.124630E-18
5.810000E+03	3.662014E-17	2.115340E-18
5.820000E+03	3.681343E-17	2.104973E-18
5.830000E+03	3.700349E-17	2.093606E-18
5.840000E+03	3.718989E-17	2.081221E-18
5.850000E+03	3.737055E-17	2.067712E-18
5.860000E+03	3.754586E-17	2.053117E-18
5.870000E+03	3.771541E-17	2.037429E-18
5.880000E+03	3.787964E-17	2.020690E-18
5.890000E+03	3.803734E-17	2.002857E-18
5.900000E+03	3.818812E-17	1.983934E-18
5.910000E+03	3.833165E-17	1.963930E-18
5.920000E+03	3.846758E-17	1.942859E-18
5.930000E+03	3.859646E-17	1.920782E-18
5.940000E+03	3.871716E-17	1.897676E-18
5.950000E+03	3.882940E-17	1.873569E-18
5.960000E+03	3.893295E-17	1.848491E-18
5.970000E+03	3.902759E-17	1.822478E-18
5.980000E+03	3.911401E-17	1.795611E-18
5.990000E+03	3.919208E-17	1.767933E-18
6.000000E+03	3.925989E-17	1.739412E-18
6.010000E+03	3.931912E-17	1.710181E-18
6.020000E+03	3.936882E-17	1.680260E-18
6.030000E+03	3.940983E-17	1.649746E-18
6.040000E+03	3.944036E-17	1.618633E-18
6.050000E+03	3.946313E-17	1.587100E-18
6.060000E+03	3.947549E-17	1.555112E-18
6.070000E+03	3.947932E-17	1.522819E-18
6.080000E+03	3.947383E-17	1.490266E-18
6.090000E+03	3.946005E-17	1.457571E-18
6.100000E+03	3.943725E-17	1.424788E-18
6.110000E+03	3.940651E-17	1.392039E-18
6.120000E+03	3.936713E-17	1.359381E-18
6.130000E+03	3.931934E-17	1.326909E-18
6.140000E+03	3.926430E-17	1.294745E-18
6.150000E+03	3.920138E-17	1.262952E-18
6.160000E+03	3.913176E-17	1.231650E-18
6.170000E+03	3.905483E-17	1.200898E-18
6.180000E+03	3.897092E-17	1.170780E-18
6.190000E+03	3.888214E-17	1.141427E-18
6.200000E+03	3.878616E-17	1.112826E-18
6.210000E+03	3.868510E-17	1.085081E-18
6.220000E+03	3.857933E-17	1.058232E-18
6.230000E+03	3.846832E-17	1.032272E-18
6.240000E+03	3.835247E-17	1.007207E-18
6.250000E+03	3.823393E-17	9.830768E-19
6.260000E+03	3.811042E-17	9.597995E-19
6.270000E+03	3.798498E-17	9.374322E-19
6.280000E+03	3.785534E-17	9.159038E-19
6.290000E+03	3.772452E-17	8.952866E-19
6.300000E+03	3.759111E-17	8.755600E-19
6.310000E+03	3.745633E-17	8.567868E-19
6.320000E+03	3.731964E-17	8.390107E-19
6.330000E+03	3.718225E-17	8.223391E-19
6.340000E+03	3.704357E-17	8.068651E-19
6.350000E+03	3.690564E-17	7.927635E-19
6.360000E+03	3.676699E-17	7.801553E-19
6.370000E+03	3.662787E-17	7.692193E-19
6.380000E+03	3.649025E-17	7.601835E-19
6.390000E+03	3.635263E-17	7.532084E-19
6.400000E+03	3.621605E-17	7.485045E-19
6.410000E+03	3.607986E-17	7.462303E-19
6.420000E+03	3.594593E-17	7.465673E-19
6.430000E+03	3.581270E-17	7.495824E-19
6.440000E+03	3.568118E-17	7.553391E-19
6.450000E+03	3.555149E-17	7.638189E-19
6.460000E+03	3.542377E-17	7.749393E-19
6.470000E+03	3.529812E-17	7.885617E-19
6.480000E+03	3.517465E-17	8.045055E-19
6.490000E+03	3.505344E-17	8.225616E-19
6.500000E+03	3.493373E-17	8.424849E-19
6.510000E+03	3.481726E-17	8.640857E-19
6.520000E+03	3.470325E-17	8.871167E-19
6.530000E+03	3.459089E-17	9.113368E-19
6.540000E+03	3.448188E-17	9.365824E-19
6.550000E+03	3.437540E-17	9.626393E-19
6.560000E+03	3.427144E-17	9.893300E-19
6.570000E+03	3.417001E-17	1.016492E-18
6.580000E+03	3.407108E-17	1.043980E-18
6.590000E+03	3.397546E-17	1.071685E-18
6.600000E+03	3.388227E-17	1.099466E-18
6.610000E+03	3.379065E-17	1.127187E-18
6.620000E+03	3.370219E-17	1.154807E-18
6.630000E+03	3.361685E-17	1.182243E-18
6.640000E+03	3.353289E-17	1.209360E-18
6.650000E+03	3.345190E-17	1.236151E-18
6.660000E+03	3.337381E-17	1.262555E-18
6.670000E+03	3.329687E-17	1.288457E-18
6.680000E+03	3.322267E-17	1.313870E-18
6.690000E+03	3.315110E-17	1.338752E-18
6.700000E+03	3.308042E-17	1.362998E-18
6.710000E+03	3.301219E-17	1.386640E-18
6.720000E+03	3.294631E-17	1.409647E-18
6.730000E+03	3.288186E-17	1.431957E-18
6.740000E+03	3.281954E-17	1.453580E-18
6.750000E+03	3.275844E-17	1.474456E-18
6.760000E+03	3.269845E-17	1.494564E-18
6.770000E+03	3.264029E-17	1.513922E-18
6.780000E+03	3.258383E-17	1.532514E-18
6.790000E+03	3.252817E-17	1.550287E-18
6.800000E+03	3.247318E-17	1.567225E-18
6.810000E+03	3.242040E-17	1.583395E-18
6.820000E+03	3.236725E-17	1.598666E-18
6.830000E+03	3.231610E-17	1.613148E-18
6.840000E+03	3.226519E-17	1.626752E-18
6.850000E+03	3.221442E-17	1.639467E-18
6.860000E+03	3.216450E-17	1.651327E-18
6.870000E+03	3.211534E-17	1.662328E-18
6.880000E+03	3.206600E-17	1.672420E-18
6.890000E+03	3.201721E-17	1.681642E-18
6.900000E+03	3.196887E-17	1.689989E-18
6.910000E+03	3.192008E-17	1.697415E-18
6.920000E+03	3.187156E-17	1.703962E-18
6.930000E+03	3.182241E-17	1.709583E-18
6.940000E+03	3.177337E-17	1.714322E-18
6.950000E+03	3.172353E-17	1.718136E-18
6.960000E+03	3.167446E-17	1.721113E-18
6.970000E+03	3.162365E-17	1.723123E-18
6.980000E+03	3.157348E-17	1.724301E-18
6.990000E+03	3.152145E-17	1.724518E-18
7.000000E+03	3.146996E-17	1.723912E-18
7.010000E+03	3.141732E-17	1.722399E-18
7.020000E+03	3.136351E-17	1.719986E-18
7.030000E+03	3.130932E-17	1.716723E-18
7.040000E+03	3.125472E-17	1.712621E-18
7.050000E+03	3.119888E-17	1.707642E-18
7.060000E+03	3.114180E-17	1.701797E-18
7.070000E+03	3.108429E-17	1.695143E-18
7.080000E+03	3.102637E-17	1.687690E-18
7.090000E+03	3.096724E-17	1.679407E-18
7.100000E+03	3.090694E-17	1.670308E-18
7.110000E+03	3.084549E-17	1.660409E-18
7.120000E+03	3.078455E-17	1.649812E-18
7.130000E+03	3.072175E-17	1.638404E-18
7.140000E+03	3.065877E-17	1.626290E-18
7.150000E+03	3.059486E-17	1.613444E-18
7.160000E+03	3.053010E-17	1.599888E-18
7.170000E+03	3.046456E-17	1.585643E-18
7.180000E+03	3.039912E-17	1.570773E-18
7.190000E+03	3.033307E-17	1.555259E-18
7.200000E+03	3.026731E-17	1.539166E-18
7.210000E+03	3.020032E-17	1.522440E-18
7.220000E+03	3.013301E-17	1.505150E-18
7.230000E+03	3.006627E-17	1.487363E-18
7.240000E+03	2.999941E-17	1.469071E-18
7.250000E+03	2.993252E-17	1.450306E-18
7.260000E+03	2.986492E-17	1.431065E-18
7.270000E+03	2.979828E-17	1.411461E-18
7.280000E+03	2.973192E-17	1.391496E-18
7.290000E+03	2.966593E-17	1.371211E-18
7.300000E+03	2.959962E-17	1.350615E-18
7.310000E+03	2.953464E-17	1.329830E-18
7.320000E+03	2.947030E-17	1.308869E-18
7.330000E+03	2.940589E-17	1.287755E-18
7.340000E+03	2.934227E-17	1.266582E-18
7.350000E+03	2.927950E-17	1.245414E-18
7.360000E+03	2.921765E-17	1.224322E-18
7.370000E+03	2.915677E-17	1.203378E-18
7.380000E+03	2.909613E-17	1.182631E-18
7.390000E+03	2.903655E-17	1.162199E-18
7.400000E+03	2.897805E-17	1.142174E-18
7.410000E+03	2.891990E-17	1.122621E-18
7.420000E+03	2.886288E-17	1.103676E-18
7.430000E+03	2.880701E-17	1.085446E-18
7.440000E+03	2.875150E-17	1.068015E-18
7.450000E+03	2.869713E-17	1.051530E-18
7.460000E+03	2.864311E-17	1.036084E-18
7.470000E+03	2.859020E-17	1.021826E-18
7.480000E+03	2.853760E-17	1.008850E-18
7.490000E+03	2.848605E-17	9.973014E-19
7.500000E+03	2.843551E-17	9.872931E-19
7.510000E+03	2.838439E-17	9.788746E-19
7.520000E+03	2.833498E-17	9.722171E-19
7.530000E+03	2.828492E-17	9.673155E-19
7.540000E+03	2.823647E-17	9.643033E-19
7.550000E+03	2.818730E-17	9.631323E-19
7.560000E+03	2.813892E-17	9.638600E-19
7.570000E+03	2.809054E-17	9.664392E-19
7.580000E+03	2.804293E-17	9.708514E-19
7.590000E+03	2.799531E-17	9.770046E-19
7.600000E+03	2.794768E-17	9.848155E-19
7.610000E+03	2.790079E-17	9.942145E-19
7.620000E+03	2.785389E-17	1.005068E-18
7.630000E+03	2.780695E-17	1.017260E-18
7.640000E+03	2.775998E-17	1.030674E-18
7.650000E+03	2.771372E-17	1.045216E-18
7.660000E+03	2.766741E-17	1.060738E-18
7.670000E+03	2.762101E-17	1.077122E-18
7.680000E+03	2.757528E-17	1.094281E-18
7.690000E+03	2.752867E-17	1.112045E-18
7.700000E+03	2.748268E-17	1.130367E-18
7.710000E+03	2.743653E-17	1.149116E-18
7.720000E+03	2.739019E-17	1.168195E-18
7.730000E+03	2.734440E-17	1.187548E-18
7.740000E+03	2.729759E-17	1.207025E-18
7.750000E+03	2.725128E-17	1.226613E-18
7.760000E+03	2.720467E-17	1.246205E-18
