#wls	flux	fluxerr
1.600000E+03	2.961641E-18	1.193568E-18
1.640000E+03	2.993860E-18	1.196623E-18
1.680000E+03	3.027532E-18	1.199738E-18
1.720000E+03	3.062151E-18	1.202682E-18
1.760000E+03	3.098255E-18	1.205636E-18
1.800000E+03	3.135861E-18	1.208574E-18
1.840000E+03	3.174987E-18	1.211468E-18
1.880000E+03	3.215651E-18	1.214289E-18
1.920000E+03	3.258413E-18	1.217207E-18
1.960000E+03	3.302752E-18	1.219986E-18
2.000000E+03	3.349237E-18	1.222791E-18
2.040000E+03	3.397893E-18	1.225584E-18
2.080000E+03	3.448745E-18	1.228322E-18
2.120000E+03	3.501817E-18	1.230961E-18
2.160000E+03	3.557133E-18	1.233455E-18
2.200000E+03	3.615287E-18	1.235952E-18
2.240000E+03	3.675735E-18	1.238201E-18
2.280000E+03	3.739656E-18	1.240536E-18
2.320000E+03	3.806507E-18	1.242699E-18
2.360000E+03	3.876316E-18	1.244629E-18
2.400000E+03	3.949700E-18	1.246446E-18
2.440000E+03	4.026694E-18	1.248077E-18
2.480000E+03	4.107331E-18	1.249445E-18
2.520000E+03	4.192245E-18	1.250653E-18
2.560000E+03	4.281474E-18	1.251611E-18
2.600000E+03	4.375053E-18	1.252229E-18
2.640000E+03	4.473013E-18	1.252415E-18
2.680000E+03	4.576622E-18	1.252414E-18
2.720000E+03	4.685302E-18	1.251950E-18
2.760000E+03	4.800337E-18	1.251244E-18
2.800000E+03	4.920513E-18	1.249855E-18
2.840000E+03	5.047118E-18	1.247995E-18
2.880000E+03	5.180825E-18	1.245700E-18
2.920000E+03	5.321033E-18	1.242696E-18
2.960000E+03	5.469053E-18	1.239165E-18
3.000000E+03	5.624921E-18	1.234986E-18
3.010000E+03	5.664975E-18	1.233795E-18
3.020000E+03	5.705725E-18	1.232599E-18
3.030000E+03	5.747172E-18	1.231396E-18
3.040000E+03	5.788664E-18	1.230045E-18
3.050000E+03	5.831507E-18	1.228821E-18
3.060000E+03	5.874396E-18	1.227445E-18
3.070000E+03	5.917327E-18	1.225919E-18
3.080000E+03	5.961614E-18	1.224513E-18
3.090000E+03	6.005944E-18	1.222953E-18
3.100000E+03	6.051633E-18	1.221507E-18
3.110000E+03	6.097366E-18	1.219906E-18
3.120000E+03	6.143141E-18	1.218151E-18
3.130000E+03	6.190277E-18	1.216503E-18
3.140000E+03	6.238117E-18	1.214829E-18
3.150000E+03	6.285998E-18	1.212998E-18
3.160000E+03	6.334582E-18	1.211140E-18
3.170000E+03	6.384534E-18	1.209378E-18
3.180000E+03	6.434527E-18	1.207459E-18
3.190000E+03	6.485225E-18	1.205509E-18
3.200000E+03	6.536627E-18	1.203526E-18
3.210000E+03	6.588736E-18	1.201509E-18
3.220000E+03	6.640882E-18	1.199338E-18
3.230000E+03	6.694403E-18	1.197253E-18
3.240000E+03	6.748630E-18	1.195133E-18
3.250000E+03	6.803564E-18	1.192977E-18
3.260000E+03	6.858535E-18	1.190668E-18
3.270000E+03	6.914884E-18	1.188441E-18
3.280000E+03	6.971940E-18	1.186178E-18
3.290000E+03	7.029032E-18	1.183766E-18
3.300000E+03	7.087505E-18	1.181433E-18
3.310000E+03	7.146687E-18	1.179065E-18
3.320000E+03	7.206577E-18	1.176663E-18
3.330000E+03	7.267177E-18	1.174229E-18
3.340000E+03	7.328485E-18	1.171762E-18
3.350000E+03	7.390504E-18	1.169266E-18
3.360000E+03	7.453232E-18	1.166740E-18
3.370000E+03	7.516669E-18	1.164188E-18
3.380000E+03	7.581496E-18	1.161714E-18
3.390000E+03	7.646355E-18	1.159112E-18
3.400000E+03	7.712604E-18	1.156592E-18
3.410000E+03	7.779565E-18	1.154051E-18
3.420000E+03	7.847239E-18	1.151493E-18
3.430000E+03	7.915625E-18	1.148920E-18
3.440000E+03	7.985406E-18	1.146434E-18
3.450000E+03	8.055219E-18	1.143840E-18
3.460000E+03	8.126430E-18	1.141338E-18
3.470000E+03	8.198356E-18	1.138832E-18
3.480000E+03	8.270998E-18	1.136327E-18
3.490000E+03	8.345043E-18	1.133920E-18
3.500000E+03	8.419806E-18	1.131520E-18
3.510000E+03	8.495289E-18	1.129130E-18
3.520000E+03	8.571492E-18	1.126756E-18
3.530000E+03	8.648417E-18	1.124402E-18
3.540000E+03	8.726752E-18	1.122161E-18
3.550000E+03	8.805813E-18	1.119947E-18
3.560000E+03	8.886290E-18	1.117852E-18
3.570000E+03	8.966806E-18	1.115706E-18
3.580000E+03	9.048743E-18	1.113686E-18
3.590000E+03	9.132103E-18	1.111795E-18
3.600000E+03	9.215508E-18	1.109868E-18
3.610000E+03	9.300342E-18	1.108078E-18
3.620000E+03	9.386610E-18	1.106427E-18
3.630000E+03	9.472929E-18	1.104755E-18
3.640000E+03	9.560688E-18	1.103230E-18
3.650000E+03	9.649892E-18	1.101853E-18
3.660000E+03	9.739850E-18	1.100548E-18
3.670000E+03	9.830567E-18	1.099319E-18
3.680000E+03	9.922046E-18	1.098171E-18
3.690000E+03	1.001499E-17	1.097183E-18
3.700000E+03	1.010870E-17	1.096281E-18
3.710000E+03	1.020388E-17	1.095543E-18
3.720000E+03	1.029985E-17	1.094897E-18
3.730000E+03	1.039660E-17	1.094345E-18
3.740000E+03	1.049484E-17	1.093963E-18
3.750000E+03	1.059387E-17	1.093678E-18
3.760000E+03	1.069371E-17	1.093495E-18
3.770000E+03	1.079505E-17	1.093484E-18
3.780000E+03	1.089721E-17	1.093576E-18
3.790000E+03	1.100089E-17	1.093841E-18
3.800000E+03	1.110468E-17	1.094141E-18
3.810000E+03	1.121072E-17	1.094684E-18
3.820000E+03	1.131688E-17	1.095264E-18
3.830000E+03	1.142459E-17	1.096016E-18
3.840000E+03	1.153314E-17	1.096873E-18
3.850000E+03	1.164324E-17	1.097901E-18
3.860000E+03	1.175420E-17	1.099032E-18
3.870000E+03	1.186601E-17	1.100266E-18
3.880000E+03	1.197869E-17	1.101601E-18
3.890000E+03	1.209293E-17	1.103101E-18
3.900000E+03	1.220803E-17	1.104701E-18
3.910000E+03	1.232400E-17	1.106397E-18
3.920000E+03	1.244083E-17	1.108189E-18
3.930000E+03	1.255923E-17	1.110137E-18
3.940000E+03	1.267849E-17	1.112176E-18
3.950000E+03	1.279860E-17	1.114304E-18
3.960000E+03	1.291956E-17	1.116518E-18
3.970000E+03	1.304135E-17	1.118816E-18
3.980000E+03	1.316469E-17	1.121255E-18
3.990000E+03	1.328813E-17	1.123710E-18
4.000000E+03	1.341309E-17	1.126299E-18
4.010000E+03	1.353883E-17	1.128958E-18
4.020000E+03	1.366464E-17	1.131622E-18
4.030000E+03	1.379190E-17	1.134407E-18
4.040000E+03	1.391988E-17	1.137247E-18
4.050000E+03	1.404785E-17	1.140079E-18
4.060000E+03	1.417720E-17	1.143015E-18
4.070000E+03	1.430647E-17	1.145931E-18
4.080000E+03	1.443634E-17	1.148879E-18
4.090000E+03	1.456677E-17	1.151853E-18
4.100000E+03	1.469772E-17	1.154843E-18
4.110000E+03	1.482844E-17	1.157787E-18
4.120000E+03	1.496029E-17	1.160787E-18
4.130000E+03	1.509181E-17	1.163722E-18
4.140000E+03	1.522294E-17	1.166585E-18
4.150000E+03	1.535435E-17	1.169420E-18
4.160000E+03	1.548596E-17	1.172217E-18
4.170000E+03	1.561701E-17	1.174911E-18
4.180000E+03	1.574816E-17	1.177547E-18
4.190000E+03	1.587862E-17	1.180058E-18
4.200000E+03	1.600833E-17	1.182436E-18
4.210000E+03	1.613795E-17	1.184722E-18
4.220000E+03	1.626669E-17	1.186853E-18
4.230000E+03	1.639520E-17	1.188871E-18
4.240000E+03	1.652200E-17	1.190660E-18
4.250000E+03	1.664845E-17	1.192317E-18
4.260000E+03	1.677378E-17	1.193778E-18
4.270000E+03	1.689794E-17	1.195037E-18
4.280000E+03	1.702088E-17	1.196085E-18
4.290000E+03	1.714255E-17	1.196915E-18
4.300000E+03	1.726291E-17	1.197522E-18
4.310000E+03	1.738193E-17	1.197899E-18
4.320000E+03	1.749958E-17	1.198042E-18
4.330000E+03	1.761513E-17	1.197901E-18
4.340000E+03	1.772929E-17	1.197522E-18
4.350000E+03	1.784205E-17	1.196905E-18
4.360000E+03	1.795342E-17	1.196050E-18
4.370000E+03	1.806271E-17	1.194912E-18
4.380000E+03	1.816994E-17	1.193496E-18
4.390000E+03	1.827659E-17	1.191900E-18
4.400000E+03	1.838056E-17	1.189990E-18
4.410000E+03	1.848335E-17	1.187868E-18
4.420000E+03	1.858503E-17	1.185542E-18
4.430000E+03	1.868427E-17	1.182933E-18
4.440000E+03	1.878259E-17	1.180143E-18
4.450000E+03	1.888008E-17	1.177184E-18
4.460000E+03	1.897547E-17	1.173983E-18
4.470000E+03	1.906959E-17	1.170601E-18
4.480000E+03	1.916327E-17	1.167097E-18
4.490000E+03	1.925598E-17	1.163445E-18
4.500000E+03	1.934716E-17	1.159624E-18
4.510000E+03	1.943839E-17	1.155737E-18
4.520000E+03	1.952844E-17	1.151722E-18
4.530000E+03	1.961889E-17	1.147683E-18
4.540000E+03	1.970851E-17	1.143562E-18
4.550000E+03	1.979820E-17	1.139422E-18
4.560000E+03	1.988815E-17	1.135286E-18
4.570000E+03	1.997785E-17	1.131141E-18
4.580000E+03	2.006889E-17	1.127090E-18
4.590000E+03	2.016005E-17	1.123080E-18
4.600000E+03	2.025153E-17	1.119138E-18
4.610000E+03	2.034421E-17	1.115327E-18
4.620000E+03	2.043825E-17	1.111675E-18
4.630000E+03	2.053314E-17	1.108171E-18
4.640000E+03	2.062973E-17	1.104878E-18
4.650000E+03	2.072749E-17	1.101787E-18
4.660000E+03	2.082723E-17	1.098960E-18
4.670000E+03	2.092841E-17	1.096387E-18
4.680000E+03	2.103183E-17	1.094132E-18
4.690000E+03	2.113690E-17	1.092182E-18
4.700000E+03	2.124440E-17	1.090601E-18
4.710000E+03	2.135302E-17	1.089340E-18
4.720000E+03	2.146418E-17	1.088495E-18
4.730000E+03	2.157793E-17	1.088088E-18
4.740000E+03	2.169359E-17	1.088105E-18
4.750000E+03	2.181116E-17	1.088567E-18
4.760000E+03	2.193059E-17	1.089492E-18
4.770000E+03	2.205254E-17	1.090933E-18
4.780000E+03	2.217624E-17	1.092869E-18
4.790000E+03	2.230160E-17	1.095314E-18
4.800000E+03	2.242849E-17	1.098278E-18
4.810000E+03	2.255748E-17	1.101804E-18
4.820000E+03	2.268770E-17	1.105864E-18
4.830000E+03	2.281896E-17	1.110461E-18
4.840000E+03	2.295105E-17	1.115594E-18
4.850000E+03	2.308444E-17	1.121294E-18
4.860000E+03	2.321818E-17	1.127520E-18
4.870000E+03	2.335199E-17	1.134263E-18
4.880000E+03	2.348556E-17	1.141509E-18
4.890000E+03	2.361931E-17	1.149274E-18
4.900000E+03	2.375147E-17	1.157470E-18
4.910000E+03	2.388312E-17	1.166141E-18
4.920000E+03	2.401320E-17	1.175227E-18
4.930000E+03	2.414208E-17	1.184731E-18
4.940000E+03	2.426793E-17	1.194552E-18
4.950000E+03	2.439184E-17	1.204725E-18
4.960000E+03	2.451272E-17	1.215178E-18
4.970000E+03	2.463094E-17	1.225909E-18
4.980000E+03	2.474470E-17	1.236806E-18
4.990000E+03	2.485511E-17	1.247900E-18
5.000000E+03	2.496114E-17	1.259114E-18
5.010000E+03	2.506321E-17	1.270442E-18
5.020000E+03	2.515959E-17	1.281769E-18
5.030000E+03	2.525150E-17	1.293129E-18
5.040000E+03	2.533873E-17	1.304480E-18
5.050000E+03	2.541962E-17	1.315709E-18
5.060000E+03	2.549551E-17	1.326854E-18
5.070000E+03	2.556556E-17	1.337840E-18
5.080000E+03	2.563043E-17	1.348674E-18
5.090000E+03	2.568937E-17	1.359285E-18
5.100000E+03	2.574239E-17	1.369645E-18
5.110000E+03	2.579031E-17	1.379769E-18
5.120000E+03	2.583176E-17	1.389555E-18
5.130000E+03	2.586910E-17	1.399103E-18
5.140000E+03	2.590031E-17	1.408279E-18
5.150000E+03	2.592784E-17	1.417192E-18
5.160000E+03	2.594975E-17	1.425712E-18
5.170000E+03	2.596784E-17	1.433916E-18
5.180000E+03	2.598171E-17	1.441761E-18
5.190000E+03	2.599247E-17	1.449292E-18
5.200000E+03	2.599980E-17	1.456473E-18
5.210000E+03	2.600487E-17	1.463352E-18
5.220000E+03	2.600739E-17	1.469902E-18
5.230000E+03	2.600785E-17	1.476135E-18
5.240000E+03	2.600745E-17	1.482111E-18
5.250000E+03	2.600669E-17	1.487847E-18
5.260000E+03	2.600534E-17	1.493323E-18
5.270000E+03	2.600465E-17	1.498604E-18
5.280000E+03	2.600439E-17	1.503670E-18
5.290000E+03	2.600507E-17	1.508547E-18
5.300000E+03	2.600789E-17	1.513301E-18
5.310000E+03	2.601336E-17	1.517959E-18
5.320000E+03	2.602121E-17	1.522503E-18
5.330000E+03	2.603262E-17	1.527002E-18
5.340000E+03	2.604732E-17	1.531439E-18
5.350000E+03	2.606643E-17	1.535879E-18
5.360000E+03	2.609036E-17	1.540346E-18
5.370000E+03	2.611875E-17	1.544821E-18
5.380000E+03	2.615196E-17	1.549322E-18
5.390000E+03	2.619174E-17	1.553955E-18
5.400000E+03	2.623694E-17	1.558652E-18
5.410000E+03	2.628784E-17	1.563427E-18
5.420000E+03	2.634611E-17	1.568380E-18
5.430000E+03	2.641052E-17	1.573436E-18
5.440000E+03	2.648124E-17	1.578602E-18
5.450000E+03	2.655989E-17	1.583973E-18
5.460000E+03	2.664512E-17	1.589466E-18
5.470000E+03	2.673704E-17	1.595081E-18
5.480000E+03	2.683717E-17	1.600905E-18
5.490000E+03	2.694409E-17	1.606847E-18
5.500000E+03	2.705854E-17	1.612944E-18
5.510000E+03	2.718052E-17	1.619189E-18
5.520000E+03	2.730998E-17	1.625569E-18
5.530000E+03	2.744611E-17	1.632028E-18
5.540000E+03	2.758958E-17	1.638593E-18
5.550000E+03	2.774026E-17	1.645246E-18
5.560000E+03	2.789801E-17	1.651967E-18
5.570000E+03	2.806269E-17	1.658732E-18
5.580000E+03	2.823334E-17	1.665471E-18
5.590000E+03	2.841128E-17	1.672249E-18
5.600000E+03	2.859476E-17	1.678944E-18
5.610000E+03	2.878428E-17	1.685572E-18
5.620000E+03	2.897958E-17	1.692099E-18
5.630000E+03	2.918116E-17	1.698539E-18
5.640000E+03	2.938713E-17	1.704763E-18
5.650000E+03	2.959794E-17	1.710780E-18
5.660000E+03	2.981324E-17	1.716553E-18
5.670000E+03	3.003267E-17	1.722041E-18
5.680000E+03	3.025582E-17	1.727206E-18
5.690000E+03	3.048230E-17	1.732007E-18
5.700000E+03	3.071167E-17	1.736402E-18
5.710000E+03	3.094349E-17	1.740351E-18
5.720000E+03	3.117814E-17	1.743859E-18
5.730000E+03	3.141347E-17	1.746791E-18
5.740000E+03	3.165068E-17	1.749200E-18
5.750000E+03	3.188755E-17	1.750951E-18
5.760000E+03	3.212529E-17	1.752100E-18
5.770000E+03	3.236252E-17	1.752561E-18
5.780000E+03	3.259868E-17	1.752296E-18
5.790000E+03	3.283325E-17	1.751269E-18
5.800000E+03	3.306657E-17	1.749494E-18
5.810000E+03	3.329720E-17	1.746891E-18
5.820000E+03	3.352457E-17	1.743429E-18
5.830000E+03	3.374812E-17	1.739081E-18
5.840000E+03	3.396731E-17	1.733820E-18
5.850000E+03	3.418251E-17	1.727673E-18
5.860000E+03	3.439226E-17	1.720572E-18
5.870000E+03	3.459603E-17	1.712500E-18
5.880000E+03	3.479423E-17	1.703490E-18
5.890000E+03	3.498543E-17	1.693488E-18
5.900000E+03	3.516913E-17	1.682485E-18
5.910000E+03	3.534583E-17	1.670527E-18
5.920000E+03	3.551412E-17	1.657569E-18
5.930000E+03	3.567358E-17	1.643616E-18
5.940000E+03	3.582478E-17	1.628724E-18
5.950000E+03	3.596640E-17	1.612861E-18
5.960000E+03	3.609908E-17	1.596090E-18
5.970000E+03	3.622154E-17	1.578390E-18
5.980000E+03	3.633350E-17	1.559786E-18
5.990000E+03	3.643574E-17	1.540355E-18
6.000000E+03	3.652706E-17	1.520088E-18
6.010000E+03	3.660832E-17	1.499066E-18
6.020000E+03	3.667839E-17	1.477292E-18
6.030000E+03	3.673823E-17	1.454854E-18
6.040000E+03	3.678676E-17	1.431763E-18
6.050000E+03	3.682503E-17	1.408113E-18
6.060000E+03	3.685206E-17	1.383925E-18
6.070000E+03	3.686894E-17	1.359298E-18
6.080000E+03	3.687479E-17	1.334260E-18
6.090000E+03	3.687077E-17	1.308915E-18
6.100000E+03	3.685607E-17	1.283297E-18
6.110000E+03	3.683192E-17	1.257514E-18
6.120000E+03	3.679860E-17	1.231638E-18
6.130000E+03	3.675535E-17	1.205710E-18
6.140000E+03	3.670248E-17	1.179805E-18
6.150000E+03	3.664241E-17	1.154065E-18
6.160000E+03	3.657238E-17	1.128465E-18
6.170000E+03	3.649587E-17	1.103176E-18
6.180000E+03	3.641122E-17	1.078201E-18
6.190000E+03	3.631987E-17	1.053637E-18
6.200000E+03	3.622120E-17	1.029511E-18
6.210000E+03	3.611670E-17	1.005903E-18
6.220000E+03	3.600680E-17	9.828486E-19
6.230000E+03	3.589094E-17	9.603439E-19
6.240000E+03	3.577060E-17	9.384299E-19
6.250000E+03	3.564626E-17	9.171115E-19
6.260000E+03	3.551736E-17	8.963657E-19
6.270000E+03	3.538538E-17	8.762245E-19
6.280000E+03	3.525077E-17	8.567001E-19
6.290000E+03	3.511394E-17	8.378153E-19
6.300000E+03	3.497433E-17	8.195836E-19
6.310000E+03	3.483334E-17	8.020826E-19
6.320000E+03	3.469135E-17	7.853841E-19
6.330000E+03	3.454772E-17	7.695575E-19
6.340000E+03	3.440479E-17	7.547595E-19
6.350000E+03	3.426088E-17	7.410784E-19
6.360000E+03	3.411728E-17	7.286866E-19
6.370000E+03	3.397427E-17	7.177494E-19
6.380000E+03	3.383208E-17	7.084425E-19
6.390000E+03	3.368998E-17	7.009249E-19
6.400000E+03	3.354916E-17	6.953910E-19
6.410000E+03	3.341076E-17	6.920192E-19
6.420000E+03	3.327302E-17	6.908999E-19
6.430000E+03	3.313706E-17	6.921438E-19
6.440000E+03	3.300302E-17	6.957904E-19
6.450000E+03	3.287103E-17	7.018204E-19
6.460000E+03	3.274026E-17	7.101359E-19
6.470000E+03	3.261272E-17	7.206501E-19
6.480000E+03	3.248754E-17	7.331764E-19
6.490000E+03	3.236387E-17	7.475015E-19
6.500000E+03	3.224367E-17	7.634635E-19
6.510000E+03	3.212604E-17	7.808317E-19
6.520000E+03	3.201010E-17	7.993767E-19
6.530000E+03	3.189776E-17	8.189471E-19
6.540000E+03	3.178811E-17	8.393338E-19
6.550000E+03	3.168021E-17	8.603394E-19
6.560000E+03	3.157594E-17	8.818563E-19
6.570000E+03	3.147436E-17	9.037172E-19
6.580000E+03	3.137545E-17	9.257939E-19
6.590000E+03	3.127919E-17	9.479717E-19
6.600000E+03	3.118555E-17	9.701490E-19
6.610000E+03	3.109541E-17	9.922650E-19
6.620000E+03	3.100687E-17	1.014182E-18
6.630000E+03	3.092081E-17	1.035858E-18
6.640000E+03	3.083809E-17	1.057264E-18
6.650000E+03	3.075772E-17	1.078316E-18
6.660000E+03	3.067963E-17	1.098965E-18
6.670000E+03	3.060376E-17	1.119171E-18
6.680000E+03	3.053094E-17	1.138930E-18
6.690000E+03	3.045925E-17	1.158145E-18
6.700000E+03	3.039043E-17	1.176855E-18
6.710000E+03	3.032349E-17	1.195003E-18
6.720000E+03	3.025924E-17	1.212602E-18
6.730000E+03	3.019576E-17	1.229563E-18
6.740000E+03	3.013478E-17	1.245941E-18
6.750000E+03	3.007528E-17	1.261686E-18
6.760000E+03	3.001716E-17	1.276786E-18
6.770000E+03	2.996122E-17	1.291267E-18
6.780000E+03	2.990645E-17	1.305082E-18
6.790000E+03	2.985273E-17	1.318222E-18
6.800000E+03	2.979996E-17	1.330680E-18
6.810000E+03	2.974892E-17	1.342488E-18
6.820000E+03	2.969861E-17	1.353602E-18
6.830000E+03	2.964981E-17	1.364059E-18
6.840000E+03	2.960060E-17	1.373770E-18
6.850000E+03	2.955267E-17	1.382815E-18
6.860000E+03	2.950500E-17	1.391151E-18
6.870000E+03	2.945838E-17	1.398817E-18
6.880000E+03	2.941180E-17	1.405771E-18
6.890000E+03	2.936514E-17	1.412010E-18
6.900000E+03	2.931829E-17	1.417535E-18
6.910000E+03	2.927204E-17	1.422390E-18
6.920000E+03	2.922538E-17	1.426533E-18
6.930000E+03	2.917910E-17	1.430010E-18
6.940000E+03	2.913129E-17	1.432736E-18
6.950000E+03	2.908366E-17	1.434802E-18
6.960000E+03	2.903611E-17	1.436214E-18
6.970000E+03	2.898675E-17	1.436886E-18
6.980000E+03	2.893728E-17	1.436916E-18
6.990000E+03	2.888673E-17	1.436263E-18
7.000000E+03	2.883592E-17	1.434982E-18
7.010000E+03	2.878299E-17	1.432990E-18
7.020000E+03	2.872967E-17	1.430387E-18
7.030000E+03	2.867500E-17	1.427138E-18
7.040000E+03	2.861986E-17	1.423297E-18
7.050000E+03	2.856330E-17	1.418833E-18
7.060000E+03	2.850441E-17	1.413713E-18
7.070000E+03	2.844587E-17	1.408083E-18
7.080000E+03	2.838500E-17	1.401824E-18
7.090000E+03	2.832270E-17	1.394995E-18
7.100000E+03	2.825989E-17	1.387655E-18
7.110000E+03	2.819571E-17	1.379774E-18
7.120000E+03	2.813023E-17	1.371370E-18
7.130000E+03	2.806349E-17	1.362459E-18
7.140000E+03	2.799646E-17	1.353101E-18
7.150000E+03	2.792745E-17	1.343227E-18
7.160000E+03	2.785833E-17	1.332942E-18
7.170000E+03	2.778744E-17	1.322178E-18
7.180000E+03	2.771664E-17	1.311039E-18
7.190000E+03	2.764518E-17	1.299502E-18
7.200000E+03	2.757318E-17	1.287586E-18
7.210000E+03	2.750078E-17	1.275312E-18
7.220000E+03	2.742810E-17	1.262700E-18
7.230000E+03	2.735529E-17	1.249772E-18
7.240000E+03	2.728248E-17	1.236550E-18
7.250000E+03	2.720980E-17	1.223055E-18
7.260000E+03	2.713740E-17	1.209313E-18
7.270000E+03	2.706540E-17	1.195348E-18
7.280000E+03	2.699306E-17	1.181148E-18
7.290000E+03	2.692225E-17	1.166816E-18
7.300000E+03	2.685220E-17	1.152344E-18
7.310000E+03	2.678216E-17	1.137725E-18
7.320000E+03	2.671397E-17	1.123067E-18
7.330000E+03	2.664598E-17	1.108331E-18
7.340000E+03	2.657915E-17	1.093593E-18
7.350000E+03	2.651354E-17	1.078892E-18
7.360000E+03	2.644923E-17	1.064273E-18
7.370000E+03	2.638626E-17	1.049781E-18
7.380000E+03	2.632382E-17	1.035435E-18
7.390000E+03	2.626280E-17	1.021320E-18
7.400000E+03	2.620323E-17	1.007495E-18
7.410000E+03	2.614510E-17	9.940203E-19
7.420000E+03	2.608758E-17	9.809275E-19
7.430000E+03	2.603151E-17	9.683168E-19
7.440000E+03	2.597686E-17	9.562582E-19
7.450000E+03	2.592277E-17	9.447934E-19
7.460000E+03	2.587088E-17	9.340585E-19
7.470000E+03	2.581863E-17	9.240370E-19
7.480000E+03	2.576849E-17	9.148954E-19
7.490000E+03	2.571871E-17	9.066470E-19
7.500000E+03	2.567009E-17	8.993925E-19
7.510000E+03	2.562171E-17	8.931688E-19
7.520000E+03	2.557435E-17	8.880650E-19
7.530000E+03	2.552709E-17	8.841030E-19
7.540000E+03	2.548072E-17	8.813519E-19
7.550000E+03	2.543519E-17	8.798384E-19
7.560000E+03	2.538959E-17	8.795451E-19
7.570000E+03	2.534475E-17	8.804978E-19
7.580000E+03	2.529978E-17	8.826498E-19
7.590000E+03	2.525550E-17	8.860003E-19
7.600000E+03	2.521105E-17	8.904794E-19
7.610000E+03	2.516641E-17	8.960372E-19
7.620000E+03	2.512325E-17	9.026765E-19
7.630000E+03	2.507902E-17	9.102451E-19
7.640000E+03	2.503539E-17	9.187357E-19
7.650000E+03	2.499233E-17	9.280788E-19
7.660000E+03	2.494900E-17	9.381712E-19
7.670000E+03	2.490620E-17	9.489711E-19
7.680000E+03	2.486225E-17	9.603413E-19
7.690000E+03	2.481964E-17	9.723053E-19
7.700000E+03	2.477667E-17	9.847276E-19
7.710000E+03	2.473332E-17	9.975378E-19
7.720000E+03	2.468959E-17	1.010668E-18
7.730000E+03	2.464627E-17	1.024087E-18
7.740000E+03	2.460252E-17	1.037698E-18
7.750000E+03	2.455915E-17	1.051476E-18
7.760000E+03	2.451531E-17	1.065331E-18
