#wls	flux	fluxerr
1.600000E+03	2.223202E-18	8.982272E-19
1.640000E+03	2.255464E-18	9.038790E-19
1.680000E+03	2.288677E-18	9.094725E-19
1.720000E+03	2.323684E-18	9.153156E-19
1.760000E+03	2.359327E-18	9.209228E-19
1.800000E+03	2.396874E-18	9.267614E-19
1.840000E+03	2.435559E-18	9.325014E-19
1.880000E+03	2.475852E-18	9.382912E-19
1.920000E+03	2.517386E-18	9.439571E-19
1.960000E+03	2.560647E-18	9.496468E-19
2.000000E+03	2.605706E-18	9.553465E-19
2.040000E+03	2.652638E-18	9.610413E-19
2.080000E+03	2.701520E-18	9.667153E-19
2.120000E+03	2.752435E-18	9.723513E-19
2.160000E+03	2.804999E-18	9.777668E-19
2.200000E+03	2.859759E-18	9.831061E-19
2.240000E+03	2.917299E-18	9.885135E-19
2.280000E+03	2.976754E-18	9.936379E-19
2.320000E+03	3.038710E-18	9.986210E-19
2.360000E+03	3.103282E-18	1.003438E-18
2.400000E+03	3.170587E-18	1.008065E-18
2.440000E+03	3.241282E-18	1.012640E-18
2.480000E+03	3.314453E-18	1.016804E-18
2.520000E+03	3.390760E-18	1.020694E-18
2.560000E+03	3.470912E-18	1.024446E-18
2.600000E+03	3.554530E-18	1.027863E-18
2.640000E+03	3.641785E-18	1.030916E-18
2.680000E+03	3.732857E-18	1.033572E-18
2.720000E+03	3.827936E-18	1.035801E-18
2.760000E+03	3.927226E-18	1.037573E-18
2.800000E+03	4.031569E-18	1.039019E-18
2.840000E+03	4.140592E-18	1.039950E-18
2.880000E+03	4.254541E-18	1.040339E-18
2.920000E+03	4.374343E-18	1.040324E-18
2.960000E+03	4.498955E-18	1.039569E-18
3.000000E+03	4.630022E-18	1.038380E-18
3.010000E+03	4.664145E-18	1.038083E-18
3.020000E+03	4.697911E-18	1.037582E-18
3.030000E+03	4.732730E-18	1.037190E-18
3.040000E+03	4.767904E-18	1.036750E-18
3.050000E+03	4.803440E-18	1.036264E-18
3.060000E+03	4.838620E-18	1.035577E-18
3.070000E+03	4.874887E-18	1.034998E-18
3.080000E+03	4.911530E-18	1.034373E-18
3.090000E+03	4.948552E-18	1.033703E-18
3.100000E+03	4.986698E-18	1.033140E-18
3.110000E+03	5.024501E-18	1.032380E-18
3.120000E+03	5.062699E-18	1.031576E-18
3.130000E+03	5.101298E-18	1.030728E-18
3.140000E+03	5.141058E-18	1.029989E-18
3.150000E+03	5.181239E-18	1.029207E-18
3.160000E+03	5.221083E-18	1.028233E-18
3.170000E+03	5.262117E-18	1.027369E-18
3.180000E+03	5.303590E-18	1.026465E-18
3.190000E+03	5.345506E-18	1.025523E-18
3.200000E+03	5.387090E-18	1.024393E-18
3.210000E+03	5.429907E-18	1.023377E-18
3.220000E+03	5.473978E-18	1.022474E-18
3.230000E+03	5.517731E-18	1.021388E-18
3.240000E+03	5.561959E-18	1.020270E-18
3.250000E+03	5.606667E-18	1.019122E-18
3.260000E+03	5.652676E-18	1.018091E-18
3.270000E+03	5.698372E-18	1.016886E-18
3.280000E+03	5.745392E-18	1.015801E-18
3.290000E+03	5.792104E-18	1.014548E-18
3.300000E+03	5.840164E-18	1.013417E-18
3.310000E+03	5.888756E-18	1.012267E-18
3.320000E+03	5.937890E-18	1.011099E-18
3.330000E+03	5.986725E-18	1.009773E-18
3.340000E+03	6.036957E-18	1.008578E-18
3.350000E+03	6.087754E-18	1.007373E-18
3.360000E+03	6.139986E-18	1.006303E-18
3.370000E+03	6.191940E-18	1.005086E-18
3.380000E+03	6.244482E-18	1.003867E-18
3.390000E+03	6.297621E-18	1.002651E-18
3.400000E+03	6.352251E-18	1.001579E-18
3.410000E+03	6.406614E-18	1.000375E-18
3.420000E+03	6.462499E-18	9.993217E-19
3.430000E+03	6.518121E-18	9.981441E-19
3.440000E+03	6.575296E-18	9.971232E-19
3.450000E+03	6.633132E-18	9.961238E-19
3.460000E+03	6.691639E-18	9.951498E-19
3.470000E+03	6.749899E-18	9.940681E-19
3.480000E+03	6.809773E-18	9.931568E-19
3.490000E+03	6.870348E-18	9.922827E-19
3.500000E+03	6.931634E-18	9.914498E-19
3.510000E+03	6.993643E-18	9.906624E-19
3.520000E+03	7.057345E-18	9.900595E-19
3.530000E+03	7.120836E-18	9.893752E-19
3.540000E+03	7.185081E-18	9.887490E-19
3.550000E+03	7.250092E-18	9.881853E-19
3.560000E+03	7.316868E-18	9.878218E-19
3.570000E+03	7.383451E-18	9.873956E-19
3.580000E+03	7.451836E-18	9.871776E-19
3.590000E+03	7.520038E-18	9.869062E-19
3.600000E+03	7.590081E-18	9.868508E-19
3.610000E+03	7.659950E-18	9.867511E-19
3.620000E+03	7.731700E-18	9.868754E-19
3.630000E+03	7.804326E-18	9.870954E-19
3.640000E+03	7.877841E-18	9.874154E-19
3.650000E+03	7.952259E-18	9.878391E-19
3.660000E+03	8.026530E-18	9.882398E-19
3.670000E+03	8.102784E-18	9.888828E-19
3.680000E+03	8.179981E-18	9.896407E-19
3.690000E+03	8.258134E-18	9.905171E-19
3.700000E+03	8.337257E-18	9.915153E-19
3.710000E+03	8.417364E-18	9.926384E-19
3.720000E+03	8.499580E-18	9.940193E-19
3.730000E+03	8.581704E-18	9.954012E-19
3.740000E+03	8.664855E-18	9.969166E-19
3.750000E+03	8.749045E-18	9.985681E-19
3.760000E+03	8.835433E-18	1.000488E-18
3.770000E+03	8.921752E-18	1.002418E-18
3.780000E+03	9.009152E-18	1.004491E-18
3.790000E+03	9.098817E-18	1.006839E-18
3.800000E+03	9.188428E-18	1.009203E-18
3.810000E+03	9.279159E-18	1.011714E-18
3.820000E+03	9.372221E-18	1.014504E-18
3.830000E+03	9.465239E-18	1.017315E-18
3.840000E+03	9.560630E-18	1.020406E-18
3.850000E+03	9.655981E-18	1.023520E-18
3.860000E+03	9.753746E-18	1.026916E-18
3.870000E+03	9.852719E-18	1.030465E-18
3.880000E+03	9.951650E-18	1.034037E-18
3.890000E+03	1.005305E-17	1.037893E-18
3.900000E+03	1.015441E-17	1.041772E-18
3.910000E+03	1.025827E-17	1.045935E-18
3.920000E+03	1.036337E-17	1.050251E-18
3.930000E+03	1.046841E-17	1.054587E-18
3.940000E+03	1.057599E-17	1.059207E-18
3.950000E+03	1.068482E-17	1.063978E-18
3.960000E+03	1.079355E-17	1.068766E-18
3.970000E+03	1.090485E-17	1.073834E-18
3.980000E+03	1.101740E-17	1.079049E-18
3.990000E+03	1.113117E-17	1.084409E-18
4.000000E+03	1.124477E-17	1.089778E-18
4.010000E+03	1.136096E-17	1.095421E-18
4.020000E+03	1.147834E-17	1.101202E-18
4.030000E+03	1.159547E-17	1.106982E-18
4.040000E+03	1.171517E-17	1.113029E-18
4.050000E+03	1.183600E-17	1.119204E-18
4.060000E+03	1.195649E-17	1.125365E-18
4.070000E+03	1.207950E-17	1.131783E-18
4.080000E+03	1.220356E-17	1.138316E-18
4.090000E+03	1.232714E-17	1.144821E-18
4.100000E+03	1.245318E-17	1.151568E-18
4.110000E+03	1.258015E-17	1.158413E-18
4.120000E+03	1.270649E-17	1.165210E-18
4.130000E+03	1.283519E-17	1.172233E-18
4.140000E+03	1.296313E-17	1.179194E-18
4.150000E+03	1.309335E-17	1.186366E-18
4.160000E+03	1.322269E-17	1.193460E-18
4.170000E+03	1.335422E-17	1.200752E-18
4.180000E+03	1.348471E-17	1.207947E-18
4.190000E+03	1.361730E-17	1.215325E-18
4.200000E+03	1.374869E-17	1.222588E-18
4.210000E+03	1.388044E-17	1.229872E-18
4.220000E+03	1.401412E-17	1.237314E-18
4.230000E+03	1.414636E-17	1.244613E-18
4.240000E+03	1.427875E-17	1.251906E-18
4.250000E+03	1.441120E-17	1.259183E-18
4.260000E+03	1.454535E-17	1.266586E-18
4.270000E+03	1.467773E-17	1.273808E-18
4.280000E+03	1.480997E-17	1.280989E-18
4.290000E+03	1.494200E-17	1.288122E-18
4.300000E+03	1.507375E-17	1.295199E-18
4.310000E+03	1.520515E-17	1.302213E-18
4.320000E+03	1.533615E-17	1.309156E-18
4.330000E+03	1.546490E-17	1.315871E-18
4.340000E+03	1.559491E-17	1.322656E-18
4.350000E+03	1.572435E-17	1.329353E-18
4.360000E+03	1.585318E-17	1.335959E-18
4.370000E+03	1.597952E-17	1.342316E-18
4.380000E+03	1.610699E-17	1.348728E-18
4.390000E+03	1.623189E-17	1.354886E-18
4.400000E+03	1.635788E-17	1.361095E-18
4.410000E+03	1.648124E-17	1.367046E-18
4.420000E+03	1.660380E-17	1.372893E-18
4.430000E+03	1.672745E-17	1.378794E-18
4.440000E+03	1.684841E-17	1.384437E-18
4.450000E+03	1.696858E-17	1.389980E-18
4.460000E+03	1.708797E-17	1.395427E-18
4.470000E+03	1.720659E-17	1.400780E-18
4.480000E+03	1.732447E-17	1.406043E-18
4.490000E+03	1.743968E-17	1.411063E-18
4.500000E+03	1.755616E-17	1.416162E-18
4.510000E+03	1.767200E-17	1.421186E-18
4.520000E+03	1.778525E-17	1.425983E-18
4.530000E+03	1.789993E-17	1.430876E-18
4.540000E+03	1.801209E-17	1.435555E-18
4.550000E+03	1.812580E-17	1.440345E-18
4.560000E+03	1.823707E-17	1.444932E-18
4.570000E+03	1.834796E-17	1.449486E-18
4.580000E+03	1.845852E-17	1.454011E-18
4.590000E+03	1.856881E-17	1.458517E-18
4.600000E+03	1.867886E-17	1.463009E-18
4.610000E+03	1.878872E-17	1.467495E-18
4.620000E+03	1.889843E-17	1.471981E-18
4.630000E+03	1.900593E-17	1.476312E-18
4.640000E+03	1.911542E-17	1.480818E-18
4.650000E+03	1.922273E-17	1.485180E-18
4.660000E+03	1.932997E-17	1.489565E-18
4.670000E+03	1.943925E-17	1.494141E-18
4.680000E+03	1.954635E-17	1.498586E-18
4.690000E+03	1.965336E-17	1.503066E-18
4.700000E+03	1.976025E-17	1.507584E-18
4.710000E+03	1.986699E-17	1.512142E-18
4.720000E+03	1.997137E-17	1.516576E-18
4.730000E+03	2.007765E-17	1.521214E-18
4.740000E+03	2.018360E-17	1.525893E-18
4.750000E+03	2.028694E-17	1.530444E-18
4.760000E+03	2.038974E-17	1.535031E-18
4.770000E+03	2.049411E-17	1.539814E-18
4.780000E+03	2.059552E-17	1.544458E-18
4.790000E+03	2.069602E-17	1.549123E-18
4.800000E+03	2.079546E-17	1.553801E-18
4.810000E+03	2.089368E-17	1.558485E-18
4.820000E+03	2.098826E-17	1.562999E-18
4.830000E+03	2.108349E-17	1.567667E-18
4.840000E+03	2.117469E-17	1.572143E-18
4.850000E+03	2.126615E-17	1.576750E-18
4.860000E+03	2.135314E-17	1.581140E-18
4.870000E+03	2.143770E-17	1.585466E-18
4.880000E+03	2.151960E-17	1.589715E-18
4.890000E+03	2.159861E-17	1.593871E-18
4.900000E+03	2.167449E-17	1.597916E-18
4.910000E+03	2.174701E-17	1.601835E-18
4.920000E+03	2.181363E-17	1.605439E-18
4.930000E+03	2.187873E-17	1.609053E-18
4.940000E+03	2.193747E-17	1.612317E-18
4.950000E+03	2.199195E-17	1.615384E-18
4.960000E+03	2.204196E-17	1.618238E-18
4.970000E+03	2.208732E-17	1.620862E-18
4.980000E+03	2.212785E-17	1.623240E-18
4.990000E+03	2.216339E-17	1.625356E-18
5.000000E+03	2.219382E-17	1.627196E-18
5.010000E+03	2.221668E-17	1.628577E-18
5.020000E+03	2.223655E-17	1.629828E-18
5.030000E+03	2.224870E-17	1.630596E-18
5.040000E+03	2.225542E-17	1.631044E-18
5.050000E+03	2.225671E-17	1.631165E-18
5.060000E+03	2.225257E-17	1.630952E-18
5.070000E+03	2.224306E-17	1.630402E-18
5.080000E+03	2.222826E-17	1.629515E-18
5.090000E+03	2.220596E-17	1.628120E-18
5.100000E+03	2.218092E-17	1.626559E-18
5.110000E+03	2.214870E-17	1.624498E-18
5.120000E+03	2.211180E-17	1.622113E-18
5.130000E+03	2.207273E-17	1.619582E-18
5.140000E+03	2.202715E-17	1.616578E-18
5.150000E+03	2.197765E-17	1.613282E-18
5.160000E+03	2.192223E-17	1.609542E-18
5.170000E+03	2.186577E-17	1.605709E-18
5.180000E+03	2.180632E-17	1.601633E-18
5.190000E+03	2.174198E-17	1.597168E-18
5.200000E+03	2.167539E-17	1.592501E-18
5.210000E+03	2.160913E-17	1.587817E-18
5.220000E+03	2.153915E-17	1.582813E-18
5.230000E+03	2.146805E-17	1.577674E-18
5.240000E+03	2.139404E-17	1.572265E-18
5.250000E+03	2.132191E-17	1.566933E-18
5.260000E+03	2.124985E-17	1.561542E-18
5.270000E+03	2.117607E-17	1.555955E-18
5.280000E+03	2.110531E-17	1.550519E-18
5.290000E+03	2.103361E-17	1.544939E-18
5.300000E+03	2.096350E-17	1.539398E-18
5.310000E+03	2.089533E-17	1.533920E-18
5.320000E+03	2.082945E-17	1.528527E-18
5.330000E+03	2.076617E-17	1.523241E-18
5.340000E+03	2.070580E-17	1.518082E-18
5.350000E+03	2.064652E-17	1.512914E-18
5.360000E+03	2.059284E-17	1.508066E-18
5.370000E+03	2.054078E-17	1.503245E-18
5.380000E+03	2.049270E-17	1.498620E-18
5.390000E+03	2.045088E-17	1.494358E-18
5.400000E+03	2.041135E-17	1.490164E-18
5.410000E+03	2.037637E-17	1.486202E-18
5.420000E+03	2.034403E-17	1.482330E-18
5.430000E+03	2.031860E-17	1.478856E-18
5.440000E+03	2.029812E-17	1.475634E-18
5.450000E+03	2.028062E-17	1.472517E-18
5.460000E+03	2.027030E-17	1.469807E-18
5.470000E+03	2.026310E-17	1.467205E-18
5.480000E+03	2.026111E-17	1.464858E-18
5.490000E+03	2.026435E-17	1.462764E-18
5.500000E+03	2.027282E-17	1.460916E-18
5.510000E+03	2.028651E-17	1.459308E-18
5.520000E+03	2.030539E-17	1.457932E-18
5.530000E+03	2.032734E-17	1.456631E-18
5.540000E+03	2.035642E-17	1.455690E-18
5.550000E+03	2.038844E-17	1.454800E-18
5.560000E+03	2.042742E-17	1.454242E-18
5.570000E+03	2.046913E-17	1.453709E-18
5.580000E+03	2.051551E-17	1.453329E-18
5.590000E+03	2.056643E-17	1.453087E-18
5.600000E+03	2.062175E-17	1.452964E-18
5.610000E+03	2.068132E-17	1.452942E-18
5.620000E+03	2.074495E-17	1.452999E-18
5.630000E+03	2.081248E-17	1.453117E-18
5.640000E+03	2.088161E-17	1.453126E-18
5.650000E+03	2.095635E-17	1.453297E-18
5.660000E+03	2.103227E-17	1.453317E-18
5.670000E+03	2.111125E-17	1.453307E-18
5.680000E+03	2.119521E-17	1.453392E-18
5.690000E+03	2.127964E-17	1.453256E-18
5.700000E+03	2.136643E-17	1.453021E-18
5.710000E+03	2.145533E-17	1.452664E-18
5.720000E+03	2.154608E-17	1.452163E-18
5.730000E+03	2.163624E-17	1.451348E-18
5.740000E+03	2.172989E-17	1.450489E-18
5.750000E+03	2.182457E-17	1.449418E-18
5.760000E+03	2.191781E-17	1.447967E-18
5.770000E+03	2.201151E-17	1.446263E-18
5.780000E+03	2.210761E-17	1.444430E-18
5.790000E+03	2.220138E-17	1.442159E-18
5.800000E+03	2.229475E-17	1.439578E-18
5.810000E+03	2.238743E-17	1.436671E-18
5.820000E+03	2.247913E-17	1.433422E-18
5.830000E+03	2.256957E-17	1.429817E-18
5.840000E+03	2.265847E-17	1.425845E-18
5.850000E+03	2.274555E-17	1.421496E-18
5.860000E+03	2.283053E-17	1.416760E-18
5.870000E+03	2.291085E-17	1.411489E-18
5.880000E+03	2.299084E-17	1.405963E-18
5.890000E+03	2.306566E-17	1.399897E-18
5.900000E+03	2.313735E-17	1.393431E-18
5.910000E+03	2.320803E-17	1.386708E-18
5.920000E+03	2.327283E-17	1.379452E-18
5.930000E+03	2.333386E-17	1.371810E-18
5.940000E+03	2.339094E-17	1.363792E-18
5.950000E+03	2.344391E-17	1.355409E-18
5.960000E+03	2.349259E-17	1.346676E-18
5.970000E+03	2.353687E-17	1.337610E-18
5.980000E+03	2.357661E-17	1.328230E-18
5.990000E+03	2.361172E-17	1.318558E-18
6.000000E+03	2.363973E-17	1.308488E-18
6.010000E+03	2.366533E-17	1.298309E-18
6.020000E+03	2.368373E-17	1.287789E-18
6.030000E+03	2.369964E-17	1.277221E-18
6.040000E+03	2.370832E-17	1.266379E-18
6.050000E+03	2.371453E-17	1.255555E-18
6.060000E+03	2.371355E-17	1.244534E-18
6.070000E+03	2.370780E-17	1.233482E-18
6.080000E+03	2.369737E-17	1.222440E-18
6.090000E+03	2.368233E-17	1.211450E-18
6.100000E+03	2.366279E-17	1.200555E-18
6.110000E+03	2.363887E-17	1.189798E-18
6.120000E+03	2.361071E-17	1.179224E-18
6.130000E+03	2.357845E-17	1.168877E-18
6.140000E+03	2.354225E-17	1.158800E-18
6.150000E+03	2.350229E-17	1.149037E-18
6.160000E+03	2.345638E-17	1.139513E-18
6.170000E+03	2.340945E-17	1.130499E-18
6.180000E+03	2.335696E-17	1.121805E-18
6.190000E+03	2.330383E-17	1.113692E-18
6.200000E+03	2.324556E-17	1.105967E-18
6.210000E+03	2.318706E-17	1.098883E-18
6.220000E+03	2.312385E-17	1.092243E-18
6.230000E+03	2.305848E-17	1.086172E-18
6.240000E+03	2.299346E-17	1.080783E-18
6.250000E+03	2.292434E-17	1.075856E-18
6.260000E+03	2.285365E-17	1.071499E-18
6.270000E+03	2.278157E-17	1.067703E-18
6.280000E+03	2.270828E-17	1.064462E-18
6.290000E+03	2.263396E-17	1.061762E-18
6.300000E+03	2.255878E-17	1.059591E-18
6.310000E+03	2.248291E-17	1.057935E-18
6.320000E+03	2.240650E-17	1.056777E-18
6.330000E+03	2.232970E-17	1.056100E-18
6.340000E+03	2.225266E-17	1.055886E-18
6.350000E+03	2.217327E-17	1.056011E-18
6.360000E+03	2.209614E-17	1.056668E-18
6.370000E+03	2.201915E-17	1.057733E-18
6.380000E+03	2.194019E-17	1.059079E-18
6.390000E+03	2.186380E-17	1.060901E-18
6.400000E+03	2.178564E-17	1.062965E-18
6.410000E+03	2.171023E-17	1.065466E-18
6.420000E+03	2.163322E-17	1.068169E-18
6.430000E+03	2.155909E-17	1.071270E-18
6.440000E+03	2.148351E-17	1.074534E-18
6.450000E+03	2.141091E-17	1.078154E-18
6.460000E+03	2.133698E-17	1.081888E-18
6.470000E+03	2.126394E-17	1.085820E-18
6.480000E+03	2.119181E-17	1.089923E-18
6.490000E+03	2.112064E-17	1.094173E-18
6.500000E+03	2.105257E-17	1.098657E-18
6.510000E+03	2.098334E-17	1.103127E-18
6.520000E+03	2.091511E-17	1.107673E-18
6.530000E+03	2.084788E-17	1.112270E-18
6.540000E+03	2.078165E-17	1.116897E-18
6.550000E+03	2.071642E-17	1.121533E-18
6.560000E+03	2.065219E-17	1.126157E-18
6.570000E+03	2.058894E-17	1.130750E-18
6.580000E+03	2.052458E-17	1.135179E-18
6.590000E+03	2.046326E-17	1.139655E-18
6.600000E+03	2.040288E-17	1.144047E-18
6.610000E+03	2.034342E-17	1.148340E-18
6.620000E+03	2.028485E-17	1.152518E-18
6.630000E+03	2.022509E-17	1.156450E-18
6.640000E+03	2.016822E-17	1.160358E-18
6.650000E+03	2.011216E-17	1.164111E-18
6.660000E+03	2.005483E-17	1.167579E-18
6.670000E+03	2.000028E-17	1.170989E-18
6.680000E+03	1.994440E-17	1.174092E-18
6.690000E+03	1.989122E-17	1.177117E-18
6.700000E+03	1.983664E-17	1.179816E-18
6.710000E+03	1.978467E-17	1.182420E-18
6.720000E+03	1.973123E-17	1.184680E-18
6.730000E+03	1.968030E-17	1.186831E-18
6.740000E+03	1.962782E-17	1.188623E-18
6.750000E+03	1.957575E-17	1.190170E-18
6.760000E+03	1.952404E-17	1.191467E-18
6.770000E+03	1.947465E-17	1.192629E-18
6.780000E+03	1.942354E-17	1.193408E-18
6.790000E+03	1.937265E-17	1.193920E-18
6.800000E+03	1.932193E-17	1.194161E-18
6.810000E+03	1.927331E-17	1.194248E-18
6.820000E+03	1.922278E-17	1.193934E-18
6.830000E+03	1.917228E-17	1.193337E-18
6.840000E+03	1.912175E-17	1.192454E-18
6.850000E+03	1.907114E-17	1.191281E-18
6.860000E+03	1.902041E-17	1.189818E-18
6.870000E+03	1.896950E-17	1.188061E-18
6.880000E+03	1.891837E-17	1.186010E-18
6.890000E+03	1.886696E-17	1.183662E-18
6.900000E+03	1.881524E-17	1.181018E-18
6.910000E+03	1.876122E-17	1.177955E-18
6.920000E+03	1.870873E-17	1.174717E-18
6.930000E+03	1.865580E-17	1.171183E-18
6.940000E+03	1.860237E-17	1.167353E-18
6.950000E+03	1.854842E-17	1.163230E-18
6.960000E+03	1.849199E-17	1.158696E-18
6.970000E+03	1.843689E-17	1.153993E-18
6.980000E+03	1.838116E-17	1.149005E-18
6.990000E+03	1.832289E-17	1.143616E-18
7.000000E+03	1.826585E-17	1.138068E-18
7.010000E+03	1.820623E-17	1.132130E-18
7.020000E+03	1.814781E-17	1.126042E-18
7.030000E+03	1.808680E-17	1.119576E-18
7.040000E+03	1.802695E-17	1.112971E-18
7.050000E+03	1.796453E-17	1.106002E-18
7.060000E+03	1.790328E-17	1.098906E-18
7.070000E+03	1.783948E-17	1.091464E-18
7.080000E+03	1.777686E-17	1.083909E-18
7.090000E+03	1.771175E-17	1.076026E-18
7.100000E+03	1.764603E-17	1.067936E-18
7.110000E+03	1.757973E-17	1.059649E-18
7.120000E+03	1.751472E-17	1.051285E-18
7.130000E+03	1.744740E-17	1.042633E-18
7.140000E+03	1.737964E-17	1.033815E-18
7.150000E+03	1.731149E-17	1.024842E-18
7.160000E+03	1.724302E-17	1.015725E-18
7.170000E+03	1.717430E-17	1.006476E-18
7.180000E+03	1.710539E-17	9.971062E-19
7.190000E+03	1.703636E-17	9.876280E-19
7.200000E+03	1.696729E-17	9.780539E-19
7.210000E+03	1.689825E-17	9.683967E-19
7.220000E+03	1.682933E-17	9.586696E-19
7.230000E+03	1.676060E-17	9.488858E-19
7.240000E+03	1.669214E-17	9.390594E-19
7.250000E+03	1.662404E-17	9.292043E-19
7.260000E+03	1.655465E-17	9.192391E-19
7.270000E+03	1.648751E-17	9.093721E-19
7.280000E+03	1.642097E-17	8.995218E-19
7.290000E+03	1.635338E-17	8.896110E-19
7.300000E+03	1.628827E-17	8.798439E-19
7.310000E+03	1.622397E-17	8.701436E-19
7.320000E+03	1.615888E-17	8.604379E-19
7.330000E+03	1.609644E-17	8.509272E-19
7.340000E+03	1.603335E-17	8.414513E-19
7.350000E+03	1.597303E-17	8.322086E-19
7.360000E+03	1.591218E-17	8.230442E-19
7.370000E+03	1.585254E-17	8.140689E-19
7.380000E+03	1.579583E-17	8.053904E-19
7.390000E+03	1.573875E-17	7.968622E-19
7.400000E+03	1.568303E-17	7.885947E-19
7.410000E+03	1.562869E-17	7.806134E-19
7.420000E+03	1.557577E-17	7.729446E-19
7.430000E+03	1.552432E-17	7.656151E-19
7.440000E+03	1.547598E-17	7.587326E-19
7.450000E+03	1.542751E-17	7.521635E-19
7.460000E+03	1.538056E-17	7.460162E-19
7.470000E+03	1.533354E-17	7.402399E-19
7.480000E+03	1.528970E-17	7.350189E-19
7.490000E+03	1.524743E-17	7.303002E-19
7.500000E+03	1.520674E-17	7.261089E-19
7.510000E+03	1.516762E-17	7.224684E-19
7.520000E+03	1.513007E-17	7.194001E-19
7.530000E+03	1.509249E-17	7.168469E-19
7.540000E+03	1.505807E-17	7.149781E-19
7.550000E+03	1.502360E-17	7.136544E-19
7.560000E+03	1.499225E-17	7.130306E-19
7.570000E+03	1.496077E-17	7.129471E-19
7.580000E+03	1.493229E-17	7.135456E-19
7.590000E+03	1.490359E-17	7.146605E-19
7.600000E+03	1.487778E-17	7.164283E-19
7.610000E+03	1.485163E-17	7.186779E-19
7.620000E+03	1.482667E-17	7.214654E-19
7.630000E+03	1.480443E-17	7.248463E-19
7.640000E+03	1.478167E-17	7.286424E-19
7.650000E+03	1.475992E-17	7.329064E-19
7.660000E+03	1.473912E-17	7.376130E-19
7.670000E+03	1.471921E-17	7.427362E-19
7.680000E+03	1.470014E-17	7.482500E-19
7.690000E+03	1.468185E-17	7.541280E-19
7.700000E+03	1.466428E-17	7.603440E-19
7.710000E+03	1.464738E-17	7.668722E-19
7.720000E+03	1.462951E-17	7.736036E-19
7.730000E+03	1.461379E-17	7.806795E-19
7.740000E+03	1.459857E-17	7.879930E-19
7.750000E+03	1.458225E-17	7.954347E-19
7.760000E+03	1.456792E-17	8.031530E-19
