#wls	flux	fluxerr
1.600000E+03	2.246725E-18	9.062834E-19
1.640000E+03	2.278983E-18	9.117631E-19
1.680000E+03	2.312166E-18	9.171653E-19
1.720000E+03	2.346716E-18	9.226392E-19
1.760000E+03	2.382270E-18	9.280142E-19
1.800000E+03	2.419702E-18	9.335998E-19
1.840000E+03	2.458236E-18	9.390628E-19
1.880000E+03	2.498344E-18	9.445510E-19
1.920000E+03	2.539651E-18	9.498885E-19
1.960000E+03	2.583085E-18	9.553849E-19
2.000000E+03	2.627837E-18	9.606994E-19
2.040000E+03	2.674413E-18	9.659775E-19
2.080000E+03	2.722887E-18	9.712013E-19
2.120000E+03	2.773336E-18	9.763515E-19
2.160000E+03	2.825842E-18	9.814078E-19
2.200000E+03	2.880492E-18	9.863483E-19
2.240000E+03	2.937377E-18	9.911499E-19
2.280000E+03	2.996593E-18	9.957881E-19
2.320000E+03	3.058241E-18	1.000237E-18
2.360000E+03	3.122940E-18	1.004634E-18
2.400000E+03	3.189787E-18	1.008620E-18
2.440000E+03	3.259936E-18	1.012496E-18
2.480000E+03	3.332999E-18	1.016064E-18
2.520000E+03	3.409114E-18	1.019291E-18
2.560000E+03	3.488420E-18	1.022145E-18
2.600000E+03	3.571070E-18	1.024588E-18
2.640000E+03	3.657799E-18	1.026749E-18
2.680000E+03	3.748221E-18	1.028426E-18
2.720000E+03	3.843115E-18	1.029743E-18
2.760000E+03	3.942097E-18	1.030502E-18
2.800000E+03	4.045370E-18	1.030666E-18
2.840000E+03	4.153788E-18	1.030357E-18
2.880000E+03	4.266971E-18	1.029383E-18
2.920000E+03	4.385826E-18	1.027868E-18
2.960000E+03	4.509984E-18	1.025629E-18
3.000000E+03	4.639723E-18	1.022645E-18
3.010000E+03	4.673477E-18	1.021870E-18
3.020000E+03	4.706866E-18	1.020887E-18
3.030000E+03	4.741287E-18	1.019998E-18
3.040000E+03	4.776049E-18	1.019052E-18
3.050000E+03	4.811157E-18	1.018048E-18
3.060000E+03	4.846616E-18	1.016987E-18
3.070000E+03	4.882430E-18	1.015868E-18
3.080000E+03	4.918604E-18	1.014693E-18
3.090000E+03	4.955867E-18	1.013609E-18
3.100000E+03	4.992779E-18	1.012320E-18
3.110000E+03	5.030797E-18	1.011122E-18
3.120000E+03	5.068467E-18	1.009721E-18
3.130000E+03	5.107261E-18	1.008411E-18
3.140000E+03	5.146453E-18	1.007045E-18
3.150000E+03	5.186048E-18	1.005625E-18
3.160000E+03	5.225298E-18	1.004006E-18
3.170000E+03	5.266468E-18	1.002623E-18
3.180000E+03	5.307305E-18	1.001042E-18
3.190000E+03	5.348566E-18	9.994104E-19
3.200000E+03	5.390258E-18	9.977281E-19
3.210000E+03	5.433162E-18	9.961384E-19
3.220000E+03	5.475737E-18	9.943579E-19
3.230000E+03	5.519545E-18	9.926716E-19
3.240000E+03	5.563028E-18	9.907983E-19
3.250000E+03	5.607765E-18	9.890209E-19
3.260000E+03	5.652979E-18	9.872001E-19
3.270000E+03	5.698676E-18	9.853376E-19
3.280000E+03	5.744863E-18	9.834352E-19
3.290000E+03	5.791546E-18	9.814950E-19
3.300000E+03	5.838733E-18	9.795188E-19
3.310000E+03	5.886430E-18	9.775091E-19
3.320000E+03	5.935471E-18	9.756039E-19
3.330000E+03	5.984215E-18	9.735333E-19
3.340000E+03	6.034329E-18	9.715712E-19
3.350000E+03	6.084151E-18	9.694501E-19
3.360000E+03	6.135367E-18	9.674419E-19
3.370000E+03	6.187149E-18	9.654147E-19
3.380000E+03	6.239504E-18	9.633716E-19
3.390000E+03	6.292441E-18	9.613159E-19
3.400000E+03	6.345969E-18	9.592510E-19
3.410000E+03	6.400095E-18	9.571803E-19
3.420000E+03	6.454828E-18	9.551074E-19
3.430000E+03	6.510178E-18	9.530363E-19
3.440000E+03	6.567044E-18	9.510997E-19
3.450000E+03	6.623658E-18	9.490431E-19
3.460000E+03	6.680916E-18	9.470003E-19
3.470000E+03	6.739735E-18	9.451028E-19
3.480000E+03	6.799229E-18	9.432267E-19
3.490000E+03	6.858487E-18	9.412500E-19
3.500000E+03	6.919354E-18	9.394305E-19
3.510000E+03	6.980925E-18	9.376460E-19
3.520000E+03	7.043213E-18	9.359014E-19
3.530000E+03	7.106226E-18	9.342014E-19
3.540000E+03	7.169977E-18	9.325510E-19
3.550000E+03	7.234477E-18	9.309551E-19
3.560000E+03	7.299737E-18	9.294186E-19
3.570000E+03	7.365768E-18	9.279466E-19
3.580000E+03	7.433561E-18	9.266660E-19
3.590000E+03	7.501178E-18	9.253377E-19
3.600000E+03	7.570595E-18	9.242098E-19
3.610000E+03	7.639848E-18	9.230450E-19
3.620000E+03	7.710940E-18	9.220898E-19
3.630000E+03	7.781880E-18	9.211083E-19
3.640000E+03	7.854700E-18	9.203453E-19
3.650000E+03	7.928407E-18	9.196853E-19
3.660000E+03	8.003017E-18	9.191329E-19
3.670000E+03	8.078542E-18	9.186927E-19
3.680000E+03	8.153950E-18	9.182509E-19
3.690000E+03	8.231344E-18	9.180481E-19
3.700000E+03	8.309698E-18	9.179701E-19
3.710000E+03	8.390098E-18	9.181380E-19
3.720000E+03	8.470426E-18	9.183208E-19
3.730000E+03	8.551758E-18	9.186395E-19
3.740000E+03	8.634112E-18	9.190976E-19
3.750000E+03	8.717503E-18	9.196980E-19
3.760000E+03	8.803057E-18	9.205601E-19
3.770000E+03	8.888577E-18	9.214540E-19
3.780000E+03	8.975180E-18	9.224987E-19
3.790000E+03	9.064018E-18	9.238123E-19
3.800000E+03	9.152844E-18	9.251654E-19
3.810000E+03	9.243953E-18	9.267915E-19
3.820000E+03	9.335063E-18	9.284612E-19
3.830000E+03	9.428503E-18	9.304072E-19
3.840000E+03	9.521957E-18	9.324000E-19
3.850000E+03	9.617787E-18	9.346720E-19
3.860000E+03	9.714838E-18	9.371089E-19
3.870000E+03	9.811915E-18	9.395962E-19
3.880000E+03	9.911436E-18	9.423659E-19
3.890000E+03	1.001221E-17	9.453031E-19
3.900000E+03	1.011426E-17	9.484087E-19
3.910000E+03	1.021633E-17	9.515670E-19
3.920000E+03	1.032093E-17	9.550102E-19
3.930000E+03	1.042682E-17	9.586227E-19
3.940000E+03	1.053400E-17	9.624046E-19
3.950000E+03	1.064249E-17	9.663556E-19
3.960000E+03	1.075098E-17	9.703585E-19
3.970000E+03	1.086206E-17	9.746466E-19
3.980000E+03	1.097445E-17	9.791022E-19
3.990000E+03	1.108812E-17	9.837246E-19
4.000000E+03	1.120309E-17	9.885125E-19
4.010000E+03	1.131933E-17	9.934643E-19
4.020000E+03	1.143684E-17	9.985783E-19
4.030000E+03	1.155424E-17	1.003733E-18
4.040000E+03	1.167422E-17	1.009164E-18
4.050000E+03	1.179542E-17	1.014750E-18
4.060000E+03	1.191780E-17	1.020486E-18
4.070000E+03	1.204135E-17	1.026370E-18
4.080000E+03	1.216602E-17	1.032397E-18
4.090000E+03	1.229034E-17	1.038441E-18
4.100000E+03	1.241713E-17	1.044738E-18
4.110000E+03	1.254494E-17	1.051163E-18
4.120000E+03	1.267370E-17	1.057707E-18
4.130000E+03	1.280338E-17	1.064366E-18
4.140000E+03	1.293241E-17	1.071006E-18
4.150000E+03	1.306371E-17	1.077868E-18
4.160000E+03	1.319575E-17	1.084820E-18
4.170000E+03	1.332693E-17	1.091726E-18
4.180000E+03	1.346021E-17	1.098829E-18
4.190000E+03	1.359402E-17	1.105994E-18
4.200000E+03	1.372671E-17	1.113083E-18
4.210000E+03	1.386132E-17	1.120339E-18
4.220000E+03	1.399463E-17	1.127498E-18
4.230000E+03	1.412972E-17	1.134805E-18
4.240000E+03	1.426331E-17	1.141992E-18
4.250000E+03	1.439692E-17	1.149176E-18
4.260000E+03	1.453209E-17	1.156478E-18
4.270000E+03	1.466548E-17	1.163626E-18
4.280000E+03	1.479863E-17	1.170740E-18
4.290000E+03	1.493145E-17	1.177811E-18
4.300000E+03	1.506387E-17	1.184829E-18
4.310000E+03	1.519751E-17	1.191918E-18
4.320000E+03	1.532891E-17	1.198805E-18
4.330000E+03	1.545969E-17	1.205613E-18
4.340000E+03	1.558804E-17	1.212202E-18
4.350000E+03	1.571737E-17	1.218834E-18
4.360000E+03	1.584590E-17	1.225369E-18
4.370000E+03	1.597359E-17	1.231803E-18
4.380000E+03	1.609861E-17	1.237994E-18
4.390000E+03	1.622448E-17	1.244213E-18
4.400000E+03	1.634761E-17	1.250184E-18
4.410000E+03	1.647157E-17	1.256180E-18
4.420000E+03	1.659275E-17	1.261926E-18
4.430000E+03	1.671478E-17	1.267698E-18
4.440000E+03	1.683401E-17	1.273221E-18
4.450000E+03	1.695230E-17	1.278635E-18
4.460000E+03	1.706965E-17	1.283943E-18
4.470000E+03	1.718612E-17	1.289149E-18
4.480000E+03	1.730174E-17	1.294258E-18
4.490000E+03	1.741656E-17	1.299275E-18
4.500000E+03	1.752875E-17	1.304065E-18
4.510000E+03	1.764215E-17	1.308915E-18
4.520000E+03	1.775304E-17	1.313551E-18
4.530000E+03	1.786529E-17	1.318262E-18
4.540000E+03	1.797516E-17	1.322773E-18
4.550000E+03	1.808465E-17	1.327234E-18
4.560000E+03	1.819577E-17	1.331795E-18
4.570000E+03	1.830473E-17	1.336180E-18
4.580000E+03	1.841355E-17	1.340539E-18
4.590000E+03	1.852232E-17	1.344880E-18
4.600000E+03	1.862913E-17	1.349070E-18
4.610000E+03	1.873801E-17	1.353402E-18
4.620000E+03	1.884507E-17	1.357597E-18
4.630000E+03	1.895435E-17	1.361950E-18
4.640000E+03	1.906192E-17	1.366181E-18
4.650000E+03	1.917183E-17	1.370584E-18
4.660000E+03	1.928010E-17	1.374878E-18
4.670000E+03	1.938878E-17	1.379212E-18
4.680000E+03	1.949788E-17	1.383590E-18
4.690000E+03	1.960536E-17	1.387872E-18
4.700000E+03	1.971530E-17	1.392351E-18
4.710000E+03	1.982564E-17	1.396885E-18
4.720000E+03	1.993428E-17	1.401330E-18
4.730000E+03	2.004321E-17	1.405831E-18
4.740000E+03	2.015446E-17	1.410533E-18
4.750000E+03	2.026377E-17	1.415145E-18
4.760000E+03	2.037313E-17	1.419808E-18
4.770000E+03	2.048241E-17	1.424519E-18
4.780000E+03	2.058935E-17	1.429125E-18
4.790000E+03	2.069802E-17	1.433915E-18
4.800000E+03	2.080402E-17	1.438586E-18
4.810000E+03	2.091140E-17	1.443426E-18
4.820000E+03	2.101568E-17	1.448127E-18
4.830000E+03	2.111877E-17	1.452828E-18
4.840000E+03	2.122043E-17	1.457515E-18
4.850000E+03	2.132041E-17	1.462175E-18
4.860000E+03	2.141842E-17	1.466793E-18
4.870000E+03	2.151201E-17	1.471204E-18
4.880000E+03	2.160526E-17	1.475691E-18
4.890000E+03	2.169347E-17	1.479935E-18
4.900000E+03	2.177853E-17	1.484068E-18
4.910000E+03	2.186014E-17	1.488070E-18
4.920000E+03	2.193799E-17	1.491922E-18
4.930000E+03	2.201176E-17	1.495604E-18
4.940000E+03	2.208116E-17	1.499095E-18
4.950000E+03	2.214366E-17	1.502223E-18
4.960000E+03	2.220344E-17	1.505272E-18
4.970000E+03	2.225576E-17	1.507918E-18
4.980000E+03	2.230260E-17	1.510294E-18
4.990000E+03	2.234374E-17	1.512383E-18
5.000000E+03	2.237898E-17	1.514167E-18
5.010000E+03	2.240812E-17	1.515630E-18
5.020000E+03	2.243104E-17	1.516758E-18
5.030000E+03	2.244536E-17	1.517387E-18
5.040000E+03	2.245550E-17	1.517809E-18
5.050000E+03	2.245692E-17	1.517713E-18
5.060000E+03	2.245187E-17	1.517243E-18
5.070000E+03	2.244036E-17	1.516396E-18
5.080000E+03	2.242248E-17	1.515168E-18
5.090000E+03	2.239611E-17	1.513411E-18
5.100000E+03	2.236586E-17	1.511428E-18
5.110000E+03	2.232748E-17	1.508924E-18
5.120000E+03	2.228562E-17	1.506208E-18
5.130000E+03	2.223613E-17	1.502991E-18
5.140000E+03	2.218153E-17	1.499435E-18
5.150000E+03	2.212215E-17	1.495557E-18
5.160000E+03	2.205617E-17	1.491227E-18
5.170000E+03	2.198836E-17	1.486759E-18
5.180000E+03	2.191477E-17	1.481882E-18
5.190000E+03	2.184019E-17	1.476912E-18
5.200000E+03	2.176074E-17	1.471582E-18
5.210000E+03	2.167906E-17	1.466066E-18
5.220000E+03	2.159562E-17	1.460390E-18
5.230000E+03	2.151092E-17	1.454585E-18
5.240000E+03	2.142334E-17	1.448536E-18
5.250000E+03	2.133758E-17	1.442559E-18
5.260000E+03	2.124994E-17	1.436401E-18
5.270000E+03	2.116506E-17	1.430372E-18
5.280000E+03	2.107927E-17	1.424223E-18
5.290000E+03	2.099510E-17	1.418123E-18
5.300000E+03	2.091300E-17	1.412101E-18
5.310000E+03	2.083136E-17	1.406047E-18
5.320000E+03	2.075466E-17	1.400263E-18
5.330000E+03	2.067925E-17	1.394501E-18
5.340000E+03	2.060951E-17	1.389057E-18
5.350000E+03	2.054177E-17	1.383682E-18
5.360000E+03	2.047837E-17	1.378534E-18
5.370000E+03	2.041960E-17	1.373630E-18
5.380000E+03	2.036573E-17	1.368989E-18
5.390000E+03	2.031700E-17	1.364626E-18
5.400000E+03	2.027166E-17	1.360422E-18
5.410000E+03	2.023386E-17	1.356653E-18
5.420000E+03	2.019981E-17	1.353066E-18
5.430000E+03	2.017164E-17	1.349799E-18
5.440000E+03	2.014946E-17	1.346859E-18
5.450000E+03	2.013337E-17	1.344248E-18
5.460000E+03	2.012344E-17	1.341969E-18
5.470000E+03	2.011971E-17	1.340020E-18
5.480000E+03	2.012027E-17	1.338270E-18
5.490000E+03	2.012902E-17	1.336975E-18
5.500000E+03	2.014206E-17	1.335868E-18
5.510000E+03	2.016324E-17	1.335201E-18
5.520000E+03	2.018862E-17	1.334707E-18
5.530000E+03	2.022008E-17	1.334503E-18
5.540000E+03	2.025754E-17	1.334577E-18
5.550000E+03	2.029893E-17	1.334785E-18
5.560000E+03	2.034806E-17	1.335370E-18
5.570000E+03	2.040283E-17	1.336186E-18
5.580000E+03	2.046113E-17	1.337086E-18
5.590000E+03	2.052476E-17	1.338180E-18
5.600000E+03	2.059554E-17	1.339575E-18
5.610000E+03	2.066933E-17	1.340993E-18
5.620000E+03	2.074789E-17	1.342540E-18
5.630000E+03	2.083102E-17	1.344192E-18
5.640000E+03	2.091650E-17	1.345797E-18
5.650000E+03	2.100809E-17	1.347589E-18
5.660000E+03	2.110357E-17	1.349413E-18
5.670000E+03	2.120063E-17	1.351113E-18
5.680000E+03	2.130104E-17	1.352794E-18
5.690000E+03	2.140657E-17	1.354559E-18
5.700000E+03	2.151285E-17	1.356121E-18
5.710000E+03	2.162162E-17	1.357586E-18
5.720000E+03	2.173259E-17	1.358926E-18
5.730000E+03	2.184545E-17	1.360116E-18
5.740000E+03	2.195778E-17	1.361000E-18
5.750000E+03	2.207345E-17	1.361813E-18
5.760000E+03	2.219005E-17	1.362400E-18
5.770000E+03	2.230510E-17	1.362608E-18
5.780000E+03	2.242038E-17	1.362544E-18
5.790000E+03	2.253771E-17	1.362317E-18
5.800000E+03	2.265244E-17	1.361645E-18
5.810000E+03	2.276638E-17	1.360638E-18
5.820000E+03	2.287917E-17	1.359279E-18
5.830000E+03	2.299048E-17	1.357552E-18
5.840000E+03	2.309998E-17	1.355441E-18
5.850000E+03	2.320509E-17	1.352803E-18
5.860000E+03	2.330993E-17	1.349887E-18
5.870000E+03	2.340971E-17	1.346424E-18
5.880000E+03	2.350861E-17	1.342666E-18
5.890000E+03	2.360181E-17	1.338349E-18
5.900000E+03	2.369355E-17	1.333727E-18
5.910000E+03	2.377901E-17	1.328545E-18
5.920000E+03	2.386018E-17	1.322933E-18
5.930000E+03	2.393682E-17	1.316895E-18
5.940000E+03	2.400870E-17	1.310438E-18
5.950000E+03	2.407560E-17	1.303573E-18
5.960000E+03	2.413503E-17	1.296187E-18
5.970000E+03	2.419141E-17	1.288545E-18
5.980000E+03	2.424231E-17	1.280539E-18
5.990000E+03	2.428526E-17	1.272069E-18
6.000000E+03	2.432481E-17	1.263402E-18
6.010000E+03	2.435622E-17	1.254321E-18
6.020000E+03	2.438411E-17	1.245096E-18
6.030000E+03	2.440377E-17	1.235517E-18
6.040000E+03	2.441754E-17	1.225737E-18
6.050000E+03	2.442542E-17	1.215792E-18
6.060000E+03	2.442748E-17	1.205719E-18
6.070000E+03	2.442377E-17	1.195557E-18
6.080000E+03	2.441439E-17	1.185347E-18
6.090000E+03	2.439945E-17	1.175129E-18
6.100000E+03	2.437909E-17	1.164947E-18
6.110000E+03	2.435112E-17	1.154735E-18
6.120000E+03	2.432040E-17	1.144758E-18
6.130000E+03	2.428478E-17	1.134949E-18
6.140000E+03	2.424214E-17	1.125244E-18
6.150000E+03	2.419735E-17	1.115904E-18
6.160000E+03	2.414600E-17	1.106754E-18
6.170000E+03	2.409066E-17	1.097944E-18
6.180000E+03	2.403159E-17	1.089512E-18
6.190000E+03	2.397133E-17	1.081595E-18
6.200000E+03	2.390554E-17	1.074017E-18
6.210000E+03	2.383679E-17	1.066910E-18
6.220000E+03	2.376535E-17	1.060294E-18
6.230000E+03	2.369146E-17	1.054185E-18
6.240000E+03	2.361539E-17	1.048591E-18
6.250000E+03	2.353738E-17	1.043516E-18
6.260000E+03	2.345767E-17	1.038961E-18
6.270000E+03	2.337425E-17	1.034820E-18
6.280000E+03	2.329185E-17	1.031287E-18
6.290000E+03	2.320843E-17	1.028252E-18
6.300000E+03	2.312198E-17	1.025605E-18
6.310000E+03	2.303716E-17	1.023532E-18
6.320000E+03	2.294971E-17	1.021821E-18
6.330000E+03	2.286424E-17	1.020655E-18
6.340000E+03	2.277650E-17	1.019822E-18
6.350000E+03	2.268887E-17	1.019406E-18
6.360000E+03	2.260366E-17	1.019490E-18
6.370000E+03	2.251666E-17	1.019860E-18
6.380000E+03	2.243016E-17	1.020599E-18
6.390000E+03	2.234428E-17	1.021692E-18
6.400000E+03	2.226127E-17	1.023221E-18
6.410000E+03	2.217692E-17	1.024971E-18
6.420000E+03	2.209347E-17	1.027023E-18
6.430000E+03	2.201100E-17	1.029361E-18
6.440000E+03	2.192955E-17	1.031963E-18
6.450000E+03	2.184919E-17	1.034811E-18
6.460000E+03	2.176785E-17	1.037780E-18
6.470000E+03	2.168979E-17	1.041049E-18
6.480000E+03	2.161292E-17	1.044495E-18
6.490000E+03	2.153728E-17	1.048092E-18
6.500000E+03	2.146078E-17	1.051716E-18
6.510000E+03	2.138761E-17	1.055547E-18
6.520000E+03	2.131569E-17	1.059459E-18
6.530000E+03	2.124295E-17	1.063327E-18
6.540000E+03	2.117352E-17	1.067335E-18
6.550000E+03	2.110327E-17	1.071257E-18
6.560000E+03	2.103630E-17	1.075279E-18
6.570000E+03	2.096849E-17	1.079174E-18
6.580000E+03	2.090390E-17	1.083134E-18
6.590000E+03	2.083845E-17	1.086931E-18
6.600000E+03	2.077414E-17	1.090654E-18
6.610000E+03	2.071296E-17	1.094394E-18
6.620000E+03	2.065085E-17	1.097925E-18
6.630000E+03	2.058980E-17	1.101340E-18
6.640000E+03	2.052976E-17	1.104626E-18
6.650000E+03	2.047269E-17	1.107879E-18
6.660000E+03	2.041457E-17	1.110873E-18
6.670000E+03	2.035735E-17	1.113705E-18
6.680000E+03	2.030099E-17	1.116366E-18
6.690000E+03	2.024544E-17	1.118847E-18
6.700000E+03	2.019066E-17	1.121139E-18
6.710000E+03	2.013659E-17	1.123235E-18
6.720000E+03	2.008320E-17	1.125127E-18
6.730000E+03	2.003043E-17	1.126809E-18
6.740000E+03	1.997823E-17	1.128274E-18
6.750000E+03	1.992460E-17	1.129405E-18
6.760000E+03	1.987338E-17	1.130418E-18
6.770000E+03	1.982258E-17	1.131197E-18
6.780000E+03	1.977212E-17	1.131736E-18
6.790000E+03	1.972003E-17	1.131921E-18
6.800000E+03	1.967012E-17	1.131968E-18
6.810000E+03	1.962039E-17	1.131763E-18
6.820000E+03	1.956886E-17	1.131191E-18
6.830000E+03	1.951932E-17	1.130471E-18
6.840000E+03	1.946979E-17	1.129487E-18
6.850000E+03	1.941829E-17	1.128128E-18
6.860000E+03	1.936860E-17	1.126611E-18
6.870000E+03	1.931683E-17	1.124715E-18
6.880000E+03	1.926674E-17	1.122657E-18
6.890000E+03	1.921447E-17	1.120216E-18
6.900000E+03	1.916186E-17	1.117502E-18
6.910000E+03	1.911074E-17	1.114624E-18
6.920000E+03	1.905728E-17	1.111363E-18
6.930000E+03	1.900332E-17	1.107829E-18
6.940000E+03	1.895067E-17	1.104133E-18
6.950000E+03	1.889554E-17	1.100058E-18
6.960000E+03	1.883976E-17	1.095716E-18
6.970000E+03	1.878327E-17	1.091109E-18
6.980000E+03	1.872605E-17	1.086241E-18
6.990000E+03	1.866805E-17	1.081116E-18
7.000000E+03	1.861107E-17	1.075845E-18
7.010000E+03	1.855141E-17	1.070219E-18
7.020000E+03	1.849088E-17	1.064352E-18
7.030000E+03	1.842948E-17	1.058249E-18
7.040000E+03	1.836536E-17	1.051812E-18
7.050000E+03	1.830216E-17	1.045259E-18
7.060000E+03	1.823807E-17	1.038491E-18
7.070000E+03	1.817309E-17	1.031517E-18
7.080000E+03	1.810723E-17	1.024345E-18
7.090000E+03	1.804053E-17	1.016985E-18
7.100000E+03	1.797122E-17	1.009345E-18
7.110000E+03	1.790293E-17	1.001637E-18
7.120000E+03	1.783390E-17	9.937679E-19
7.130000E+03	1.776420E-17	9.857491E-19
7.140000E+03	1.769211E-17	9.774935E-19
7.150000E+03	1.762125E-17	9.692066E-19
7.160000E+03	1.754817E-17	9.607054E-19
7.170000E+03	1.747645E-17	9.521929E-19
7.180000E+03	1.740269E-17	9.434893E-19
7.190000E+03	1.733045E-17	9.347945E-19
7.200000E+03	1.725637E-17	9.259324E-19
7.210000E+03	1.718227E-17	9.170081E-19
7.220000E+03	1.710998E-17	9.081237E-19
7.230000E+03	1.703615E-17	8.991082E-19
7.240000E+03	1.696262E-17	8.900650E-19
7.250000E+03	1.688947E-17	8.810056E-19
7.260000E+03	1.681850E-17	8.720296E-19
7.270000E+03	1.674644E-17	8.629737E-19
7.280000E+03	1.667506E-17	8.539387E-19
7.290000E+03	1.660446E-17	8.449378E-19
7.300000E+03	1.653474E-17	8.359845E-19
7.310000E+03	1.646597E-17	8.270931E-19
7.320000E+03	1.639825E-17	8.182782E-19
7.330000E+03	1.633165E-17	8.095553E-19
7.340000E+03	1.626625E-17	8.009407E-19
7.350000E+03	1.620048E-17	7.923717E-19
7.360000E+03	1.613767E-17	7.840267E-19
7.370000E+03	1.607626E-17	7.758440E-19
7.380000E+03	1.601628E-17	7.678436E-19
7.390000E+03	1.595619E-17	7.599696E-19
7.400000E+03	1.589924E-17	7.523982E-19
7.410000E+03	1.584227E-17	7.449994E-19
7.420000E+03	1.578851E-17	7.379484E-19
7.430000E+03	1.573479E-17	7.311197E-19
7.440000E+03	1.568432E-17	7.246874E-19
7.450000E+03	1.563395E-17	7.185298E-19
7.460000E+03	1.558528E-17	7.127471E-19
7.470000E+03	1.553990E-17	7.074373E-19
7.480000E+03	1.549465E-17	7.024826E-19
7.490000E+03	1.545112E-17	6.979806E-19
7.500000E+03	1.540930E-17	6.939559E-19
7.510000E+03	1.536918E-17	6.904316E-19
7.520000E+03	1.533076E-17	6.874289E-19
7.530000E+03	1.529402E-17	6.849658E-19
7.540000E+03	1.525892E-17	6.830570E-19
7.550000E+03	1.522544E-17	6.817125E-19
7.560000E+03	1.519354E-17	6.809371E-19
7.570000E+03	1.516317E-17	6.807305E-19
7.580000E+03	1.513272E-17	6.810179E-19
7.590000E+03	1.510525E-17	6.819292E-19
7.600000E+03	1.507913E-17	6.833825E-19
7.610000E+03	1.505275E-17	6.852923E-19
7.620000E+03	1.502915E-17	6.877813E-19
7.630000E+03	1.500517E-17	6.906893E-19
7.640000E+03	1.498382E-17	6.941368E-19
7.650000E+03	1.496197E-17	6.979592E-19
7.660000E+03	1.494109E-17	7.022042E-19
7.670000E+03	1.492110E-17	7.068478E-19
7.680000E+03	1.490350E-17	7.119388E-19
7.690000E+03	1.488514E-17	7.173062E-19
7.700000E+03	1.486751E-17	7.229980E-19
7.710000E+03	1.485053E-17	7.289894E-19
7.720000E+03	1.483417E-17	7.352557E-19
7.730000E+03	1.481837E-17	7.417728E-19
7.740000E+03	1.480307E-17	7.485169E-19
7.750000E+03	1.478669E-17	7.553867E-19
7.760000E+03	1.477226E-17	7.625156E-19
