#wls	flux	fluxerr
1.600000E+03	1.684759E-18	7.399087E-19
1.640000E+03	1.714781E-18	7.500044E-19
1.680000E+03	1.745927E-18	7.604049E-19
1.720000E+03	1.778564E-18	7.712592E-19
1.760000E+03	1.812110E-18	7.823021E-19
1.800000E+03	1.847267E-18	7.938242E-19
1.840000E+03	1.883431E-18	8.055530E-19
1.880000E+03	1.921334E-18	8.177878E-19
1.920000E+03	1.960354E-18	8.302485E-19
1.960000E+03	2.001254E-18	8.432434E-19
2.000000E+03	2.043390E-18	8.564843E-19
2.040000E+03	2.087561E-18	8.702891E-19
2.080000E+03	2.133482E-18	8.845194E-19
2.120000E+03	2.180841E-18	8.990271E-19
2.160000E+03	2.230493E-18	9.141456E-19
2.200000E+03	2.282143E-18	9.297297E-19
2.240000E+03	2.335880E-18	9.457932E-19
2.280000E+03	2.391797E-18	9.623496E-19
2.320000E+03	2.449994E-18	9.794128E-19
2.360000E+03	2.510572E-18	9.969962E-19
2.400000E+03	2.573637E-18	1.015113E-18
2.440000E+03	2.639301E-18	1.033777E-18
2.480000E+03	2.707678E-18	1.053001E-18
2.520000E+03	2.778889E-18	1.072796E-18
2.560000E+03	2.853057E-18	1.093174E-18
2.600000E+03	2.930311E-18	1.114145E-18
2.640000E+03	3.011322E-18	1.135923E-18
2.680000E+03	3.095167E-18	1.158112E-18
2.720000E+03	3.182511E-18	1.180920E-18
2.760000E+03	3.274084E-18	1.204565E-18
2.800000E+03	3.368884E-18	1.228624E-18
2.840000E+03	3.467633E-18	1.253309E-18
2.880000E+03	3.571124E-18	1.278844E-18
2.920000E+03	3.678262E-18	1.304772E-18
2.960000E+03	3.790502E-18	1.331544E-18
3.000000E+03	3.906677E-18	1.358675E-18
3.010000E+03	3.936808E-18	1.365670E-18
3.020000E+03	3.967244E-18	1.372702E-18
3.030000E+03	3.997276E-18	1.379524E-18
3.040000E+03	4.028324E-18	1.386627E-18
3.050000E+03	4.059686E-18	1.393765E-18
3.060000E+03	4.090635E-18	1.400690E-18
3.070000E+03	4.122625E-18	1.407896E-18
3.080000E+03	4.154935E-18	1.415138E-18
3.090000E+03	4.186824E-18	1.422159E-18
3.100000E+03	4.219778E-18	1.429466E-18
3.110000E+03	4.253061E-18	1.436805E-18
3.120000E+03	4.285913E-18	1.443920E-18
3.130000E+03	4.319854E-18	1.451321E-18
3.140000E+03	4.353359E-18	1.458495E-18
3.150000E+03	4.387969E-18	1.465956E-18
3.160000E+03	4.422921E-18	1.473446E-18
3.170000E+03	4.457425E-18	1.480702E-18
3.180000E+03	4.493060E-18	1.488248E-18
3.190000E+03	4.529045E-18	1.495820E-18
3.200000E+03	4.564570E-18	1.503152E-18
3.210000E+03	4.601253E-18	1.510775E-18
3.220000E+03	4.638291E-18	1.518423E-18
3.230000E+03	4.674859E-18	1.525823E-18
3.240000E+03	4.712610E-18	1.533516E-18
3.250000E+03	4.750725E-18	1.541230E-18
3.260000E+03	4.789204E-18	1.548964E-18
3.270000E+03	4.827195E-18	1.556442E-18
3.280000E+03	4.866405E-18	1.564213E-18
3.290000E+03	4.905987E-18	1.572001E-18
3.300000E+03	4.945066E-18	1.579525E-18
3.310000E+03	4.985391E-18	1.587342E-18
3.320000E+03	5.026094E-18	1.595173E-18
3.330000E+03	5.066279E-18	1.602732E-18
3.340000E+03	5.107737E-18	1.610584E-18
3.350000E+03	5.149578E-18	1.618446E-18
3.360000E+03	5.190886E-18	1.626027E-18
3.370000E+03	5.233494E-18	1.633902E-18
3.380000E+03	5.276491E-18	1.641781E-18
3.390000E+03	5.318936E-18	1.649372E-18
3.400000E+03	5.362709E-18	1.657254E-18
3.410000E+03	5.406875E-18	1.665137E-18
3.420000E+03	5.450472E-18	1.672721E-18
3.430000E+03	5.495422E-18	1.680597E-18
3.440000E+03	5.540771E-18	1.688467E-18
3.450000E+03	5.586519E-18	1.696330E-18
3.460000E+03	5.631670E-18	1.703882E-18
3.470000E+03	5.678212E-18	1.711722E-18
3.480000E+03	5.725156E-18	1.719549E-18
3.490000E+03	5.771482E-18	1.727055E-18
3.500000E+03	5.819225E-18	1.734848E-18
3.510000E+03	5.867373E-18	1.742621E-18
3.520000E+03	5.914880E-18	1.750062E-18
3.530000E+03	5.963830E-18	1.757787E-18
3.540000E+03	6.013186E-18	1.765485E-18
3.550000E+03	6.062949E-18	1.773154E-18
3.560000E+03	6.112038E-18	1.780476E-18
3.570000E+03	6.162605E-18	1.788078E-18
3.580000E+03	6.213578E-18	1.795642E-18
3.590000E+03	6.263850E-18	1.802849E-18
3.600000E+03	6.315627E-18	1.810331E-18
3.610000E+03	6.367808E-18	1.817767E-18
3.620000E+03	6.419261E-18	1.824834E-18
3.630000E+03	6.472241E-18	1.832171E-18
3.640000E+03	6.525625E-18	1.839455E-18
3.650000E+03	6.579411E-18	1.846682E-18
3.660000E+03	6.632427E-18	1.853522E-18
3.670000E+03	6.687003E-18	1.860626E-18
3.680000E+03	6.741977E-18	1.867664E-18
3.690000E+03	6.796148E-18	1.874302E-18
3.700000E+03	6.851903E-18	1.881198E-18
3.710000E+03	6.908050E-18	1.888018E-18
3.720000E+03	6.963359E-18	1.894426E-18
3.730000E+03	7.020274E-18	1.901084E-18
3.740000E+03	7.077574E-18	1.907657E-18
3.750000E+03	7.133999E-18	1.913803E-18
3.760000E+03	7.192050E-18	1.920193E-18
3.770000E+03	7.250478E-18	1.926486E-18
3.780000E+03	7.309279E-18	1.932680E-18
3.790000E+03	7.367150E-18	1.938430E-18
3.800000E+03	7.426676E-18	1.944412E-18
3.810000E+03	7.486563E-18	1.950284E-18
3.820000E+03	7.545478E-18	1.955697E-18
3.830000E+03	7.606064E-18	1.961335E-18
3.840000E+03	7.667000E-18	1.966851E-18
3.850000E+03	7.726918E-18	1.971893E-18
3.860000E+03	7.788524E-18	1.977152E-18
3.870000E+03	7.850464E-18	1.982278E-18
3.880000E+03	7.912732E-18	1.987266E-18
3.890000E+03	7.973917E-18	1.991761E-18
3.900000E+03	8.036811E-18	1.996461E-18
3.910000E+03	8.100015E-18	2.001012E-18
3.920000E+03	8.162085E-18	2.005056E-18
3.930000E+03	8.225877E-18	2.009295E-18
3.940000E+03	8.289957E-18	2.013373E-18
3.950000E+03	8.352850E-18	2.016930E-18
3.960000E+03	8.417476E-18	2.020673E-18
3.970000E+03	8.482367E-18	2.024243E-18
3.980000E+03	8.546014E-18	2.027279E-18
3.990000E+03	8.611403E-18	2.030491E-18
4.000000E+03	8.677032E-18	2.033517E-18
4.010000E+03	8.741357E-18	2.035998E-18
4.020000E+03	8.807430E-18	2.038643E-18
4.030000E+03	8.873716E-18	2.041093E-18
4.040000E+03	8.938635E-18	2.042985E-18
4.050000E+03	9.005306E-18	2.045031E-18
4.060000E+03	9.072160E-18	2.046871E-18
4.070000E+03	9.137582E-18	2.048142E-18
4.080000E+03	9.204758E-18	2.049558E-18
4.090000E+03	9.272085E-18	2.050758E-18
4.100000E+03	9.337910E-18	2.051377E-18
4.110000E+03	9.405489E-18	2.052133E-18
4.120000E+03	9.473183E-18	2.052664E-18
4.130000E+03	9.539304E-18	2.052605E-18
4.140000E+03	9.607178E-18	2.052675E-18
4.150000E+03	9.675127E-18	2.052511E-18
4.160000E+03	9.741429E-18	2.051751E-18
4.170000E+03	9.809478E-18	2.051112E-18
4.180000E+03	9.877562E-18	2.050232E-18
4.190000E+03	9.943922E-18	2.048749E-18
4.200000E+03	1.001202E-17	2.047382E-18
4.210000E+03	1.008011E-17	2.045769E-18
4.220000E+03	1.014640E-17	2.043550E-18
4.230000E+03	1.021441E-17	2.041441E-18
4.240000E+03	1.028237E-17	2.039083E-18
4.250000E+03	1.034845E-17	2.036118E-18
4.260000E+03	1.041623E-17	2.033259E-18
4.270000E+03	1.048392E-17	2.030151E-18
4.280000E+03	1.054963E-17	2.026437E-18
4.290000E+03	1.061705E-17	2.022828E-18
4.300000E+03	1.068244E-17	2.018617E-18
4.310000E+03	1.074951E-17	2.014513E-18
4.320000E+03	1.081639E-17	2.010162E-18
4.330000E+03	1.088116E-17	2.005215E-18
4.340000E+03	1.094759E-17	2.000377E-18
4.350000E+03	1.101378E-17	1.995299E-18
4.360000E+03	1.107776E-17	1.989635E-18
4.370000E+03	1.114338E-17	1.984087E-18
4.380000E+03	1.120674E-17	1.977962E-18
4.390000E+03	1.127173E-17	1.971959E-18
4.400000E+03	1.133637E-17	1.965734E-18
4.410000E+03	1.139866E-17	1.958949E-18
4.420000E+03	1.146254E-17	1.952298E-18
4.430000E+03	1.152400E-17	1.945101E-18
4.440000E+03	1.158705E-17	1.938047E-18
4.450000E+03	1.164965E-17	1.930801E-18
4.460000E+03	1.170974E-17	1.923035E-18
4.470000E+03	1.177137E-17	1.915431E-18
4.480000E+03	1.183043E-17	1.907325E-18
4.490000E+03	1.189102E-17	1.899396E-18
4.500000E+03	1.195106E-17	1.891318E-18
4.510000E+03	1.200843E-17	1.882772E-18
4.520000E+03	1.206729E-17	1.874430E-18
4.530000E+03	1.212342E-17	1.865644E-18
4.540000E+03	1.218103E-17	1.857082E-18
4.550000E+03	1.223584E-17	1.848104E-18
4.560000E+03	1.229210E-17	1.839372E-18
4.570000E+03	1.234766E-17	1.830575E-18
4.580000E+03	1.240033E-17	1.821408E-18
4.590000E+03	1.245442E-17	1.812524E-18
4.600000E+03	1.250556E-17	1.803305E-18
4.610000E+03	1.255809E-17	1.794396E-18
4.620000E+03	1.260761E-17	1.785187E-18
4.630000E+03	1.265850E-17	1.776318E-18
4.640000E+03	1.270855E-17	1.767495E-18
4.650000E+03	1.275550E-17	1.758426E-18
4.660000E+03	1.280378E-17	1.749747E-18
4.670000E+03	1.284891E-17	1.740863E-18
4.680000E+03	1.289536E-17	1.732401E-18
4.690000E+03	1.293859E-17	1.723774E-18
4.700000E+03	1.298312E-17	1.715605E-18
4.710000E+03	1.302439E-17	1.707313E-18
4.720000E+03	1.306692E-17	1.699513E-18
4.730000E+03	1.310615E-17	1.691630E-18
4.740000E+03	1.314663E-17	1.684275E-18
4.750000E+03	1.318375E-17	1.676878E-18
4.760000E+03	1.322210E-17	1.670043E-18
4.770000E+03	1.325706E-17	1.663205E-18
4.780000E+03	1.329322E-17	1.656962E-18
4.790000E+03	1.332595E-17	1.650751E-18
4.800000E+03	1.335987E-17	1.645167E-18
4.810000E+03	1.339032E-17	1.639648E-18
4.820000E+03	1.342195E-17	1.634782E-18
4.830000E+03	1.345008E-17	1.630011E-18
4.840000E+03	1.347937E-17	1.625916E-18
4.850000E+03	1.350513E-17	1.621940E-18
4.860000E+03	1.353206E-17	1.618657E-18
4.870000E+03	1.355543E-17	1.615511E-18
4.880000E+03	1.357995E-17	1.613065E-18
4.890000E+03	1.360091E-17	1.610751E-18
4.900000E+03	1.362304E-17	1.609123E-18
4.910000E+03	1.364160E-17	1.607608E-18
4.920000E+03	1.366133E-17	1.606755E-18
4.930000E+03	1.367750E-17	1.605991E-18
4.940000E+03	1.369486E-17	1.605861E-18
4.950000E+03	1.370866E-17	1.605790E-18
4.960000E+03	1.372128E-17	1.606040E-18
4.970000E+03	1.373512E-17	1.606873E-18
4.980000E+03	1.374542E-17	1.607711E-18
4.990000E+03	1.375696E-17	1.609095E-18
5.000000E+03	1.376497E-17	1.610443E-18
5.010000E+03	1.377425E-17	1.612297E-18
5.020000E+03	1.378001E-17	1.614074E-18
5.030000E+03	1.378468E-17	1.616033E-18
5.040000E+03	1.379065E-17	1.618434E-18
5.050000E+03	1.379314E-17	1.620693E-18
5.060000E+03	1.379697E-17	1.623353E-18
5.070000E+03	1.379736E-17	1.625827E-18
5.080000E+03	1.379911E-17	1.628659E-18
5.090000E+03	1.379744E-17	1.631263E-18
5.100000E+03	1.379477E-17	1.633900E-18
5.110000E+03	1.379351E-17	1.636836E-18
5.120000E+03	1.378888E-17	1.639480E-18
5.130000E+03	1.378330E-17	1.642099E-18
5.140000E+03	1.377919E-17	1.644958E-18
5.150000E+03	1.377176E-17	1.647469E-18
5.160000E+03	1.376582E-17	1.650185E-18
5.170000E+03	1.375661E-17	1.652516E-18
5.180000E+03	1.374654E-17	1.654733E-18
5.190000E+03	1.373801E-17	1.657107E-18
5.200000E+03	1.372627E-17	1.659046E-18
5.210000E+03	1.371372E-17	1.660825E-18
5.220000E+03	1.370277E-17	1.662718E-18
5.230000E+03	1.368867E-17	1.664134E-18
5.240000E+03	1.367619E-17	1.665638E-18
5.250000E+03	1.366061E-17	1.666641E-18
5.260000E+03	1.364433E-17	1.667419E-18
5.270000E+03	1.362972E-17	1.668252E-18
5.280000E+03	1.361207E-17	1.668550E-18
5.290000E+03	1.359377E-17	1.668594E-18
5.300000E+03	1.357721E-17	1.668665E-18
5.310000E+03	1.355767E-17	1.668175E-18
5.320000E+03	1.353754E-17	1.667407E-18
5.330000E+03	1.351684E-17	1.666352E-18
5.340000E+03	1.349794E-17	1.665296E-18
5.350000E+03	1.347615E-17	1.663652E-18
5.360000E+03	1.345386E-17	1.661705E-18
5.370000E+03	1.343341E-17	1.659740E-18
5.380000E+03	1.341014E-17	1.657174E-18
5.390000E+03	1.338643E-17	1.654294E-18
5.400000E+03	1.336460E-17	1.651382E-18
5.410000E+03	1.334003E-17	1.647862E-18
5.420000E+03	1.331506E-17	1.644020E-18
5.430000E+03	1.328972E-17	1.639854E-18
5.440000E+03	1.326633E-17	1.635646E-18
5.450000E+03	1.324028E-17	1.630827E-18
5.460000E+03	1.321392E-17	1.625681E-18
5.470000E+03	1.318953E-17	1.620491E-18
5.480000E+03	1.316258E-17	1.614692E-18
5.490000E+03	1.313535E-17	1.608569E-18
5.500000E+03	1.310787E-17	1.602121E-18
5.510000E+03	1.308243E-17	1.595629E-18
5.520000E+03	1.305451E-17	1.588538E-18
5.530000E+03	1.302638E-17	1.581130E-18
5.540000E+03	1.299807E-17	1.573406E-18
5.550000E+03	1.296960E-17	1.565371E-18
5.560000E+03	1.294323E-17	1.557297E-18
5.570000E+03	1.291448E-17	1.548646E-18
5.580000E+03	1.288561E-17	1.539694E-18
5.590000E+03	1.285665E-17	1.530446E-18
5.600000E+03	1.282982E-17	1.521169E-18
5.610000E+03	1.280070E-17	1.511339E-18
5.620000E+03	1.277153E-17	1.501226E-18
5.630000E+03	1.274233E-17	1.490837E-18
5.640000E+03	1.271310E-17	1.480177E-18
5.650000E+03	1.268606E-17	1.469506E-18
5.660000E+03	1.265683E-17	1.458320E-18
5.670000E+03	1.262762E-17	1.446881E-18
5.680000E+03	1.259845E-17	1.435198E-18
5.690000E+03	1.256933E-17	1.423276E-18
5.700000E+03	1.254245E-17	1.411368E-18
5.710000E+03	1.251347E-17	1.398991E-18
5.720000E+03	1.248459E-17	1.386398E-18
5.730000E+03	1.245580E-17	1.373600E-18
5.740000E+03	1.242714E-17	1.360604E-18
5.750000E+03	1.239861E-17	1.347420E-18
5.760000E+03	1.237237E-17	1.334288E-18
5.770000E+03	1.234414E-17	1.320754E-18
5.780000E+03	1.231607E-17	1.307060E-18
5.790000E+03	1.228819E-17	1.293219E-18
5.800000E+03	1.226050E-17	1.279241E-18
5.810000E+03	1.223302E-17	1.265137E-18
5.820000E+03	1.220787E-17	1.251137E-18
5.830000E+03	1.218083E-17	1.236817E-18
5.840000E+03	1.215403E-17	1.222408E-18
5.850000E+03	1.212749E-17	1.207926E-18
5.860000E+03	1.210120E-17	1.193383E-18
5.870000E+03	1.207519E-17	1.178794E-18
5.880000E+03	1.204947E-17	1.164176E-18
5.890000E+03	1.202403E-17	1.149544E-18
5.900000E+03	1.199891E-17	1.134915E-18
5.910000E+03	1.197617E-17	1.120500E-18
5.920000E+03	1.195169E-17	1.105928E-18
5.930000E+03	1.192753E-17	1.091414E-18
5.940000E+03	1.190373E-17	1.076978E-18
5.950000E+03	1.188027E-17	1.062640E-18
5.960000E+03	1.185719E-17	1.048424E-18
5.970000E+03	1.183447E-17	1.034351E-18
5.980000E+03	1.181214E-17	1.020446E-18
5.990000E+03	1.179020E-17	1.006733E-18
6.000000E+03	1.176866E-17	9.932379E-19
6.010000E+03	1.174957E-17	9.801579E-19
6.020000E+03	1.172885E-17	9.671788E-19
6.030000E+03	1.170856E-17	9.545015E-19
6.040000E+03	1.168870E-17	9.421559E-19
6.050000E+03	1.166929E-17	9.301729E-19
6.060000E+03	1.165032E-17	9.185841E-19
6.070000E+03	1.163181E-17	9.074218E-19
6.080000E+03	1.161377E-17	8.967190E-19
6.090000E+03	1.159619E-17	8.865092E-19
6.100000E+03	1.157909E-17	8.768261E-19
6.110000E+03	1.156248E-17	8.677036E-19
6.120000E+03	1.154635E-17	8.591753E-19
6.130000E+03	1.153072E-17	8.512742E-19
6.140000E+03	1.151559E-17	8.440327E-19
6.150000E+03	1.150096E-17	8.374820E-19
6.160000E+03	1.148685E-17	8.316518E-19
6.170000E+03	1.147324E-17	8.265697E-19
6.180000E+03	1.146015E-17	8.222614E-19
6.190000E+03	1.144758E-17	8.187495E-19
6.200000E+03	1.143554E-17	8.160539E-19
6.210000E+03	1.142401E-17	8.141910E-19
6.220000E+03	1.141301E-17	8.131730E-19
6.230000E+03	1.140253E-17	8.129960E-19
6.240000E+03	1.139257E-17	8.136414E-19
6.250000E+03	1.138313E-17	8.150867E-19
6.260000E+03	1.137420E-17	8.173062E-19
6.270000E+03	1.136578E-17	8.202716E-19
6.280000E+03	1.135787E-17	8.239521E-19
6.290000E+03	1.135045E-17	8.283149E-19
6.300000E+03	1.134353E-17	8.333258E-19
6.310000E+03	1.133709E-17	8.389494E-19
6.320000E+03	1.133114E-17	8.451495E-19
6.330000E+03	1.132566E-17	8.518893E-19
6.340000E+03	1.132065E-17	8.591321E-19
6.350000E+03	1.131609E-17	8.668414E-19
6.360000E+03	1.131200E-17	8.749809E-19
6.370000E+03	1.130834E-17	8.835150E-19
6.380000E+03	1.130512E-17	8.924092E-19
6.390000E+03	1.130234E-17	9.016293E-19
6.400000E+03	1.129997E-17	9.111428E-19
6.410000E+03	1.129802E-17	9.209178E-19
6.420000E+03	1.129647E-17	9.309239E-19
6.430000E+03	1.129532E-17	9.411318E-19
6.440000E+03	1.129456E-17	9.515135E-19
6.450000E+03	1.129419E-17	9.620420E-19
6.460000E+03	1.129418E-17	9.726919E-19
6.470000E+03	1.129258E-17	9.832683E-19
6.480000E+03	1.129329E-17	9.940869E-19
6.490000E+03	1.129435E-17	1.004957E-18
6.500000E+03	1.129575E-17	1.015858E-18
6.510000E+03	1.129748E-17	1.026770E-18
6.520000E+03	1.129953E-17	1.037673E-18
6.530000E+03	1.130189E-17	1.048551E-18
6.540000E+03	1.130456E-17	1.059385E-18
6.550000E+03	1.130752E-17	1.070160E-18
6.560000E+03	1.131077E-17	1.080861E-18
6.570000E+03	1.131430E-17	1.091473E-18
6.580000E+03	1.131809E-17	1.101982E-18
6.590000E+03	1.132019E-17	1.112184E-18
6.600000E+03	1.132450E-17	1.122448E-18
6.610000E+03	1.132905E-17	1.132572E-18
6.620000E+03	1.133384E-17	1.142546E-18
6.630000E+03	1.133886E-17	1.152358E-18
6.640000E+03	1.134409E-17	1.162000E-18
6.650000E+03	1.134953E-17	1.171460E-18
6.660000E+03	1.135517E-17	1.180731E-18
6.670000E+03	1.136101E-17	1.189803E-18
6.680000E+03	1.136505E-17	1.198462E-18
6.690000E+03	1.137124E-17	1.207112E-18
6.700000E+03	1.137759E-17	1.215542E-18
6.710000E+03	1.138410E-17	1.223743E-18
6.720000E+03	1.139075E-17	1.231709E-18
6.730000E+03	1.139754E-17	1.239435E-18
6.740000E+03	1.140446E-17	1.246914E-18
6.750000E+03	1.140952E-17	1.253923E-18
6.760000E+03	1.141666E-17	1.260891E-18
6.770000E+03	1.142391E-17	1.267596E-18
6.780000E+03	1.143125E-17	1.274035E-18
6.790000E+03	1.143867E-17	1.280202E-18
6.800000E+03	1.144616E-17	1.286094E-18
6.810000E+03	1.145173E-17	1.291484E-18
6.820000E+03	1.145933E-17	1.296814E-18
6.830000E+03	1.146698E-17	1.301858E-18
6.840000E+03	1.147467E-17	1.306615E-18
6.850000E+03	1.148237E-17	1.311080E-18
6.860000E+03	1.149010E-17	1.315252E-18
6.870000E+03	1.149583E-17	1.318900E-18
6.880000E+03	1.150355E-17	1.322480E-18
6.890000E+03	1.151125E-17	1.325761E-18
6.900000E+03	1.151893E-17	1.328743E-18
6.910000E+03	1.152657E-17	1.331424E-18
6.920000E+03	1.153217E-17	1.333573E-18
6.930000E+03	1.153971E-17	1.335652E-18
6.940000E+03	1.154718E-17	1.337431E-18
6.950000E+03	1.155457E-17	1.338908E-18
6.960000E+03	1.156187E-17	1.340086E-18
6.970000E+03	1.156707E-17	1.340733E-18
6.980000E+03	1.157416E-17	1.341315E-18
6.990000E+03	1.158113E-17	1.341602E-18
7.000000E+03	1.158797E-17	1.341595E-18
7.010000E+03	1.159467E-17	1.341298E-18
7.020000E+03	1.159920E-17	1.340481E-18
7.030000E+03	1.160557E-17	1.339613E-18
7.040000E+03	1.161177E-17	1.338464E-18
7.050000E+03	1.161778E-17	1.337039E-18
7.060000E+03	1.162158E-17	1.335112E-18
7.070000E+03	1.162718E-17	1.333150E-18
7.080000E+03	1.163255E-17	1.330928E-18
7.090000E+03	1.163770E-17	1.328453E-18
7.100000E+03	1.164259E-17	1.325729E-18
7.110000E+03	1.164521E-17	1.322537E-18
7.120000E+03	1.164958E-17	1.319342E-18
7.130000E+03	1.165367E-17	1.315924E-18
7.140000E+03	1.165746E-17	1.312291E-18
7.150000E+03	1.165893E-17	1.308226E-18
7.160000E+03	1.166210E-17	1.304193E-18
7.170000E+03	1.166495E-17	1.299977E-18
7.180000E+03	1.166745E-17	1.295589E-18
7.190000E+03	1.166758E-17	1.290817E-18
7.200000E+03	1.166937E-17	1.286122E-18
7.210000E+03	1.167078E-17	1.281294E-18
7.220000E+03	1.166978E-17	1.276125E-18
7.230000E+03	1.167041E-17	1.271074E-18
7.240000E+03	1.167063E-17	1.265936E-18
7.250000E+03	1.167043E-17	1.260725E-18
7.260000E+03	1.166776E-17	1.255242E-18
7.270000E+03	1.166669E-17	1.249942E-18
7.280000E+03	1.166515E-17	1.244624E-18
7.290000E+03	1.166315E-17	1.239308E-18
7.300000E+03	1.165865E-17	1.233799E-18
7.310000E+03	1.165568E-17	1.228549E-18
7.320000E+03	1.165222E-17	1.223362E-18
7.330000E+03	1.164623E-17	1.218050E-18
7.340000E+03	1.164175E-17	1.213059E-18
7.350000E+03	1.163673E-17	1.208201E-18
7.360000E+03	1.162917E-17	1.203288E-18
7.370000E+03	1.162307E-17	1.198765E-18
7.380000E+03	1.161643E-17	1.194446E-18
7.390000E+03	1.160922E-17	1.190355E-18
7.400000E+03	1.159943E-17	1.186311E-18
7.410000E+03	1.159108E-17	1.182751E-18
7.420000E+03	1.158214E-17	1.179493E-18
7.430000E+03	1.157060E-17	1.176356E-18
7.440000E+03	1.156048E-17	1.173774E-18
7.450000E+03	1.154976E-17	1.171565E-18
7.460000E+03	1.153642E-17	1.169548E-18
7.470000E+03	1.152448E-17	1.168152E-18
7.480000E+03	1.151192E-17	1.167195E-18
7.490000E+03	1.149675E-17	1.166492E-18
7.500000E+03	1.148296E-17	1.166467E-18
7.510000E+03	1.146855E-17	1.166935E-18
7.520000E+03	1.145151E-17	1.167707E-18
7.530000E+03	1.143585E-17	1.169202E-18
7.540000E+03	1.141957E-17	1.171228E-18
7.550000E+03	1.140067E-17	1.173591E-18
7.560000E+03	1.138314E-17	1.176698E-18
7.570000E+03	1.136499E-17	1.180341E-18
7.580000E+03	1.134424E-17	1.184303E-18
7.590000E+03	1.132484E-17	1.188986E-18
7.600000E+03	1.130483E-17	1.194172E-18
7.610000E+03	1.128223E-17	1.199638E-18
7.620000E+03	1.126099E-17	1.205787E-18
7.630000E+03	1.123718E-17	1.212183E-18
7.640000E+03	1.121472E-17	1.219230E-18
7.650000E+03	1.119167E-17	1.226698E-18
7.660000E+03	1.116607E-17	1.234355E-18
7.670000E+03	1.114184E-17	1.242610E-18
7.680000E+03	1.111702E-17	1.251227E-18
7.690000E+03	1.108969E-17	1.259968E-18
7.700000E+03	1.106374E-17	1.269249E-18
7.710000E+03	1.103529E-17	1.278609E-18
7.720000E+03	1.100822E-17	1.288470E-18
7.730000E+03	1.098061E-17	1.298592E-18
7.740000E+03	1.095055E-17	1.308724E-18
7.750000E+03	1.092188E-17	1.319302E-18
7.760000E+03	1.089078E-17	1.329848E-18
