#wls	flux	fluxerr
1.454545E+03	1.164225E-18	0.000000E+00
1.490909E+03	1.219426E-18	0.000000E+00
1.527273E+03	1.275161E-18	0.000000E+00
1.563636E+03	1.331213E-18	0.000000E+00
1.600000E+03	1.387274E-18	0.000000E+00
1.636364E+03	1.442499E-18	0.000000E+00
1.672727E+03	1.495095E-18	0.000000E+00
1.709091E+03	1.543420E-18	0.000000E+00
1.745455E+03	1.585197E-18	0.000000E+00
1.781818E+03	1.618335E-18	0.000000E+00
1.818182E+03	1.642115E-18	0.000000E+00
1.854545E+03	1.659464E-18	0.000000E+00
1.890909E+03	1.678515E-18	0.000000E+00
1.927273E+03	1.712175E-18	0.000000E+00
1.963636E+03	1.774085E-18	0.000000E+00
2.000000E+03	1.871530E-18	0.000000E+00
2.036364E+03	2.003232E-18	0.000000E+00
2.072727E+03	2.162549E-18	0.000000E+00
2.109091E+03	2.342891E-18	0.000000E+00
2.145455E+03	2.540951E-18	0.000000E+00
2.181818E+03	2.756028E-18	0.000000E+00
2.218182E+03	2.987834E-18	0.000000E+00
2.254545E+03	3.235706E-18	0.000000E+00
2.290909E+03	3.498111E-18	0.000000E+00
2.327273E+03	3.774107E-18	0.000000E+00
2.363636E+03	4.063144E-18	0.000000E+00
2.400000E+03	4.365663E-18	0.000000E+00
2.436364E+03	4.682442E-18	0.000000E+00
2.472727E+03	5.014674E-18	0.000000E+00
2.509091E+03	5.363786E-18	0.000000E+00
2.545455E+03	5.731152E-18	0.000000E+00
2.581818E+03	6.118195E-18	0.000000E+00
2.618182E+03	6.526707E-18	0.000000E+00
2.654545E+03	6.958150E-18	0.000000E+00
2.690909E+03	7.414880E-18	0.000000E+00
2.727273E+03	7.898783E-18	0.000000E+00
2.736364E+03	8.024496E-18	0.000000E+00
2.745455E+03	8.151980E-18	0.000000E+00
2.754545E+03	8.281247E-18	0.000000E+00
2.763636E+03	8.412786E-18	0.000000E+00
2.772727E+03	8.546764E-18	0.000000E+00
2.781818E+03	8.683561E-18	0.000000E+00
2.790909E+03	8.823299E-18	0.000000E+00
2.800000E+03	8.965734E-18	0.000000E+00
2.809091E+03	9.110803E-18	0.000000E+00
2.818182E+03	9.258842E-18	0.000000E+00
2.827273E+03	9.409423E-18	0.000000E+00
2.836364E+03	9.562697E-18	0.000000E+00
2.845455E+03	9.718437E-18	0.000000E+00
2.854545E+03	9.877190E-18	0.000000E+00
2.863636E+03	1.003835E-17	0.000000E+00
2.872727E+03	1.020208E-17	0.000000E+00
2.881818E+03	1.036856E-17	0.000000E+00
2.890909E+03	1.053778E-17	0.000000E+00
2.900000E+03	1.070932E-17	0.000000E+00
2.909091E+03	1.088378E-17	0.000000E+00
2.918182E+03	1.106074E-17	0.000000E+00
2.927273E+03	1.124039E-17	0.000000E+00
2.936364E+03	1.142255E-17	0.000000E+00
2.945455E+03	1.160741E-17	0.000000E+00
2.954545E+03	1.179497E-17	0.000000E+00
2.963636E+03	1.198523E-17	0.000000E+00
2.972727E+03	1.217801E-17	0.000000E+00
2.981818E+03	1.237351E-17	0.000000E+00
2.990909E+03	1.257176E-17	0.000000E+00
3.000000E+03	1.277254E-17	0.000000E+00
3.009091E+03	1.297609E-17	0.000000E+00
3.018182E+03	1.318221E-17	0.000000E+00
3.027273E+03	1.339113E-17	0.000000E+00
3.036364E+03	1.360271E-17	0.000000E+00
3.045455E+03	1.381694E-17	0.000000E+00
3.054545E+03	1.403406E-17	0.000000E+00
3.063636E+03	1.425410E-17	0.000000E+00
3.072727E+03	1.447705E-17	0.000000E+00
3.081818E+03	1.470269E-17	0.000000E+00
3.090909E+03	1.493124E-17	0.000000E+00
3.100000E+03	1.516228E-17	0.000000E+00
3.109091E+03	1.539626E-17	0.000000E+00
3.118182E+03	1.563273E-17	0.000000E+00
3.127273E+03	1.587173E-17	0.000000E+00
3.136364E+03	1.611324E-17	0.000000E+00
3.145455E+03	1.635708E-17	0.000000E+00
3.154545E+03	1.660346E-17	0.000000E+00
3.163636E+03	1.685219E-17	0.000000E+00
3.172727E+03	1.710306E-17	0.000000E+00
3.181818E+03	1.735608E-17	0.000000E+00
3.190909E+03	1.761103E-17	0.000000E+00
3.200000E+03	1.786818E-17	0.000000E+00
3.209091E+03	1.812684E-17	0.000000E+00
3.218182E+03	1.838726E-17	0.000000E+00
3.227273E+03	1.864923E-17	0.000000E+00
3.236364E+03	1.891277E-17	0.000000E+00
3.245455E+03	1.917743E-17	0.000000E+00
3.254545E+03	1.944298E-17	0.000000E+00
3.263636E+03	1.970968E-17	0.000000E+00
3.272727E+03	1.997684E-17	0.000000E+00
3.281818E+03	2.024470E-17	0.000000E+00
3.290909E+03	2.051302E-17	0.000000E+00
3.300000E+03	2.078137E-17	0.000000E+00
3.309091E+03	2.104949E-17	0.000000E+00
3.318182E+03	2.131740E-17	0.000000E+00
3.327273E+03	2.158461E-17	0.000000E+00
3.336364E+03	2.185136E-17	0.000000E+00
3.345455E+03	2.211695E-17	0.000000E+00
3.354545E+03	2.238135E-17	0.000000E+00
3.363636E+03	2.264432E-17	0.000000E+00
3.372727E+03	2.290585E-17	0.000000E+00
3.381818E+03	2.316544E-17	0.000000E+00
3.390909E+03	2.342306E-17	0.000000E+00
3.400000E+03	2.367847E-17	0.000000E+00
3.409091E+03	2.393165E-17	0.000000E+00
3.418182E+03	2.418231E-17	0.000000E+00
3.427273E+03	2.443044E-17	0.000000E+00
3.436364E+03	2.467576E-17	0.000000E+00
3.445455E+03	2.491800E-17	0.000000E+00
3.454545E+03	2.515761E-17	0.000000E+00
3.463636E+03	2.539382E-17	0.000000E+00
3.472727E+03	2.562685E-17	0.000000E+00
3.481818E+03	2.585689E-17	0.000000E+00
3.490909E+03	2.608342E-17	0.000000E+00
3.500000E+03	2.630640E-17	0.000000E+00
3.509091E+03	2.652602E-17	0.000000E+00
3.518182E+03	2.674225E-17	0.000000E+00
3.527273E+03	2.695504E-17	0.000000E+00
3.536364E+03	2.716409E-17	0.000000E+00
3.545455E+03	2.736961E-17	0.000000E+00
3.554545E+03	2.757155E-17	0.000000E+00
3.563636E+03	2.776986E-17	0.000000E+00
3.572727E+03	2.796448E-17	0.000000E+00
3.581818E+03	2.815538E-17	0.000000E+00
3.590909E+03	2.834273E-17	0.000000E+00
3.600000E+03	2.852652E-17	0.000000E+00
3.609091E+03	2.870640E-17	0.000000E+00
3.618182E+03	2.888285E-17	0.000000E+00
3.627273E+03	2.905555E-17	0.000000E+00
3.636364E+03	2.922470E-17	0.000000E+00
3.645455E+03	2.939026E-17	0.000000E+00
3.654545E+03	2.955190E-17	0.000000E+00
3.663636E+03	2.971009E-17	0.000000E+00
3.672727E+03	2.986450E-17	0.000000E+00
3.681818E+03	3.001535E-17	0.000000E+00
3.690909E+03	3.016256E-17	0.000000E+00
3.700000E+03	3.030609E-17	0.000000E+00
3.709091E+03	3.044587E-17	0.000000E+00
3.718182E+03	3.058210E-17	0.000000E+00
3.727273E+03	3.071446E-17	0.000000E+00
3.736364E+03	3.084289E-17	0.000000E+00
3.745455E+03	3.096785E-17	0.000000E+00
3.754545E+03	3.108876E-17	0.000000E+00
3.763636E+03	3.120581E-17	0.000000E+00
3.772727E+03	3.131894E-17	0.000000E+00
3.781818E+03	3.142809E-17	0.000000E+00
3.790909E+03	3.153318E-17	0.000000E+00
3.800000E+03	3.163416E-17	0.000000E+00
3.809091E+03	3.173096E-17	0.000000E+00
3.818182E+03	3.182351E-17	0.000000E+00
3.827273E+03	3.191175E-17	0.000000E+00
3.836364E+03	3.199560E-17	0.000000E+00
3.845455E+03	3.207473E-17	0.000000E+00
3.854545E+03	3.214905E-17	0.000000E+00
3.863636E+03	3.221879E-17	0.000000E+00
3.872727E+03	3.228387E-17	0.000000E+00
3.881818E+03	3.234366E-17	0.000000E+00
3.890909E+03	3.239838E-17	0.000000E+00
3.900000E+03	3.244795E-17	0.000000E+00
3.909091E+03	3.249231E-17	0.000000E+00
3.918182E+03	3.253139E-17	0.000000E+00
3.927273E+03	3.256482E-17	0.000000E+00
3.936364E+03	3.259313E-17	0.000000E+00
3.945455E+03	3.261566E-17	0.000000E+00
3.954545E+03	3.263293E-17	0.000000E+00
3.963636E+03	3.264488E-17	0.000000E+00
3.972727E+03	3.265173E-17	0.000000E+00
3.981818E+03	3.265343E-17	0.000000E+00
3.990909E+03	3.265021E-17	0.000000E+00
4.000000E+03	3.264201E-17	0.000000E+00
4.009091E+03	3.262937E-17	0.000000E+00
4.018182E+03	3.261224E-17	0.000000E+00
4.027273E+03	3.259058E-17	0.000000E+00
4.036364E+03	3.256493E-17	0.000000E+00
4.045455E+03	3.253524E-17	0.000000E+00
4.054545E+03	3.250178E-17	0.000000E+00
4.063636E+03	3.246511E-17	0.000000E+00
4.072727E+03	3.242488E-17	0.000000E+00
4.081818E+03	3.238168E-17	0.000000E+00
4.090909E+03	3.233576E-17	0.000000E+00
4.100000E+03	3.228711E-17	0.000000E+00
4.109091E+03	3.223600E-17	0.000000E+00
4.118182E+03	3.218271E-17	0.000000E+00
4.127273E+03	3.212752E-17	0.000000E+00
4.136364E+03	3.207072E-17	0.000000E+00
4.145455E+03	3.201229E-17	0.000000E+00
4.154545E+03	3.195223E-17	0.000000E+00
4.163636E+03	3.189143E-17	0.000000E+00
4.172727E+03	3.182958E-17	0.000000E+00
4.181818E+03	3.176667E-17	0.000000E+00
4.190909E+03	3.170331E-17	0.000000E+00
4.200000E+03	3.163980E-17	0.000000E+00
4.209091E+03	3.157553E-17	0.000000E+00
4.218182E+03	3.151171E-17	0.000000E+00
4.227273E+03	3.144744E-17	0.000000E+00
4.236364E+03	3.138362E-17	0.000000E+00
4.245455E+03	3.132027E-17	0.000000E+00
4.254545E+03	3.125739E-17	0.000000E+00
4.263636E+03	3.119498E-17	0.000000E+00
4.272727E+03	3.113304E-17	0.000000E+00
4.281818E+03	3.107220E-17	0.000000E+00
4.290909E+03	3.101215E-17	0.000000E+00
4.300000E+03	3.095291E-17	0.000000E+00
4.309091E+03	3.089477E-17	0.000000E+00
4.318182E+03	3.083715E-17	0.000000E+00
4.327273E+03	3.078097E-17	0.000000E+00
4.336364E+03	3.072530E-17	0.000000E+00
4.345455E+03	3.067078E-17	0.000000E+00
4.354545E+03	3.061742E-17	0.000000E+00
4.363636E+03	3.056460E-17	0.000000E+00
4.372727E+03	3.051265E-17	0.000000E+00
4.381818E+03	3.046187E-17	0.000000E+00
4.390909E+03	3.041167E-17	0.000000E+00
4.400000E+03	3.036235E-17	0.000000E+00
4.409091E+03	3.031393E-17	0.000000E+00
4.418182E+03	3.026611E-17	0.000000E+00
4.427273E+03	3.021890E-17	0.000000E+00
4.436364E+03	3.017261E-17	0.000000E+00
4.445455E+03	3.012695E-17	0.000000E+00
4.454545E+03	3.008224E-17	0.000000E+00
4.463636E+03	3.003787E-17	0.000000E+00
4.472727E+03	2.999416E-17	0.000000E+00
4.481818E+03	2.995113E-17	0.000000E+00
4.490909E+03	2.990847E-17	0.000000E+00
4.500000E+03	2.986650E-17	0.000000E+00
4.509091E+03	2.982494E-17	0.000000E+00
4.518182E+03	2.978409E-17	0.000000E+00
4.527273E+03	2.974367E-17	0.000000E+00
4.536364E+03	2.970369E-17	0.000000E+00
4.545455E+03	2.966386E-17	0.000000E+00
4.554545E+03	2.962479E-17	0.000000E+00
4.563636E+03	2.958590E-17	0.000000E+00
4.572727E+03	2.954720E-17	0.000000E+00
4.581818E+03	2.950901E-17	0.000000E+00
4.590909E+03	2.947103E-17	0.000000E+00
4.600000E+03	2.943329E-17	0.000000E+00
4.609091E+03	2.939580E-17	0.000000E+00
4.618182E+03	2.935857E-17	0.000000E+00
4.627273E+03	2.932133E-17	0.000000E+00
4.636364E+03	2.928408E-17	0.000000E+00
4.645455E+03	2.924715E-17	0.000000E+00
4.654545E+03	2.920995E-17	0.000000E+00
4.663636E+03	2.917310E-17	0.000000E+00
4.672727E+03	2.913573E-17	0.000000E+00
4.681818E+03	2.909845E-17	0.000000E+00
4.690909E+03	2.906097E-17	0.000000E+00
4.700000E+03	2.902333E-17	0.000000E+00
4.709091E+03	2.898554E-17	0.000000E+00
4.718182E+03	2.894732E-17	0.000000E+00
4.727273E+03	2.890871E-17	0.000000E+00
4.736364E+03	2.886942E-17	0.000000E+00
4.745455E+03	2.883007E-17	0.000000E+00
4.754545E+03	2.878980E-17	0.000000E+00
4.763636E+03	2.874893E-17	0.000000E+00
4.772727E+03	2.870749E-17	0.000000E+00
4.781818E+03	2.866550E-17	0.000000E+00
4.790909E+03	2.862241E-17	0.000000E+00
4.800000E+03	2.857854E-17	0.000000E+00
4.809091E+03	2.853362E-17	0.000000E+00
4.818182E+03	2.848768E-17	0.000000E+00
4.827273E+03	2.844047E-17	0.000000E+00
4.836364E+03	2.839230E-17	0.000000E+00
4.845455E+03	2.834264E-17	0.000000E+00
4.854545E+03	2.829152E-17	0.000000E+00
4.863636E+03	2.823868E-17	0.000000E+00
4.872727E+03	2.818446E-17	0.000000E+00
4.881818E+03	2.812802E-17	0.000000E+00
4.890909E+03	2.806971E-17	0.000000E+00
4.900000E+03	2.800928E-17	0.000000E+00
4.909091E+03	2.794649E-17	0.000000E+00
4.918182E+03	2.788053E-17	0.000000E+00
4.927273E+03	2.781120E-17	0.000000E+00
4.936364E+03	2.773825E-17	0.000000E+00
4.945455E+03	2.766035E-17	0.000000E+00
4.954545E+03	2.757731E-17	0.000000E+00
4.963636E+03	2.748808E-17	0.000000E+00
4.972727E+03	2.739220E-17	0.000000E+00
4.981818E+03	2.729058E-17	0.000000E+00
4.990909E+03	2.718301E-17	0.000000E+00
5.000000E+03	2.707041E-17	0.000000E+00
5.009091E+03	2.695312E-17	0.000000E+00
5.018182E+03	2.683229E-17	0.000000E+00
5.027273E+03	2.670771E-17	0.000000E+00
5.036364E+03	2.657997E-17	0.000000E+00
5.045455E+03	2.644915E-17	0.000000E+00
5.054545E+03	2.631610E-17	0.000000E+00
5.063636E+03	2.618060E-17	0.000000E+00
5.072727E+03	2.604296E-17	0.000000E+00
5.081818E+03	2.590323E-17	0.000000E+00
5.090909E+03	2.576198E-17	0.000000E+00
5.100000E+03	2.561900E-17	0.000000E+00
5.109091E+03	2.547458E-17	0.000000E+00
5.118182E+03	2.532902E-17	0.000000E+00
5.127273E+03	2.518237E-17	0.000000E+00
5.136364E+03	2.503491E-17	0.000000E+00
5.145455E+03	2.488641E-17	0.000000E+00
5.154545E+03	2.473717E-17	0.000000E+00
5.163636E+03	2.458747E-17	0.000000E+00
5.172727E+03	2.443734E-17	0.000000E+00
5.181818E+03	2.428680E-17	0.000000E+00
5.190909E+03	2.413588E-17	0.000000E+00
5.200000E+03	2.398511E-17	0.000000E+00
5.209091E+03	2.383399E-17	0.000000E+00
5.218182E+03	2.368306E-17	0.000000E+00
5.227273E+03	2.353233E-17	0.000000E+00
5.236364E+03	2.338157E-17	0.000000E+00
5.245455E+03	2.323105E-17	0.000000E+00
5.254545E+03	2.308101E-17	0.000000E+00
5.263636E+03	2.293123E-17	0.000000E+00
5.272727E+03	2.278172E-17	0.000000E+00
5.281818E+03	2.263298E-17	0.000000E+00
5.290909E+03	2.248453E-17	0.000000E+00
5.300000E+03	2.233662E-17	0.000000E+00
5.309091E+03	2.218926E-17	0.000000E+00
5.318182E+03	2.204244E-17	0.000000E+00
5.327273E+03	2.189643E-17	0.000000E+00
5.336364E+03	2.175074E-17	0.000000E+00
5.345455E+03	2.160585E-17	0.000000E+00
5.354545E+03	2.146153E-17	0.000000E+00
5.363636E+03	2.131778E-17	0.000000E+00
5.372727E+03	2.117460E-17	0.000000E+00
5.381818E+03	2.103198E-17	0.000000E+00
5.390909E+03	2.089018E-17	0.000000E+00
5.400000E+03	2.074871E-17	0.000000E+00
5.409091E+03	2.060757E-17	0.000000E+00
5.418182E+03	2.046700E-17	0.000000E+00
5.427273E+03	2.032700E-17	0.000000E+00
5.436364E+03	2.018709E-17	0.000000E+00
5.445455E+03	2.004775E-17	0.000000E+00
5.454545E+03	1.990827E-17	0.000000E+00
5.463636E+03	1.976935E-17	0.000000E+00
5.472727E+03	1.963029E-17	0.000000E+00
5.481818E+03	1.949110E-17	0.000000E+00
5.490909E+03	1.935201E-17	0.000000E+00
5.500000E+03	1.921277E-17	0.000000E+00
5.509091E+03	1.907340E-17	0.000000E+00
5.518182E+03	1.893343E-17	0.000000E+00
5.527273E+03	1.879334E-17	0.000000E+00
5.536364E+03	1.865243E-17	0.000000E+00
5.545455E+03	1.851116E-17	0.000000E+00
5.554545E+03	1.836932E-17	0.000000E+00
5.563636E+03	1.822666E-17	0.000000E+00
5.572727E+03	1.808322E-17	0.000000E+00
5.581818E+03	1.793920E-17	0.000000E+00
5.590909E+03	1.779439E-17	0.000000E+00
5.600000E+03	1.764880E-17	0.000000E+00
5.609091E+03	1.750287E-17	0.000000E+00
5.618182E+03	1.735616E-17	0.000000E+00
5.627273E+03	1.720890E-17	0.000000E+00
5.636364E+03	1.706130E-17	0.000000E+00
5.645455E+03	1.691360E-17	0.000000E+00
5.654545E+03	1.676557E-17	0.000000E+00
5.663636E+03	1.661722E-17	0.000000E+00
5.672727E+03	1.646877E-17	0.000000E+00
5.681818E+03	1.632001E-17	0.000000E+00
5.690909E+03	1.617118E-17	0.000000E+00
5.700000E+03	1.602226E-17	0.000000E+00
5.709091E+03	1.587349E-17	0.000000E+00
5.718182E+03	1.572488E-17	0.000000E+00
5.727273E+03	1.557643E-17	0.000000E+00
5.736364E+03	1.542840E-17	0.000000E+00
5.745455E+03	1.528098E-17	0.000000E+00
5.754545E+03	1.513400E-17	0.000000E+00
5.763636E+03	1.498769E-17	0.000000E+00
5.772727E+03	1.484229E-17	0.000000E+00
5.781818E+03	1.469761E-17	0.000000E+00
5.790909E+03	1.455410E-17	0.000000E+00
5.800000E+03	1.441181E-17	0.000000E+00
5.809091E+03	1.427076E-17	0.000000E+00
5.818182E+03	1.413099E-17	0.000000E+00
5.827273E+03	1.399298E-17	0.000000E+00
5.836364E+03	1.385654E-17	0.000000E+00
5.845455E+03	1.372213E-17	0.000000E+00
5.854545E+03	1.358979E-17	0.000000E+00
5.863636E+03	1.345951E-17	0.000000E+00
5.872727E+03	1.333139E-17	0.000000E+00
5.881818E+03	1.320537E-17	0.000000E+00
5.890909E+03	1.308155E-17	0.000000E+00
5.900000E+03	1.295946E-17	0.000000E+00
5.909091E+03	1.283942E-17	0.000000E+00
5.918182E+03	1.272136E-17	0.000000E+00
5.927273E+03	1.260503E-17	0.000000E+00
5.936364E+03	1.249056E-17	0.000000E+00
5.945455E+03	1.237791E-17	0.000000E+00
5.954545E+03	1.226704E-17	0.000000E+00
5.963636E+03	1.215792E-17	0.000000E+00
5.972727E+03	1.205070E-17	0.000000E+00
5.981818E+03	1.194516E-17	0.000000E+00
5.990909E+03	1.184128E-17	0.000000E+00
6.000000E+03	1.173923E-17	0.000000E+00
6.009091E+03	1.163899E-17	0.000000E+00
6.018182E+03	1.154035E-17	0.000000E+00
6.027273E+03	1.144349E-17	0.000000E+00
6.036364E+03	1.134820E-17	0.000000E+00
6.045455E+03	1.125485E-17	0.000000E+00
6.054545E+03	1.116306E-17	0.000000E+00
6.063636E+03	1.107280E-17	0.000000E+00
6.072727E+03	1.098427E-17	0.000000E+00
6.081818E+03	1.089745E-17	0.000000E+00
6.090909E+03	1.081214E-17	0.000000E+00
6.100000E+03	1.072834E-17	0.000000E+00
6.109091E+03	1.064624E-17	0.000000E+00
6.118182E+03	1.056562E-17	0.000000E+00
6.127273E+03	1.048668E-17	0.000000E+00
6.136364E+03	1.040903E-17	0.000000E+00
6.145455E+03	1.033305E-17	0.000000E+00
6.154545E+03	1.025834E-17	0.000000E+00
6.163636E+03	1.018528E-17	0.000000E+00
6.172727E+03	1.011349E-17	0.000000E+00
6.181818E+03	1.004315E-17	0.000000E+00
6.190909E+03	9.974243E-18	0.000000E+00
6.200000E+03	9.906594E-18	0.000000E+00
6.209091E+03	9.840362E-18	0.000000E+00
6.218182E+03	9.775375E-18	0.000000E+00
6.227273E+03	9.711796E-18	0.000000E+00
6.236364E+03	9.649256E-18	0.000000E+00
6.245455E+03	9.588122E-18	0.000000E+00
6.254545E+03	9.528187E-18	0.000000E+00
6.263636E+03	9.469460E-18	0.000000E+00
6.272727E+03	9.411745E-18	0.000000E+00
6.281818E+03	9.355398E-18	0.000000E+00
6.290909E+03	9.299870E-18	0.000000E+00
6.300000E+03	9.245693E-18	0.000000E+00
6.309091E+03	9.192509E-18	0.000000E+00
6.318182E+03	9.140300E-18	0.000000E+00
6.327273E+03	9.089236E-18	0.000000E+00
6.336364E+03	9.039143E-18	0.000000E+00
6.345455E+03	8.990009E-18	0.000000E+00
6.354545E+03	8.941822E-18	0.000000E+00
6.363636E+03	8.894584E-18	0.000000E+00
6.372727E+03	8.848274E-18	0.000000E+00
6.381818E+03	8.802726E-18	0.000000E+00
6.390909E+03	8.758266E-18	0.000000E+00
6.400000E+03	8.714379E-18	0.000000E+00
6.409091E+03	8.671570E-18	0.000000E+00
6.418182E+03	8.629316E-18	0.000000E+00
6.427273E+03	8.587958E-18	0.000000E+00
6.436364E+03	8.547307E-18	0.000000E+00
6.445455E+03	8.507370E-18	0.000000E+00
6.454545E+03	8.468300E-18	0.000000E+00
6.463636E+03	8.429749E-18	0.000000E+00
6.472727E+03	8.391895E-18	0.000000E+00
6.481818E+03	8.354547E-18	0.000000E+00
6.490909E+03	8.317872E-18	0.000000E+00
6.500000E+03	8.281870E-18	0.000000E+00
6.509091E+03	8.246356E-18	0.000000E+00
6.518182E+03	8.211497E-18	0.000000E+00
6.527273E+03	8.176956E-18	0.000000E+00
6.536364E+03	8.143065E-18	0.000000E+00
6.545455E+03	8.109637E-18	0.000000E+00
6.554545E+03	8.076516E-18	0.000000E+00
6.563636E+03	8.043854E-18	0.000000E+00
6.572727E+03	8.011652E-18	0.000000E+00
6.581818E+03	7.979730E-18	0.000000E+00
6.590909E+03	7.948095E-18	0.000000E+00
6.600000E+03	7.916736E-18	0.000000E+00
6.609091E+03	7.885658E-18	0.000000E+00
6.618182E+03	7.854849E-18	0.000000E+00
6.627273E+03	7.823983E-18	0.000000E+00
6.636364E+03	7.793379E-18	0.000000E+00
6.645455E+03	7.762878E-18	0.000000E+00
6.654545E+03	7.732313E-18	0.000000E+00
6.663636E+03	7.701845E-18	0.000000E+00
6.672727E+03	7.671146E-18	0.000000E+00
6.681818E+03	7.640224E-18	0.000000E+00
6.690909E+03	7.609078E-18	0.000000E+00
6.700000E+03	7.577541E-18	0.000000E+00
6.709091E+03	7.545778E-18	0.000000E+00
6.718182E+03	7.513310E-18	0.000000E+00
6.727273E+03	7.480469E-18	0.000000E+00
6.736364E+03	7.446928E-18	0.000000E+00
6.745455E+03	7.412851E-18	0.000000E+00
6.754545E+03	7.378086E-18	0.000000E+00
6.763636E+03	7.342638E-18	0.000000E+00
6.772727E+03	7.306666E-18	0.000000E+00
6.781818E+03	7.270016E-18	0.000000E+00
6.790909E+03	7.233162E-18	0.000000E+00
6.800000E+03	7.195796E-18	0.000000E+00
6.809091E+03	7.158226E-18	0.000000E+00
6.818182E+03	7.120303E-18	0.000000E+00
6.827273E+03	7.082483E-18	0.000000E+00
6.836364E+03	7.044626E-18	0.000000E+00
6.845455E+03	7.006727E-18	0.000000E+00
6.854545E+03	6.968936E-18	0.000000E+00
6.863636E+03	6.931254E-18	0.000000E+00
6.872727E+03	6.893986E-18	0.000000E+00
6.881818E+03	6.856825E-18	0.000000E+00
6.890909E+03	6.819922E-18	0.000000E+00
6.900000E+03	6.783429E-18	0.000000E+00
6.909091E+03	6.747190E-18	0.000000E+00
6.918182E+03	6.711357E-18	0.000000E+00
6.927273E+03	6.675776E-18	0.000000E+00
6.936364E+03	6.640746E-18	0.000000E+00
6.945455E+03	6.605965E-18	0.000000E+00
6.954545E+03	6.571730E-18	0.000000E+00
6.963636E+03	6.537742E-18	0.000000E+00
6.972727E+03	6.504296E-18	0.000000E+00
6.981818E+03	6.471093E-18	0.000000E+00
6.990909E+03	6.438428E-18	0.000000E+00
7.000000E+03	6.406150E-18	0.000000E+00
7.009091E+03	6.374260E-18	0.000000E+00
7.018182E+03	6.342754E-18	0.000000E+00
7.027273E+03	6.311633E-18	0.000000E+00
7.036364E+03	6.280894E-18	0.000000E+00
7.045455E+03	6.250389E-18	0.000000E+00
7.054545E+03	6.220411E-18	0.000000E+00
