#wls	flux	fluxerr
1.454545E+03	1.017128E-18	1.255184E-19
1.490909E+03	1.040548E-18	1.282236E-19
1.527273E+03	1.061899E-18	1.306608E-19
1.563636E+03	1.080488E-18	1.327456E-19
1.600000E+03	1.096592E-18	1.345129E-19
1.636364E+03	1.109109E-18	1.358287E-19
1.672727E+03	1.117446E-18	1.366227E-19
1.709091E+03	1.120269E-18	1.367340E-19
1.745455E+03	1.116420E-18	1.360249E-19
1.781818E+03	1.105065E-18	1.343983E-19
1.818182E+03	1.086707E-18	1.319199E-19
1.854545E+03	1.063762E-18	1.288876E-19
1.890909E+03	1.042269E-18	1.260351E-19
1.927273E+03	1.029862E-18	1.242829E-19
1.963636E+03	1.034084E-18	1.245327E-19
2.000000E+03	1.057523E-18	1.270828E-19
2.036364E+03	1.098464E-18	1.317120E-19
2.072727E+03	1.151641E-18	1.377755E-19
2.109091E+03	1.212765E-18	1.447500E-19
2.145455E+03	1.279337E-18	1.523297E-19
2.181818E+03	1.350509E-18	1.604079E-19
2.218182E+03	1.425522E-18	1.688884E-19
2.254545E+03	1.503068E-18	1.776113E-19
2.290909E+03	1.582104E-18	1.864492E-19
2.327273E+03	1.661846E-18	1.953065E-19
2.363636E+03	1.741720E-18	2.041130E-19
2.400000E+03	1.821547E-18	2.128451E-19
2.436364E+03	1.901677E-18	2.215413E-19
2.472727E+03	1.982105E-18	2.301984E-19
2.509091E+03	2.063680E-18	2.389115E-19
2.545455E+03	2.146471E-18	2.476849E-19
2.581818E+03	2.231076E-18	2.565833E-19
2.618182E+03	2.318085E-18	2.656691E-19
2.654545E+03	2.407487E-18	2.749352E-19
2.690909E+03	2.500116E-18	2.844705E-19
2.727273E+03	2.596209E-18	2.942946E-19
2.736364E+03	2.620856E-18	2.968041E-19
2.745455E+03	2.645545E-18	2.993113E-19
2.754545E+03	2.670584E-18	3.018508E-19
2.763636E+03	2.696007E-18	3.044265E-19
2.772727E+03	2.721615E-18	3.070155E-19
2.781818E+03	2.748142E-18	3.097006E-19
2.790909E+03	2.774626E-18	3.123730E-19
2.800000E+03	2.801976E-18	3.151349E-19
2.809091E+03	2.829542E-18	3.179130E-19
2.818182E+03	2.857616E-18	3.207399E-19
2.827273E+03	2.886179E-18	3.236132E-19
2.836364E+03	2.915214E-18	3.265307E-19
2.845455E+03	2.944385E-18	3.294547E-19
2.854545E+03	2.973996E-18	3.324189E-19
2.863636E+03	3.003711E-18	3.353857E-19
2.872727E+03	3.034165E-18	3.384258E-19
2.881818E+03	3.064700E-18	3.414654E-19
2.890909E+03	3.095630E-18	3.445396E-19
2.900000E+03	3.126949E-18	3.476473E-19
2.909091E+03	3.158650E-18	3.507876E-19
2.918182E+03	3.190398E-18	3.539230E-19
2.927273E+03	3.222847E-18	3.571260E-19
2.936364E+03	3.255333E-18	3.603227E-19
2.945455E+03	3.288182E-18	3.635492E-19
2.954545E+03	3.321394E-18	3.668050E-19
2.963636E+03	3.354967E-18	3.700898E-19
2.972727E+03	3.388562E-18	3.733662E-19
2.981818E+03	3.422855E-18	3.767081E-19
2.990909E+03	3.457169E-18	3.800411E-19
3.000000E+03	3.491843E-18	3.834023E-19
3.009091E+03	3.526879E-18	3.867914E-19
3.018182E+03	3.562622E-18	3.902462E-19
3.027273E+03	3.598390E-18	3.936916E-19
3.036364E+03	3.634539E-18	3.971665E-19
3.045455E+03	3.670720E-18	4.006324E-19
3.054545E+03	3.707691E-18	4.041719E-19
3.063636E+03	3.745102E-18	4.077466E-19
3.072727E+03	3.782952E-18	4.113560E-19
3.081818E+03	3.821239E-18	4.149996E-19
3.090909E+03	3.859611E-18	4.186388E-19
3.100000E+03	3.898767E-18	4.223496E-19
3.109091E+03	3.938359E-18	4.260934E-19
3.118182E+03	3.978032E-18	4.298320E-19
3.127273E+03	4.018496E-18	4.336415E-19
3.136364E+03	4.059399E-18	4.374837E-19
3.145455E+03	4.100742E-18	4.413585E-19
3.154545E+03	4.142529E-18	4.452660E-19
3.163636E+03	4.184405E-18	4.491676E-19
3.172727E+03	4.227089E-18	4.531403E-19
3.181818E+03	4.270228E-18	4.571459E-19
3.190909E+03	4.313826E-18	4.611845E-19
3.200000E+03	4.357888E-18	4.652562E-19
3.209091E+03	4.402782E-18	4.694001E-19
3.218182E+03	4.447787E-18	4.735388E-19
3.227273E+03	4.493272E-18	4.777115E-19
3.236364E+03	4.539610E-18	4.819572E-19
3.245455E+03	4.586075E-18	4.861986E-19
3.254545E+03	4.633407E-18	4.905137E-19
3.263636E+03	4.680878E-18	4.948252E-19
3.272727E+03	4.729232E-18	4.992114E-19
3.281818E+03	4.778109E-18	5.036336E-19
3.290909E+03	4.827515E-18	5.080923E-19
3.300000E+03	4.877461E-18	5.125881E-19
3.309091E+03	4.928326E-18	5.171604E-19
3.318182E+03	4.979373E-18	5.217315E-19
3.327273E+03	5.031360E-18	5.263803E-19
3.336364E+03	5.083545E-18	5.310288E-19
3.345455E+03	5.136689E-18	5.357562E-19
3.354545E+03	5.190427E-18	5.405236E-19
3.363636E+03	5.244768E-18	5.453316E-19
3.372727E+03	5.299722E-18	5.501809E-19
3.381818E+03	5.355680E-18	5.551115E-19
3.390909E+03	5.411892E-18	5.600450E-19
3.400000E+03	5.468749E-18	5.650218E-19
3.409091E+03	5.526646E-18	5.700817E-19
3.418182E+03	5.585207E-18	5.751856E-19
3.427273E+03	5.644449E-18	5.803347E-19
3.436364E+03	5.704384E-18	5.855296E-19
3.445455E+03	5.765017E-18	5.907704E-19
3.454545E+03	5.826365E-18	5.960582E-19
3.463636E+03	5.888434E-18	6.013930E-19
3.472727E+03	5.951636E-18	6.068164E-19
3.481818E+03	6.015193E-18	6.122483E-19
3.490909E+03	6.079907E-18	6.177698E-19
3.500000E+03	6.144996E-18	6.233009E-19
3.509091E+03	6.211261E-18	6.289221E-19
3.518182E+03	6.277929E-18	6.345545E-19
3.527273E+03	6.345801E-18	6.402787E-19
3.536364E+03	6.414487E-18	6.460542E-19
3.545455E+03	6.483601E-18	6.518418E-19
3.554545E+03	6.553951E-18	6.577220E-19
3.563636E+03	6.625147E-18	6.636549E-19
3.572727E+03	6.696793E-18	6.696002E-19
3.581818E+03	6.769704E-18	6.756387E-19
3.590909E+03	6.843087E-18	6.816904E-19
3.600000E+03	6.917741E-18	6.878345E-19
3.609091E+03	6.992871E-18	6.939909E-19
3.618182E+03	7.068879E-18	7.001991E-19
3.627273E+03	7.145777E-18	7.064593E-19
3.636364E+03	7.223554E-18	7.127698E-19
3.645455E+03	7.302219E-18	7.191307E-19
3.654545E+03	7.381354E-18	7.255002E-19
3.663636E+03	7.461370E-18	7.319181E-19
3.672727E+03	7.542249E-18	7.383817E-19
3.681818E+03	7.623997E-18	7.448908E-19
3.690909E+03	7.706179E-18	7.514024E-19
3.700000E+03	7.789202E-18	7.579555E-19
3.709091E+03	7.873050E-18	7.645477E-19
3.718182E+03	7.957285E-18	7.711358E-19
3.727273E+03	8.042305E-18	7.777578E-19
3.736364E+03	8.128091E-18	7.844110E-19
3.745455E+03	8.214193E-18	7.910515E-19
3.754545E+03	8.300583E-18	7.976760E-19
3.763636E+03	8.387650E-18	8.043213E-19
3.772727E+03	8.475367E-18	8.109841E-19
3.781818E+03	8.562841E-18	8.175786E-19
3.790909E+03	8.651315E-18	8.242230E-19
3.800000E+03	8.739467E-18	8.307905E-19
3.809091E+03	8.828111E-18	8.373585E-19
3.818182E+03	8.916763E-18	8.438803E-19
3.827273E+03	9.005822E-18	8.503934E-19
3.836364E+03	9.094369E-18	8.568107E-19
3.845455E+03	9.183217E-18	8.632086E-19
3.854545E+03	9.271893E-18	8.695421E-19
3.863636E+03	9.360336E-18	8.758056E-19
3.872727E+03	9.448509E-18	8.819951E-19
3.881818E+03	9.536356E-18	8.881056E-19
3.890909E+03	9.623832E-18	8.941326E-19
3.900000E+03	9.710899E-18	9.000726E-19
3.909091E+03	9.797505E-18	9.059207E-19
3.918182E+03	9.883178E-18	9.116335E-19
3.927273E+03	9.968767E-18	9.172893E-19
3.936364E+03	1.005336E-17	9.228042E-19
3.945455E+03	1.013781E-17	9.282569E-19
3.954545E+03	1.022077E-17	9.335238E-19
3.963636E+03	1.030357E-17	9.387268E-19
3.972727E+03	1.038532E-17	9.437843E-19
3.981818E+03	1.046644E-17	9.487363E-19
3.990909E+03	1.054651E-17	9.535444E-19
4.000000E+03	1.062600E-17	9.582506E-19
4.009091E+03	1.070493E-17	9.628574E-19
4.018182E+03	1.078288E-17	9.673275E-19
4.027273E+03	1.085991E-17	9.716662E-19
4.036364E+03	1.093651E-17	9.759178E-19
4.045455E+03	1.101230E-17	9.800482E-19
4.054545E+03	1.108734E-17	9.840633E-19
4.063636E+03	1.116216E-17	9.880110E-19
4.072727E+03	1.123640E-17	9.918584E-19
4.081818E+03	1.131015E-17	9.956138E-19
4.090909E+03	1.138350E-17	9.992861E-19
4.100000E+03	1.145659E-17	1.002885E-18
4.109091E+03	1.152995E-17	1.006460E-18
4.118182E+03	1.160326E-17	1.009982E-18
4.127273E+03	1.167620E-17	1.013420E-18
4.136364E+03	1.174979E-17	1.016866E-18
4.145455E+03	1.182371E-17	1.020290E-18
4.154545E+03	1.189763E-17	1.023663E-18
4.163636E+03	1.197261E-17	1.027076E-18
4.172727E+03	1.204786E-17	1.030461E-18
4.181818E+03	1.212441E-17	1.033905E-18
4.190909E+03	1.220151E-17	1.037341E-18
4.200000E+03	1.227972E-17	1.040818E-18
4.209091E+03	1.235916E-17	1.044345E-18
4.218182E+03	1.243996E-17	1.047931E-18
4.227273E+03	1.252177E-17	1.051545E-18
4.236364E+03	1.260516E-17	1.055235E-18
4.245455E+03	1.269020E-17	1.059004E-18
4.254545E+03	1.277701E-17	1.062860E-18
4.263636E+03	1.286520E-17	1.066770E-18
4.272727E+03	1.295529E-17	1.070776E-18
4.281818E+03	1.304734E-17	1.074880E-18
4.290909E+03	1.314092E-17	1.079046E-18
4.300000E+03	1.323654E-17	1.083313E-18
4.309091E+03	1.333421E-17	1.087680E-18
4.318182E+03	1.343347E-17	1.092107E-18
4.327273E+03	1.353428E-17	1.096591E-18
4.336364E+03	1.363757E-17	1.101204E-18
4.345455E+03	1.374233E-17	1.105864E-18
4.354545E+03	1.384850E-17	1.110562E-18
4.363636E+03	1.395646E-17	1.115330E-18
4.372727E+03	1.406612E-17	1.120156E-18
4.381818E+03	1.417687E-17	1.124992E-18
4.390909E+03	1.428855E-17	1.129823E-18
4.400000E+03	1.440149E-17	1.134674E-18
4.409091E+03	1.451551E-17	1.139529E-18
4.418182E+03	1.462991E-17	1.144333E-18
4.427273E+03	1.474497E-17	1.149107E-18
4.436364E+03	1.485996E-17	1.153793E-18
4.445455E+03	1.497511E-17	1.158409E-18
4.454545E+03	1.508967E-17	1.162895E-18
4.463636E+03	1.520383E-17	1.167268E-18
4.472727E+03	1.531681E-17	1.171468E-18
4.481818E+03	1.542882E-17	1.175511E-18
4.490909E+03	1.553903E-17	1.179334E-18
4.500000E+03	1.564764E-17	1.182955E-18
4.509091E+03	1.575382E-17	1.186311E-18
4.518182E+03	1.585777E-17	1.189421E-18
4.527273E+03	1.595869E-17	1.192224E-18
4.536364E+03	1.605677E-17	1.194739E-18
4.545455E+03	1.615122E-17	1.196909E-18
4.554545E+03	1.624229E-17	1.198754E-18
4.563636E+03	1.632974E-17	1.200262E-18
4.572727E+03	1.641281E-17	1.201378E-18
4.581818E+03	1.649129E-17	1.202092E-18
4.590909E+03	1.656555E-17	1.202434E-18
4.600000E+03	1.663543E-17	1.202397E-18
4.609091E+03	1.670031E-17	1.201940E-18
4.618182E+03	1.676064E-17	1.201098E-18
4.627273E+03	1.681584E-17	1.199837E-18
4.636364E+03	1.686646E-17	1.198198E-18
4.645455E+03	1.691254E-17	1.196189E-18
4.654545E+03	1.695362E-17	1.193782E-18
4.663636E+03	1.698982E-17	1.190990E-18
4.672727E+03	1.702236E-17	1.187903E-18
4.681818E+03	1.705038E-17	1.184464E-18
4.690909E+03	1.707410E-17	1.180694E-18
4.700000E+03	1.709431E-17	1.176650E-18
4.709091E+03	1.711132E-17	1.172356E-18
4.718182E+03	1.712543E-17	1.167839E-18
4.727273E+03	1.713648E-17	1.163087E-18
4.736364E+03	1.714536E-17	1.158166E-18
4.745455E+03	1.715192E-17	1.153067E-18
4.754545E+03	1.715711E-17	1.147857E-18
4.763636E+03	1.716135E-17	1.142563E-18
4.772727E+03	1.716451E-17	1.137180E-18
4.781818E+03	1.716811E-17	1.131809E-18
4.790909E+03	1.717151E-17	1.126408E-18
4.800000E+03	1.717515E-17	1.121004E-18
4.809091E+03	1.717998E-17	1.115661E-18
4.818182E+03	1.718697E-17	1.110439E-18
4.827273E+03	1.719491E-17	1.105261E-18
4.836364E+03	1.720583E-17	1.100253E-18
4.845455E+03	1.721902E-17	1.095369E-18
4.854545E+03	1.723540E-17	1.090665E-18
4.863636E+03	1.725531E-17	1.086158E-18
4.872727E+03	1.727909E-17	1.081868E-18
4.881818E+03	1.730654E-17	1.077777E-18
4.890909E+03	1.733898E-17	1.073965E-18
4.900000E+03	1.737563E-17	1.070379E-18
4.909091E+03	1.741727E-17	1.067063E-18
4.918182E+03	1.746359E-17	1.063991E-18
4.927273E+03	1.751584E-17	1.061237E-18
4.936364E+03	1.757315E-17	1.058741E-18
4.945455E+03	1.763671E-17	1.056571E-18
4.954545E+03	1.770561E-17	1.054666E-18
4.963636E+03	1.778048E-17	1.053058E-18
4.972727E+03	1.786140E-17	1.051746E-18
4.981818E+03	1.794842E-17	1.050727E-18
4.990909E+03	1.804160E-17	1.049999E-18
5.000000E+03	1.814040E-17	1.049525E-18
5.009091E+03	1.824591E-17	1.049362E-18
5.018182E+03	1.835758E-17	1.049472E-18
5.027273E+03	1.847479E-17	1.049813E-18
5.036364E+03	1.859860E-17	1.050442E-18
5.045455E+03	1.872782E-17	1.051284E-18
5.054545E+03	1.886348E-17	1.052392E-18
5.063636E+03	1.900433E-17	1.053690E-18
5.072727E+03	1.915139E-17	1.055230E-18
5.081818E+03	1.930392E-17	1.056967E-18
5.090909E+03	1.946121E-17	1.058856E-18
5.100000E+03	1.962422E-17	1.060945E-18
5.109091E+03	1.979218E-17	1.063187E-18
5.118182E+03	1.996489E-17	1.065568E-18
5.127273E+03	2.014211E-17	1.068071E-18
5.136364E+03	2.032359E-17	1.070679E-18
5.145455E+03	2.050908E-17	1.073376E-18
5.154545E+03	2.069831E-17	1.076145E-18
5.163636E+03	2.089160E-17	1.079000E-18
5.172727E+03	2.108739E-17	1.081858E-18
5.181818E+03	2.128663E-17	1.084766E-18
5.190909E+03	2.148834E-17	1.087672E-18
5.200000E+03	2.169217E-17	1.090559E-18
5.209091E+03	2.189841E-17	1.093439E-18
5.218182E+03	2.210534E-17	1.096229E-18
5.227273E+03	2.231392E-17	1.098974E-18
5.236364E+03	2.252306E-17	1.101623E-18
5.245455E+03	2.273302E-17	1.104189E-18
5.254545E+03	2.294199E-17	1.106588E-18
5.263636E+03	2.315092E-17	1.108868E-18
5.272727E+03	2.335937E-17	1.111010E-18
5.281818E+03	2.356547E-17	1.112929E-18
5.290909E+03	2.377016E-17	1.114675E-18
5.300000E+03	2.397228E-17	1.116197E-18
5.309091E+03	2.417208E-17	1.117514E-18
5.318182E+03	2.436838E-17	1.118575E-18
5.327273E+03	2.456069E-17	1.119365E-18
5.336364E+03	2.474930E-17	1.119906E-18
5.345455E+03	2.493302E-17	1.120151E-18
5.354545E+03	2.511140E-17	1.120086E-18
5.363636E+03	2.528476E-17	1.119738E-18
5.372727E+03	2.545192E-17	1.119060E-18
5.381818E+03	2.561324E-17	1.118081E-18
5.390909E+03	2.576759E-17	1.116758E-18
5.400000E+03	2.591536E-17	1.115122E-18
5.409091E+03	2.605543E-17	1.113135E-18
5.418182E+03	2.618749E-17	1.110793E-18
5.427273E+03	2.631203E-17	1.108131E-18
5.436364E+03	2.642881E-17	1.105149E-18
5.445455E+03	2.653680E-17	1.101817E-18
5.454545E+03	2.663578E-17	1.098138E-18
5.463636E+03	2.672641E-17	1.094151E-18
5.472727E+03	2.680856E-17	1.089865E-18
5.481818E+03	2.688133E-17	1.085254E-18
5.490909E+03	2.694546E-17	1.080361E-18
5.500000E+03	2.700012E-17	1.075165E-18
5.509091E+03	2.704614E-17	1.069712E-18
5.518182E+03	2.708274E-17	1.063983E-18
5.527273E+03	2.711083E-17	1.058027E-18
5.536364E+03	2.713053E-17	1.051860E-18
5.545455E+03	2.714115E-17	1.045467E-18
5.554545E+03	2.714371E-17	1.038898E-18
5.563636E+03	2.713758E-17	1.032140E-18
5.572727E+03	2.712466E-17	1.025277E-18
5.581818E+03	2.710271E-17	1.018233E-18
5.590909E+03	2.707452E-17	1.011125E-18
5.600000E+03	2.703871E-17	1.003909E-18
5.609091E+03	2.699561E-17	9.966071E-19
5.618182E+03	2.694723E-17	9.893022E-19
5.627273E+03	2.689222E-17	9.819529E-19
5.636364E+03	2.683098E-17	9.745810E-19
5.645455E+03	2.676553E-17	9.672675E-19
5.654545E+03	2.669459E-17	9.599725E-19
5.663636E+03	2.661939E-17	9.527459E-19
5.672727E+03	2.654035E-17	9.456071E-19
5.681818E+03	2.645705E-17	9.385454E-19
5.690909E+03	2.637073E-17	9.316083E-19
5.700000E+03	2.628179E-17	9.248132E-19
5.709091E+03	2.618981E-17	9.181479E-19
5.718182E+03	2.609680E-17	9.116853E-19
5.727273E+03	2.600151E-17	9.053833E-19
5.736364E+03	2.590508E-17	8.992833E-19
5.745455E+03	2.580785E-17	8.933987E-19
5.754545E+03	2.570931E-17	8.877124E-19
5.763636E+03	2.561139E-17	8.822918E-19
5.772727E+03	2.551272E-17	8.770900E-19
5.781818E+03	2.541437E-17	8.721440E-19
5.790909E+03	2.531656E-17	8.674614E-19
5.800000E+03	2.521950E-17	8.630490E-19
5.809091E+03	2.512260E-17	8.588856E-19
5.818182E+03	2.502760E-17	8.550309E-19
5.827273E+03	2.493309E-17	8.514350E-19
5.836364E+03	2.484078E-17	8.481542E-19
5.845455E+03	2.474919E-17	8.451328E-19
5.854545E+03	2.465922E-17	8.423951E-19
5.863636E+03	2.457096E-17	8.399381E-19
5.872727E+03	2.448449E-17	8.377584E-19
5.881818E+03	2.439987E-17	8.358526E-19
5.890909E+03	2.431717E-17	8.342168E-19
5.900000E+03	2.423645E-17	8.328467E-19
5.909091E+03	2.415775E-17	8.317381E-19
5.918182E+03	2.408032E-17	8.308594E-19
5.927273E+03	2.400574E-17	8.302594E-19
5.936364E+03	2.393327E-17	8.299063E-19
5.945455E+03	2.386292E-17	8.297953E-19
5.954545E+03	2.379467E-17	8.299203E-19
5.963636E+03	2.372854E-17	8.302765E-19
5.972727E+03	2.366451E-17	8.308580E-19
5.981818E+03	2.360257E-17	8.316594E-19
5.990909E+03	2.354271E-17	8.326749E-19
6.000000E+03	2.348488E-17	8.338986E-19
6.009091E+03	2.342907E-17	8.353251E-19
6.018182E+03	2.337601E-17	8.369754E-19
6.027273E+03	2.332412E-17	8.387894E-19
6.036364E+03	2.327413E-17	8.407881E-19
6.045455E+03	2.322675E-17	8.429931E-19
6.054545E+03	2.318117E-17	8.453715E-19
6.063636E+03	2.313733E-17	8.479171E-19
6.072727E+03	2.309518E-17	8.506237E-19
6.081818E+03	2.305465E-17	8.534857E-19
6.090909E+03	2.301567E-17	8.564964E-19
6.100000E+03	2.297896E-17	8.596788E-19
6.109091E+03	2.294291E-17	8.629702E-19
6.118182E+03	2.290896E-17	8.664210E-19
6.127273E+03	2.287629E-17	8.699968E-19
6.136364E+03	2.284481E-17	8.736916E-19
6.145455E+03	2.281522E-17	8.775287E-19
6.154545E+03	2.278589E-17	8.814433E-19
6.163636E+03	2.275827E-17	8.854880E-19
6.172727E+03	2.273153E-17	8.896276E-19
6.181818E+03	2.270556E-17	8.938557E-19
6.190909E+03	2.268028E-17	8.981664E-19
6.200000E+03	2.265636E-17	9.025831E-19
6.209091E+03	2.263295E-17	9.070699E-19
6.218182E+03	2.260996E-17	9.116208E-19
6.227273E+03	2.258729E-17	9.162290E-19
6.236364E+03	2.256484E-17	9.208885E-19
6.245455E+03	2.254330E-17	9.256241E-19
6.254545E+03	2.252177E-17	9.303979E-19
6.263636E+03	2.250020E-17	9.352045E-19
6.272727E+03	2.247846E-17	9.400366E-19
6.281818E+03	2.245646E-17	9.448877E-19
6.290909E+03	2.243487E-17	9.497839E-19
6.300000E+03	2.241283E-17	9.546866E-19
6.309091E+03	2.239023E-17	9.595892E-19
6.318182E+03	2.236700E-17	9.644857E-19
6.327273E+03	2.234377E-17	9.694018E-19
6.336364E+03	2.231972E-17	9.742991E-19
6.345455E+03	2.229399E-17	9.791378E-19
6.354545E+03	2.226801E-17	9.839787E-19
6.363636E+03	2.224170E-17	9.888156E-19
6.372727E+03	2.221349E-17	9.935764E-19
6.381818E+03	2.218479E-17	9.983225E-19
6.390909E+03	2.215481E-17	1.003016E-18
6.400000E+03	2.212273E-17	1.007616E-18
6.409091E+03	2.209077E-17	1.012224E-18
6.418182E+03	2.205664E-17	1.016730E-18
6.427273E+03	2.202107E-17	1.021167E-18
6.436364E+03	2.198480E-17	1.025567E-18
6.445455E+03	2.194633E-17	1.029858E-18
6.454545E+03	2.190716E-17	1.034108E-18
6.463636E+03	2.186659E-17	1.038282E-18
6.472727E+03	2.182465E-17	1.042379E-18
6.481818E+03	2.178140E-17	1.046401E-18
6.490909E+03	2.173689E-17	1.050347E-18
6.500000E+03	2.169121E-17	1.054221E-18
6.509091E+03	2.164444E-17	1.058026E-18
6.518182E+03	2.159745E-17	1.061801E-18
6.527273E+03	2.154883E-17	1.065476E-18
6.536364E+03	2.149944E-17	1.069093E-18
6.545455E+03	2.145018E-17	1.072695E-18
6.554545E+03	2.139968E-17	1.076213E-18
6.563636E+03	2.134954E-17	1.079727E-18
6.572727E+03	2.129843E-17	1.083168E-18
6.581818E+03	2.124721E-17	1.086580E-18
6.590909E+03	2.119679E-17	1.090008E-18
6.600000E+03	2.114579E-17	1.093382E-18
6.609091E+03	2.109510E-17	1.096748E-18
6.618182E+03	2.104483E-17	1.100111E-18
6.627273E+03	2.099510E-17	1.103477E-18
6.636364E+03	2.094603E-17	1.106854E-18
6.645455E+03	2.089773E-17	1.110247E-18
6.654545E+03	2.085027E-17	1.113661E-18
6.663636E+03	2.080302E-17	1.117063E-18
6.672727E+03	2.075752E-17	1.120535E-18
6.681818E+03	2.071237E-17	1.124004E-18
6.690909E+03	2.066838E-17	1.127512E-18
6.700000E+03	2.062555E-17	1.131064E-18
6.709091E+03	2.058323E-17	1.134621E-18
6.718182E+03	2.054289E-17	1.138267E-18
6.727273E+03	2.050308E-17	1.141923E-18
6.736364E+03	2.046453E-17	1.145631E-18
6.745455E+03	2.042725E-17	1.149391E-18
6.754545E+03	2.039123E-17	1.153204E-18
6.763636E+03	2.035570E-17	1.157029E-18
6.772727E+03	2.032138E-17	1.160905E-18
6.781818E+03	2.028822E-17	1.164833E-18
6.790909E+03	2.025545E-17	1.168767E-18
6.800000E+03	2.022374E-17	1.172749E-18
6.809091E+03	2.019303E-17	1.176776E-18
6.818182E+03	2.016254E-17	1.180801E-18
6.827273E+03	2.013292E-17	1.184866E-18
6.836364E+03	2.010410E-17	1.188965E-18
6.845455E+03	2.007603E-17	1.193097E-18
6.854545E+03	2.004791E-17	1.197213E-18
6.863636E+03	2.001968E-17	1.201311E-18
6.872727E+03	1.999275E-17	1.205473E-18
6.881818E+03	1.996561E-17	1.209610E-18
6.890909E+03	1.993825E-17	1.213719E-18
6.900000E+03	1.991135E-17	1.217842E-18
6.909091E+03	1.988488E-17	1.221977E-18
6.918182E+03	1.985809E-17	1.226077E-18
6.927273E+03	1.983169E-17	1.230186E-18
6.936364E+03	1.980491E-17	1.234256E-18
6.945455E+03	1.977847E-17	1.238331E-18
6.954545E+03	1.975162E-17	1.242363E-18
6.963636E+03	1.972506E-17	1.246396E-18
6.972727E+03	1.969877E-17	1.250429E-18
6.981818E+03	1.967201E-17	1.254415E-18
6.990909E+03	1.964475E-17	1.258350E-18
7.000000E+03	1.961772E-17	1.262281E-18
7.009091E+03	1.959015E-17	1.266157E-18
7.018182E+03	1.956276E-17	1.270026E-18
7.027273E+03	1.953554E-17	1.273885E-18
7.036364E+03	1.950775E-17	1.277687E-18
7.045455E+03	1.947938E-17	1.281429E-18
7.054545E+03	1.945113E-17	1.285158E-18
