#wls	flux	fluxerr
1.454545E+03	7.582264E-19	3.172913E-20
1.490909E+03	7.791594E-19	3.260080E-20
1.527273E+03	7.984966E-19	3.340535E-20
1.563636E+03	8.161120E-19	3.413754E-20
1.600000E+03	8.317823E-19	3.478803E-20
1.636364E+03	8.450814E-19	3.533903E-20
1.672727E+03	8.551021E-19	3.575266E-20
1.709091E+03	8.609292E-19	3.599069E-20
1.745455E+03	8.617775E-19	3.602039E-20
1.781818E+03	8.567962E-19	3.580630E-20
1.818182E+03	8.461702E-19	3.535626E-20
1.854545E+03	8.320208E-19	3.475902E-20
1.890909E+03	8.186396E-19	3.419391E-20
1.927273E+03	8.123519E-19	3.392508E-20
1.963636E+03	8.191171E-19	3.420118E-20
2.000000E+03	8.412993E-19	3.512060E-20
2.036364E+03	8.773362E-19	3.661774E-20
2.072727E+03	9.236103E-19	3.854128E-20
2.109091E+03	9.765160E-19	4.074049E-20
2.145455E+03	1.034297E-18	4.314191E-20
2.181818E+03	1.096009E-18	4.570599E-20
2.218182E+03	1.161075E-18	4.840850E-20
2.254545E+03	1.228855E-18	5.122261E-20
2.290909E+03	1.298177E-18	5.409937E-20
2.327273E+03	1.368470E-18	5.701489E-20
2.363636E+03	1.439067E-18	5.994128E-20
2.400000E+03	1.509843E-18	6.287325E-20
2.436364E+03	1.581173E-18	6.582639E-20
2.472727E+03	1.653061E-18	6.880078E-20
2.509091E+03	1.726110E-18	7.182137E-20
2.545455E+03	1.800390E-18	7.489105E-20
2.581818E+03	1.876239E-18	7.802368E-20
2.618182E+03	1.954308E-18	8.124626E-20
2.654545E+03	2.034614E-18	8.455927E-20
2.690909E+03	2.117808E-18	8.798966E-20
2.727273E+03	2.203864E-18	9.153613E-20
2.736364E+03	2.225950E-18	9.244606E-20
2.745455E+03	2.247871E-18	9.334890E-20
2.754545E+03	2.270365E-18	9.427538E-20
2.763636E+03	2.293095E-18	9.521148E-20
2.772727E+03	2.316159E-18	9.616119E-20
2.781818E+03	2.339653E-18	9.712862E-20
2.790909E+03	2.363557E-18	9.811282E-20
2.800000E+03	2.387850E-18	9.911297E-20
2.809091E+03	2.412514E-18	1.001283E-19
2.818182E+03	2.437532E-18	1.011581E-19
2.827273E+03	2.462889E-18	1.022017E-19
2.836364E+03	2.488571E-18	1.032586E-19
2.845455E+03	2.514568E-18	1.043284E-19
2.854545E+03	2.540869E-18	1.054105E-19
2.863636E+03	2.567464E-18	1.065045E-19
2.872727E+03	2.594346E-18	1.076103E-19
2.881818E+03	2.621932E-18	1.087450E-19
2.890909E+03	2.649372E-18	1.098733E-19
2.900000E+03	2.677082E-18	1.110126E-19
2.909091E+03	2.705057E-18	1.121627E-19
2.918182E+03	2.733296E-18	1.133234E-19
2.927273E+03	2.762242E-18	1.145132E-19
2.936364E+03	2.791007E-18	1.156952E-19
2.945455E+03	2.820031E-18	1.168877E-19
2.954545E+03	2.849775E-18	1.181097E-19
2.963636E+03	2.879327E-18	1.193234E-19
2.972727E+03	2.909140E-18	1.205478E-19
2.981818E+03	2.939692E-18	1.218024E-19
2.990909E+03	2.970044E-18	1.230484E-19
3.000000E+03	3.000667E-18	1.243054E-19
3.009091E+03	3.032052E-18	1.255936E-19
3.018182E+03	3.063234E-18	1.268732E-19
3.027273E+03	3.095196E-18	1.281847E-19
3.036364E+03	3.126966E-18	1.294880E-19
3.045455E+03	3.159539E-18	1.308241E-19
3.054545E+03	3.191970E-18	1.321541E-19
3.063636E+03	3.225273E-18	1.335198E-19
3.072727E+03	3.258426E-18	1.348790E-19
3.081818E+03	3.292461E-18	1.362744E-19
3.090909E+03	3.326867E-18	1.376847E-19
3.100000E+03	3.361112E-18	1.390880E-19
3.109091E+03	3.396260E-18	1.405284E-19
3.118182E+03	3.431244E-18	1.419616E-19
3.127273E+03	3.467148E-18	1.434325E-19
3.136364E+03	3.503439E-18	1.449190E-19
3.145455E+03	3.539561E-18	1.463982E-19
3.154545E+03	3.576633E-18	1.479162E-19
3.163636E+03	3.614106E-18	1.494505E-19
3.172727E+03	3.651985E-18	1.510011E-19
3.181818E+03	3.689695E-18	1.525443E-19
3.190909E+03	3.728398E-18	1.541282E-19
3.200000E+03	3.767527E-18	1.557293E-19
3.209091E+03	3.806487E-18	1.573229E-19
3.218182E+03	3.846477E-18	1.589587E-19
3.227273E+03	3.886911E-18	1.606124E-19
3.236364E+03	3.927796E-18	1.622843E-19
3.245455E+03	3.969139E-18	1.639746E-19
3.254545E+03	4.010320E-18	1.656579E-19
3.263636E+03	4.052594E-18	1.673858E-19
3.272727E+03	4.095347E-18	1.691330E-19
3.281818E+03	4.138588E-18	1.708998E-19
3.290909E+03	4.182322E-18	1.726866E-19
3.300000E+03	4.226557E-18	1.744935E-19
3.309091E+03	4.271302E-18	1.763210E-19
3.318182E+03	4.315891E-18	1.781415E-19
3.327273E+03	4.361668E-18	1.800105E-19
3.336364E+03	4.407975E-18	1.819009E-19
3.345455E+03	4.454818E-18	1.838129E-19
3.354545E+03	4.502206E-18	1.857468E-19
3.363636E+03	4.550144E-18	1.877029E-19
3.372727E+03	4.598641E-18	1.896814E-19
3.381818E+03	4.647701E-18	1.916826E-19
3.390909E+03	4.697331E-18	1.937067E-19
3.400000E+03	4.747538E-18	1.957540E-19
3.409091E+03	4.798327E-18	1.978248E-19
3.418182E+03	4.849705E-18	1.999192E-19
3.427273E+03	4.901677E-18	2.020374E-19
3.436364E+03	4.954247E-18	2.041797E-19
3.445455E+03	5.006653E-18	2.063146E-19
3.454545E+03	5.060429E-18	2.085053E-19
3.463636E+03	5.114817E-18	2.107206E-19
3.472727E+03	5.169823E-18	2.129606E-19
3.481818E+03	5.225448E-18	2.152255E-19
3.490909E+03	5.281699E-18	2.175155E-19
3.500000E+03	5.338577E-18	2.198306E-19
3.509091E+03	5.396084E-18	2.221709E-19
3.518182E+03	5.454223E-18	2.245365E-19
3.527273E+03	5.512997E-18	2.269275E-19
3.536364E+03	5.572406E-18	2.293440E-19
3.545455E+03	5.632450E-18	2.317858E-19
3.554545E+03	5.693130E-18	2.342530E-19
3.563636E+03	5.754450E-18	2.367458E-19
3.572727E+03	5.816404E-18	2.392639E-19
3.581818E+03	5.878995E-18	2.418074E-19
3.590909E+03	5.942220E-18	2.443762E-19
3.600000E+03	6.006079E-18	2.469702E-19
3.609091E+03	6.070562E-18	2.495891E-19
3.618182E+03	6.135673E-18	2.522330E-19
3.627273E+03	6.200475E-18	2.548633E-19
3.636364E+03	6.266823E-18	2.575563E-19
3.645455E+03	6.333780E-18	2.602735E-19
3.654545E+03	6.401343E-18	2.630147E-19
3.663636E+03	6.469509E-18	2.657798E-19
3.672727E+03	6.538277E-18	2.685687E-19
3.681818E+03	6.607624E-18	2.713805E-19
3.690909E+03	6.677555E-18	2.742153E-19
3.700000E+03	6.748059E-18	2.770728E-19
3.709091E+03	6.818109E-18	2.799106E-19
3.718182E+03	6.889715E-18	2.828114E-19
3.727273E+03	6.961867E-18	2.857337E-19
3.736364E+03	7.034550E-18	2.886768E-19
3.745455E+03	7.107755E-18	2.916402E-19
3.754545E+03	7.181465E-18	2.946235E-19
3.763636E+03	7.254592E-18	2.975818E-19
3.772727E+03	7.329271E-18	3.006027E-19
3.781818E+03	7.404413E-18	3.036417E-19
3.790909E+03	7.480009E-18	3.066982E-19
3.800000E+03	7.554924E-18	3.097257E-19
3.809091E+03	7.631364E-18	3.128148E-19
3.818182E+03	7.708215E-18	3.159196E-19
3.827273E+03	7.784296E-18	3.189917E-19
3.836364E+03	7.861892E-18	3.221249E-19
3.845455E+03	7.939840E-18	3.252714E-19
3.854545E+03	8.016935E-18	3.283819E-19
3.863636E+03	8.095519E-18	3.315523E-19
3.872727E+03	8.174393E-18	3.347334E-19
3.881818E+03	8.252326E-18	3.378749E-19
3.890909E+03	8.331724E-18	3.410752E-19
3.900000E+03	8.410112E-18	3.442331E-19
3.909091E+03	8.489931E-18	3.474484E-19
3.918182E+03	8.568690E-18	3.506192E-19
3.927273E+03	8.648857E-18	3.538465E-19
3.936364E+03	8.727894E-18	3.570263E-19
3.945455E+03	8.808311E-18	3.602615E-19
3.954545E+03	8.887531E-18	3.634465E-19
3.963636E+03	8.968109E-18	3.666859E-19
3.972727E+03	9.047413E-18	3.698721E-19
3.981818E+03	9.126726E-18	3.730574E-19
3.990909E+03	9.207353E-18	3.762953E-19
4.000000E+03	9.286607E-18	3.794758E-19
4.009091E+03	9.365785E-18	3.826521E-19
4.018182E+03	9.446240E-18	3.858794E-19
4.027273E+03	9.525208E-18	3.890447E-19
4.036364E+03	9.604022E-18	3.922025E-19
4.045455E+03	9.684068E-18	3.954095E-19
4.054545E+03	9.762516E-18	3.985501E-19
4.063636E+03	9.840736E-18	4.016801E-19
4.072727E+03	9.918692E-18	4.047982E-19
4.081818E+03	9.996370E-18	4.079037E-19
4.090909E+03	1.007374E-17	4.109954E-19
4.100000E+03	1.015076E-17	4.140719E-19
4.109091E+03	1.022742E-17	4.171323E-19
4.118182E+03	1.030368E-17	4.201752E-19
4.127273E+03	1.037952E-17	4.231998E-19
4.136364E+03	1.045490E-17	4.262049E-19
4.145455E+03	1.052980E-17	4.291889E-19
4.154545E+03	1.060420E-17	4.321512E-19
4.163636E+03	1.067805E-17	4.350902E-19
4.172727E+03	1.075134E-17	4.380050E-19
4.181818E+03	1.082403E-17	4.408943E-19
4.190909E+03	1.089453E-17	4.436933E-19
4.200000E+03	1.096593E-17	4.465277E-19
4.209091E+03	1.103663E-17	4.493329E-19
4.218182E+03	1.110663E-17	4.521079E-19
4.227273E+03	1.117428E-17	4.547866E-19
4.236364E+03	1.124274E-17	4.574972E-19
4.245455E+03	1.131040E-17	4.601738E-19
4.254545E+03	1.137560E-17	4.627495E-19
4.263636E+03	1.144155E-17	4.653547E-19
4.272727E+03	1.150497E-17	4.678556E-19
4.281818E+03	1.156909E-17	4.703843E-19
4.290909E+03	1.163061E-17	4.728062E-19
4.300000E+03	1.169280E-17	4.752541E-19
4.309091E+03	1.175230E-17	4.775921E-19
4.318182E+03	1.181075E-17	4.798862E-19
4.327273E+03	1.186981E-17	4.822041E-19
4.336364E+03	1.192609E-17	4.844081E-19
4.345455E+03	1.198123E-17	4.865650E-19
4.354545E+03	1.203692E-17	4.887432E-19
4.363636E+03	1.208973E-17	4.908038E-19
4.372727E+03	1.214133E-17	4.928144E-19
4.381818E+03	1.219171E-17	4.947744E-19
4.390909E+03	1.224084E-17	4.966831E-19
4.400000E+03	1.228870E-17	4.985392E-19
4.409091E+03	1.233527E-17	5.003424E-19
4.418182E+03	1.238053E-17	5.020916E-19
4.427273E+03	1.242447E-17	5.037866E-19
4.436364E+03	1.246707E-17	5.054263E-19
4.445455E+03	1.250830E-17	5.070102E-19
4.454545E+03	1.254818E-17	5.085381E-19
4.463636E+03	1.258666E-17	5.100092E-19
4.472727E+03	1.262198E-17	5.113513E-19
4.481818E+03	1.265767E-17	5.127077E-19
4.490909E+03	1.269194E-17	5.140064E-19
4.500000E+03	1.272481E-17	5.152473E-19
4.509091E+03	1.275446E-17	5.163579E-19
4.518182E+03	1.278449E-17	5.174828E-19
4.527273E+03	1.281129E-17	5.184770E-19
4.536364E+03	1.283849E-17	5.194864E-19
4.545455E+03	1.286427E-17	5.204383E-19
4.554545E+03	1.288685E-17	5.212602E-19
4.563636E+03	1.290804E-17	5.220252E-19
4.572727E+03	1.292965E-17	5.228074E-19
4.581818E+03	1.294810E-17	5.234610E-19
4.590909E+03	1.296702E-17	5.241334E-19
4.600000E+03	1.298279E-17	5.246784E-19
4.609091E+03	1.299727E-17	5.251707E-19
4.618182E+03	1.301047E-17	5.256112E-19
4.627273E+03	1.302242E-17	5.260008E-19
4.636364E+03	1.303496E-17	5.264143E-19
4.645455E+03	1.304450E-17	5.267063E-19
4.654545E+03	1.305289E-17	5.269515E-19
4.663636E+03	1.306015E-17	5.271511E-19
4.672727E+03	1.306633E-17	5.273072E-19
4.681818E+03	1.307146E-17	5.274207E-19
4.690909E+03	1.307559E-17	5.274935E-19
4.700000E+03	1.307875E-17	5.275273E-19
4.709091E+03	1.307917E-17	5.274508E-19
4.718182E+03	1.308054E-17	5.274122E-19
4.727273E+03	1.308107E-17	5.273399E-19
4.736364E+03	1.308081E-17	5.272359E-19
4.745455E+03	1.307800E-17	5.270291E-19
4.754545E+03	1.307631E-17	5.268676E-19
4.763636E+03	1.307398E-17	5.266801E-19
4.772727E+03	1.306924E-17	5.263956E-19
4.781818E+03	1.306576E-17	5.261621E-19
4.790909E+03	1.305997E-17	5.258355E-19
4.800000E+03	1.305554E-17	5.255638E-19
4.809091E+03	1.304888E-17	5.252029E-19
4.818182E+03	1.304368E-17	5.249006E-19
4.827273E+03	1.303637E-17	5.245133E-19
4.836364E+03	1.303058E-17	5.241877E-19
4.845455E+03	1.302278E-17	5.237812E-19
4.854545E+03	1.301480E-17	5.233676E-19
4.863636E+03	1.300668E-17	5.229487E-19
4.872727E+03	1.300026E-17	5.225986E-19
4.881818E+03	1.299199E-17	5.221741E-19
4.890909E+03	1.298371E-17	5.217491E-19
4.900000E+03	1.297544E-17	5.213253E-19
4.909091E+03	1.296724E-17	5.209040E-19
4.918182E+03	1.295911E-17	5.204864E-19
4.927273E+03	1.295112E-17	5.200741E-19
4.936364E+03	1.294327E-17	5.196680E-19
4.945455E+03	1.293560E-17	5.192692E-19
4.954545E+03	1.292813E-17	5.188791E-19
4.963636E+03	1.292089E-17	5.184980E-19
4.972727E+03	1.291390E-17	5.181273E-19
4.981818E+03	1.290540E-17	5.176964E-19
4.990909E+03	1.289896E-17	5.173486E-19
5.000000E+03	1.289282E-17	5.170130E-19
5.009091E+03	1.288523E-17	5.166193E-19
5.018182E+03	1.287973E-17	5.163099E-19
5.027273E+03	1.287457E-17	5.160143E-19
5.036364E+03	1.286798E-17	5.156618E-19
5.045455E+03	1.286349E-17	5.153941E-19
5.054545E+03	1.285760E-17	5.150701E-19
5.063636E+03	1.285382E-17	5.148311E-19
5.072727E+03	1.284862E-17	5.145357E-19
5.081818E+03	1.284554E-17	5.143252E-19
5.090909E+03	1.284103E-17	5.140580E-19
5.100000E+03	1.283686E-17	5.138047E-19
5.109091E+03	1.283477E-17	5.136350E-19
5.118182E+03	1.283124E-17	5.134082E-19
5.127273E+03	1.282802E-17	5.131939E-19
5.136364E+03	1.282509E-17	5.129915E-19
5.145455E+03	1.282420E-17	5.128711E-19
5.154545E+03	1.282181E-17	5.126911E-19
5.163636E+03	1.281966E-17	5.125214E-19
5.172727E+03	1.281775E-17	5.123612E-19
5.181818E+03	1.281604E-17	5.122098E-19
5.190909E+03	1.281453E-17	5.120663E-19
5.200000E+03	1.281319E-17	5.119304E-19
5.209091E+03	1.281199E-17	5.118004E-19
5.218182E+03	1.281092E-17	5.116760E-19
5.227273E+03	1.280996E-17	5.115564E-19
5.236364E+03	1.280908E-17	5.114406E-19
5.245455E+03	1.280826E-17	5.113273E-19
5.254545E+03	1.280748E-17	5.112162E-19
5.263636E+03	1.280496E-17	5.110362E-19
5.272727E+03	1.280418E-17	5.109262E-19
5.281818E+03	1.280338E-17	5.108157E-19
5.290909E+03	1.280077E-17	5.106334E-19
5.300000E+03	1.279983E-17	5.105185E-19
5.309091E+03	1.279880E-17	5.104004E-19
5.318182E+03	1.279590E-17	5.102081E-19
5.327273E+03	1.279461E-17	5.100809E-19
5.336364E+03	1.279317E-17	5.099479E-19
5.345455E+03	1.278979E-17	5.097385E-19
5.354545E+03	1.278797E-17	5.095920E-19
5.363636E+03	1.278420E-17	5.093679E-19
5.372727E+03	1.278194E-17	5.092049E-19
5.381818E+03	1.277770E-17	5.089635E-19
5.390909E+03	1.277320E-17	5.087125E-19
5.400000E+03	1.277018E-17	5.085211E-19
5.409091E+03	1.276514E-17	5.082499E-19
5.418182E+03	1.275982E-17	5.079681E-19
5.427273E+03	1.275594E-17	5.077444E-19
5.436364E+03	1.275001E-17	5.074400E-19
5.445455E+03	1.274378E-17	5.071243E-19
5.454545E+03	1.273723E-17	5.067969E-19
5.463636E+03	1.273212E-17	5.065270E-19
5.472727E+03	1.272494E-17	5.061761E-19
5.481818E+03	1.271745E-17	5.058133E-19
5.490909E+03	1.270965E-17	5.054390E-19
5.500000E+03	1.270154E-17	5.050534E-19
5.509091E+03	1.269312E-17	5.046563E-19
5.518182E+03	1.268441E-17	5.042482E-19
5.527273E+03	1.267540E-17	5.038294E-19
5.536364E+03	1.266611E-17	5.034001E-19
5.545455E+03	1.265654E-17	5.029609E-19
5.554545E+03	1.264672E-17	5.025122E-19
5.563636E+03	1.263663E-17	5.020540E-19
5.572727E+03	1.262630E-17	5.015875E-19
5.581818E+03	1.261576E-17	5.011130E-19
5.590909E+03	1.260499E-17	5.006307E-19
5.600000E+03	1.259230E-17	5.000733E-19
5.609091E+03	1.258116E-17	4.995781E-19
5.618182E+03	1.256985E-17	4.990772E-19
5.627273E+03	1.255838E-17	4.985711E-19
5.636364E+03	1.254505E-17	4.979923E-19
5.645455E+03	1.253332E-17	4.974779E-19
5.654545E+03	1.252149E-17	4.969604E-19
5.663636E+03	1.250785E-17	4.963723E-19
5.672727E+03	1.249583E-17	4.958496E-19
5.681818E+03	1.248374E-17	4.953248E-19
5.690909E+03	1.246987E-17	4.947307E-19
5.700000E+03	1.245764E-17	4.942025E-19
5.709091E+03	1.244366E-17	4.936056E-19
5.718182E+03	1.243133E-17	4.930757E-19
5.727273E+03	1.241896E-17	4.925449E-19
5.736364E+03	1.240486E-17	4.919463E-19
5.745455E+03	1.239243E-17	4.914149E-19
5.754545E+03	1.237828E-17	4.908165E-19
5.763636E+03	1.236411E-17	4.902184E-19
5.772727E+03	1.235163E-17	4.896880E-19
5.781818E+03	1.233746E-17	4.890915E-19
5.790909E+03	1.232498E-17	4.885629E-19
5.800000E+03	1.231081E-17	4.879685E-19
5.809091E+03	1.229666E-17	4.873758E-19
5.818182E+03	1.228421E-17	4.868513E-19
5.827273E+03	1.227010E-17	4.862619E-19
5.836364E+03	1.225602E-17	4.856745E-19
5.845455E+03	1.224196E-17	4.850891E-19
5.854545E+03	1.222962E-17	4.845723E-19
5.863636E+03	1.221563E-17	4.839917E-19
5.872727E+03	1.220169E-17	4.834133E-19
5.881818E+03	1.218780E-17	4.828379E-19
5.890909E+03	1.217394E-17	4.822649E-19
5.900000E+03	1.216181E-17	4.817610E-19
5.909091E+03	1.214806E-17	4.811938E-19
5.918182E+03	1.213436E-17	4.806294E-19
5.927273E+03	1.212072E-17	4.800682E-19
5.936364E+03	1.210713E-17	4.795100E-19
5.945455E+03	1.209361E-17	4.789550E-19
5.954545E+03	1.208013E-17	4.784028E-19
5.963636E+03	1.206671E-17	4.778538E-19
5.972727E+03	1.205335E-17	4.773076E-19
5.981818E+03	1.204004E-17	4.767646E-19
5.990909E+03	1.202679E-17	4.762244E-19
6.000000E+03	1.201359E-17	4.756869E-19
6.009091E+03	1.200043E-17	4.751522E-19
6.018182E+03	1.198733E-17	4.746203E-19
6.027273E+03	1.197427E-17	4.740908E-19
6.036364E+03	1.196125E-17	4.735638E-19
6.045455E+03	1.194826E-17	4.730388E-19
6.054545E+03	1.193368E-17	4.724512E-19
6.063636E+03	1.192076E-17	4.719305E-19
6.072727E+03	1.190787E-17	4.714112E-19
6.081818E+03	1.189500E-17	4.708939E-19
6.090909E+03	1.188214E-17	4.703776E-19
6.100000E+03	1.186767E-17	4.697981E-19
6.109091E+03	1.185484E-17	4.692843E-19
6.118182E+03	1.184200E-17	4.687710E-19
6.127273E+03	1.182916E-17	4.682582E-19
6.136364E+03	1.181468E-17	4.676813E-19
6.145455E+03	1.180180E-17	4.671687E-19
6.154545E+03	1.178891E-17	4.666560E-19
6.163636E+03	1.177437E-17	4.660788E-19
6.172727E+03	1.176141E-17	4.655649E-19
6.181818E+03	1.174842E-17	4.650501E-19
6.190909E+03	1.173376E-17	4.644703E-19
6.200000E+03	1.172066E-17	4.639528E-19
6.209091E+03	1.170751E-17	4.634339E-19
6.218182E+03	1.169267E-17	4.628492E-19
6.227273E+03	1.167938E-17	4.623261E-19
6.236364E+03	1.166440E-17	4.617369E-19
6.245455E+03	1.165096E-17	4.612090E-19
6.254545E+03	1.163582E-17	4.606147E-19
6.263636E+03	1.162219E-17	4.600810E-19
6.272727E+03	1.160686E-17	4.594807E-19
6.281818E+03	1.159304E-17	4.589404E-19
6.290909E+03	1.157752E-17	4.583335E-19
6.300000E+03	1.156348E-17	4.577861E-19
6.309091E+03	1.154773E-17	4.571718E-19
6.318182E+03	1.153188E-17	4.565538E-19
6.327273E+03	1.151749E-17	4.559945E-19
6.336364E+03	1.150140E-17	4.553684E-19
6.345455E+03	1.148519E-17	4.547381E-19
6.354545E+03	1.147044E-17	4.541662E-19
6.363636E+03	1.145398E-17	4.535275E-19
6.372727E+03	1.143740E-17	4.528842E-19
6.381818E+03	1.142227E-17	4.522994E-19
6.390909E+03	1.140544E-17	4.516477E-19
6.400000E+03	1.138848E-17	4.509916E-19
6.409091E+03	1.137141E-17	4.503315E-19
6.418182E+03	1.135579E-17	4.497295E-19
6.427273E+03	1.133847E-17	4.490609E-19
6.436364E+03	1.132104E-17	4.483886E-19
6.445455E+03	1.130349E-17	4.477122E-19
6.454545E+03	1.128584E-17	4.470324E-19
6.463636E+03	1.126965E-17	4.464107E-19
6.472727E+03	1.125178E-17	4.457237E-19
6.481818E+03	1.123383E-17	4.450335E-19
6.490909E+03	1.121578E-17	4.443404E-19
6.500000E+03	1.119765E-17	4.436444E-19
6.509091E+03	1.117944E-17	4.429461E-19
6.518182E+03	1.116115E-17	4.422452E-19
6.527273E+03	1.114280E-17	4.415425E-19
6.536364E+03	1.112440E-17	4.408383E-19
6.545455E+03	1.110594E-17	4.401324E-19
6.554545E+03	1.108745E-17	4.394256E-19
6.563636E+03	1.106891E-17	4.387179E-19
6.572727E+03	1.105035E-17	4.380096E-19
6.581818E+03	1.103178E-17	4.373015E-19
6.590909E+03	1.101319E-17	4.365935E-19
6.600000E+03	1.099460E-17	4.358860E-19
6.609091E+03	1.097602E-17	4.351797E-19
6.618182E+03	1.095746E-17	4.344746E-19
6.627273E+03	1.093894E-17	4.337715E-19
6.636364E+03	1.092045E-17	4.330702E-19
6.645455E+03	1.090049E-17	4.323115E-19
6.654545E+03	1.088211E-17	4.316157E-19
6.663636E+03	1.086380E-17	4.309234E-19
6.672727E+03	1.084556E-17	4.302347E-19
6.681818E+03	1.082741E-17	4.295501E-19
6.690909E+03	1.080785E-17	4.288100E-19
6.700000E+03	1.078991E-17	4.281349E-19
6.709091E+03	1.077208E-17	4.274647E-19
6.718182E+03	1.075288E-17	4.267405E-19
6.727273E+03	1.073532E-17	4.260823E-19
6.736364E+03	1.071790E-17	4.254303E-19
6.745455E+03	1.070064E-17	4.247851E-19
6.754545E+03	1.068204E-17	4.240873E-19
6.763636E+03	1.066511E-17	4.234564E-19
6.772727E+03	1.064687E-17	4.227743E-19
6.781818E+03	1.063030E-17	4.221590E-19
6.790909E+03	1.061393E-17	4.215521E-19
6.800000E+03	1.059627E-17	4.208948E-19
6.809091E+03	1.058030E-17	4.203053E-19
6.818182E+03	1.056306E-17	4.196659E-19
6.827273E+03	1.054752E-17	4.190945E-19
6.836364E+03	1.053072E-17	4.184738E-19
6.845455E+03	1.051561E-17	4.179211E-19
6.854545E+03	1.049926E-17	4.173193E-19
6.863636E+03	1.048461E-17	4.167859E-19
6.872727E+03	1.046870E-17	4.162030E-19
6.881818E+03	1.045301E-17	4.156298E-19
6.890909E+03	1.043900E-17	4.151235E-19
6.900000E+03	1.042372E-17	4.145674E-19
6.909091E+03	1.041010E-17	4.140775E-19
6.918182E+03	1.039518E-17	4.135369E-19
6.927273E+03	1.038044E-17	4.130039E-19
6.936364E+03	1.036586E-17	4.124774E-19
6.945455E+03	1.035288E-17	4.120155E-19
6.954545E+03	1.033858E-17	4.115012E-19
6.963636E+03	1.032439E-17	4.109920E-19
6.972727E+03	1.031178E-17	4.105460E-19
6.981818E+03	1.029780E-17	4.100460E-19
6.990909E+03	1.028390E-17	4.095498E-19
7.000000E+03	1.027009E-17	4.090571E-19
7.009091E+03	1.025631E-17	4.085666E-19
7.018182E+03	1.024260E-17	4.080787E-19
7.027273E+03	1.023036E-17	4.076502E-19
7.036364E+03	1.021669E-17	4.071647E-19
7.045455E+03	1.020303E-17	4.066801E-19
7.054545E+03	1.018936E-17	4.061957E-19
