#wls	flux	fluxerr
1.454545E+03	7.891235E-19	6.078013E-20
1.490909E+03	8.114613E-19	6.246578E-20
1.527273E+03	8.323492E-19	6.403690E-20
1.563636E+03	8.513599E-19	6.546072E-20
1.600000E+03	8.685585E-19	6.674240E-20
1.636364E+03	8.830340E-19	6.781214E-20
1.672727E+03	8.942964E-19	6.863264E-20
1.709091E+03	9.012232E-19	6.911822E-20
1.745455E+03	9.026618E-19	6.918113E-20
1.781818E+03	8.981868E-19	6.878964E-20
1.818182E+03	8.878143E-19	6.794592E-20
1.854545E+03	8.736028E-19	6.680840E-20
1.890909E+03	8.603612E-19	6.574525E-20
1.927273E+03	8.544327E-19	6.524066E-20
1.963636E+03	8.621120E-19	6.577356E-20
2.000000E+03	8.862230E-19	6.755663E-20
2.036364E+03	9.248432E-19	7.044014E-20
2.072727E+03	9.743475E-19	7.414513E-20
2.109091E+03	1.030951E-18	7.838135E-20
2.145455E+03	1.092431E-18	8.297823E-20
2.181818E+03	1.158346E-18	8.790071E-20
2.218182E+03	1.227907E-18	9.308771E-20
2.254545E+03	1.300220E-18	9.847025E-20
2.290909E+03	1.374244E-18	1.039684E-19
2.327273E+03	1.449381E-18	1.095362E-19
2.363636E+03	1.524639E-18	1.150978E-19
2.400000E+03	1.600118E-18	1.206604E-19
2.436364E+03	1.676219E-18	1.262535E-19
2.472727E+03	1.752611E-18	1.318515E-19
2.509091E+03	1.830212E-18	1.375227E-19
2.545455E+03	1.909063E-18	1.432695E-19
2.581818E+03	1.989498E-18	1.491157E-19
2.618182E+03	2.071469E-18	1.550568E-19
2.654545E+03	2.155991E-18	1.611676E-19
2.690909E+03	2.242998E-18	1.674417E-19
2.727273E+03	2.333164E-18	1.739280E-19
2.736364E+03	2.355963E-18	1.755649E-19
2.745455E+03	2.378952E-18	1.772144E-19
2.754545E+03	2.402134E-18	1.788767E-19
2.763636E+03	2.425965E-18	1.805857E-19
2.772727E+03	2.449698E-18	1.822857E-19
2.781818E+03	2.473859E-18	1.840159E-19
2.790909E+03	2.498859E-18	1.858067E-19
2.800000E+03	2.523804E-18	1.875918E-19
2.809091E+03	2.549109E-18	1.894018E-19
2.818182E+03	2.575204E-18	1.912687E-19
2.827273E+03	2.601176E-18	1.931245E-19
2.836364E+03	2.627455E-18	1.950014E-19
2.845455E+03	2.654027E-18	1.968980E-19
2.854545E+03	2.681349E-18	1.988483E-19
2.863636E+03	2.708476E-18	2.007822E-19
2.872727E+03	2.736341E-18	2.027688E-19
2.881818E+03	2.763984E-18	2.047369E-19
2.890909E+03	2.791871E-18	2.067210E-19
2.900000E+03	2.820486E-18	2.087570E-19
2.909091E+03	2.848847E-18	2.107720E-19
2.918182E+03	2.877434E-18	2.128016E-19
2.927273E+03	2.906751E-18	2.148831E-19
2.936364E+03	2.935787E-18	2.169415E-19
2.945455E+03	2.965042E-18	2.190139E-19
2.954545E+03	2.995035E-18	2.211385E-19
2.963636E+03	3.024726E-18	2.232387E-19
2.972727E+03	3.054634E-18	2.253524E-19
2.981818E+03	3.085295E-18	2.275194E-19
2.990909E+03	3.115641E-18	2.296608E-19
3.000000E+03	3.146752E-18	2.318562E-19
3.009091E+03	3.177542E-18	2.340254E-19
3.018182E+03	3.208554E-18	2.362086E-19
3.027273E+03	3.240355E-18	2.384473E-19
3.036364E+03	3.271835E-18	2.406600E-19
3.045455E+03	3.303551E-18	2.428874E-19
3.054545E+03	3.336142E-18	2.451766E-19
3.063636E+03	3.368451E-18	2.474424E-19
3.072727E+03	3.401641E-18	2.497703E-19
3.081818E+03	3.434535E-18	2.520737E-19
3.090909E+03	3.467716E-18	2.543955E-19
3.100000E+03	3.501792E-18	2.567802E-19
3.109091E+03	3.535553E-18	2.591390E-19
3.118182E+03	3.570220E-18	2.615614E-19
3.127273E+03	3.604561E-18	2.639570E-19
3.136364E+03	3.639824E-18	2.664171E-19
3.145455E+03	3.674751E-18	2.688498E-19
3.154545E+03	3.709971E-18	2.713009E-19
3.163636E+03	3.746136E-18	2.738180E-19
3.172727E+03	3.781953E-18	2.763067E-19
3.181818E+03	3.818733E-18	2.788626E-19
3.190909E+03	3.855160E-18	2.813896E-19
3.200000E+03	3.891892E-18	2.839358E-19
3.209091E+03	3.929614E-18	2.865509E-19
3.218182E+03	3.966974E-18	2.891363E-19
3.227273E+03	4.005343E-18	2.917919E-19
3.236364E+03	4.043344E-18	2.944175E-19
3.245455E+03	4.082374E-18	2.971146E-19
3.254545E+03	4.121032E-18	2.997811E-19
3.263636E+03	4.160019E-18	3.024682E-19
3.272727E+03	4.200067E-18	3.052288E-19
3.281818E+03	4.239732E-18	3.079581E-19
3.290909E+03	4.280478E-18	3.107623E-19
3.300000E+03	4.320837E-18	3.135347E-19
3.309091E+03	4.362298E-18	3.163834E-19
3.318182E+03	4.403364E-18	3.191997E-19
3.327273E+03	4.445553E-18	3.220936E-19
3.336364E+03	4.487341E-18	3.249547E-19
3.345455E+03	4.529491E-18	3.278381E-19
3.354545E+03	4.572795E-18	3.308011E-19
3.363636E+03	4.615686E-18	3.337303E-19
3.372727E+03	4.659752E-18	3.367403E-19
3.381818E+03	4.703396E-18	3.397158E-19
3.390909E+03	4.748234E-18	3.427735E-19
3.400000E+03	4.792642E-18	3.457959E-19
3.409091E+03	4.837431E-18	3.488416E-19
3.418182E+03	4.883444E-18	3.519713E-19
3.427273E+03	4.929009E-18	3.550644E-19
3.436364E+03	4.975817E-18	3.582427E-19
3.445455E+03	5.022166E-18	3.613834E-19
3.454545E+03	5.069776E-18	3.646105E-19
3.463636E+03	5.116913E-18	3.677990E-19
3.472727E+03	5.164441E-18	3.710111E-19
3.481818E+03	5.213257E-18	3.743111E-19
3.490909E+03	5.261578E-18	3.775708E-19
3.500000E+03	5.311204E-18	3.809195E-19
3.509091E+03	5.360317E-18	3.842266E-19
3.518182E+03	5.410751E-18	3.876235E-19
3.527273E+03	5.460656E-18	3.909776E-19
3.536364E+03	5.510950E-18	3.943547E-19
3.545455E+03	5.562586E-18	3.978228E-19
3.554545E+03	5.613663E-18	4.012459E-19
3.563636E+03	5.666097E-18	4.047608E-19
3.572727E+03	5.717950E-18	4.082292E-19
3.581818E+03	5.771173E-18	4.117900E-19
3.590909E+03	5.823791E-18	4.153026E-19
3.600000E+03	5.876783E-18	4.188364E-19
3.609091E+03	5.931161E-18	4.224637E-19
3.618182E+03	5.984898E-18	4.260400E-19
3.627273E+03	6.040031E-18	4.297101E-19
3.636364E+03	6.094496E-18	4.333272E-19
3.645455E+03	6.149314E-18	4.369639E-19
3.654545E+03	6.205540E-18	4.406950E-19
3.663636E+03	6.261054E-18	4.443699E-19
3.672727E+03	6.317985E-18	4.481396E-19
3.681818E+03	6.374172E-18	4.518509E-19
3.690909E+03	6.430683E-18	4.555793E-19
3.700000E+03	6.488616E-18	4.594026E-19
3.709091E+03	6.545757E-18	4.631640E-19
3.718182E+03	6.603197E-18	4.669406E-19
3.727273E+03	6.662068E-18	4.708124E-19
3.736364E+03	6.720093E-18	4.746184E-19
3.745455E+03	6.779543E-18	4.785190E-19
3.754545E+03	6.838114E-18	4.823514E-19
3.763636E+03	6.896941E-18	4.861958E-19
3.772727E+03	6.957196E-18	4.901347E-19
3.781818E+03	7.016505E-18	4.940006E-19
3.790909E+03	7.076038E-18	4.978762E-19
3.800000E+03	7.136995E-18	5.018457E-19
3.809091E+03	7.196944E-18	5.057379E-19
3.818182E+03	7.257083E-18	5.096373E-19
3.827273E+03	7.318636E-18	5.136295E-19
3.836364E+03	7.379118E-18	5.175401E-19
3.845455E+03	7.439749E-18	5.214548E-19
3.854545E+03	7.501782E-18	5.254613E-19
3.863636E+03	7.562672E-18	5.293813E-19
3.872727E+03	7.623669E-18	5.333023E-19
3.881818E+03	7.686057E-18	5.373140E-19
3.890909E+03	7.747222E-18	5.412338E-19
3.900000E+03	7.808446E-18	5.451511E-19
3.909091E+03	7.871053E-18	5.491585E-19
3.918182E+03	7.932351E-18	5.530679E-19
3.927273E+03	7.993656E-18	5.569713E-19
3.936364E+03	8.056324E-18	5.609631E-19
3.945455E+03	8.117603E-18	5.648514E-19
3.954545E+03	8.178837E-18	5.687302E-19
3.963636E+03	8.240006E-18	5.725979E-19
3.972727E+03	8.302502E-18	5.765512E-19
3.981818E+03	8.363502E-18	5.803940E-19
3.990909E+03	8.424371E-18	5.842212E-19
4.000000E+03	8.485106E-18	5.880327E-19
4.009091E+03	8.547124E-18	5.919265E-19
4.018182E+03	8.607519E-18	5.957013E-19
4.027273E+03	8.667713E-18	5.994558E-19
4.036364E+03	8.727683E-18	6.031884E-19
4.045455E+03	8.788892E-18	6.070001E-19
4.054545E+03	8.848361E-18	6.106852E-19
4.063636E+03	8.907532E-18	6.143434E-19
4.072727E+03	8.966395E-18	6.179740E-19
4.081818E+03	9.024926E-18	6.215755E-19
4.090909E+03	9.084627E-18	6.252513E-19
4.100000E+03	9.142427E-18	6.287900E-19
4.109091E+03	9.199819E-18	6.322945E-19
4.118182E+03	9.256787E-18	6.357638E-19
4.127273E+03	9.313306E-18	6.391963E-19
4.136364E+03	9.370933E-18	6.426987E-19
4.145455E+03	9.426479E-18	6.460525E-19
4.154545E+03	9.481507E-18	6.493649E-19
4.163636E+03	9.535993E-18	6.526344E-19
4.172727E+03	9.589898E-18	6.558585E-19
4.181818E+03	9.643212E-18	6.590366E-19
4.190909E+03	9.697540E-18	6.622783E-19
4.200000E+03	9.749596E-18	6.653594E-19
4.209091E+03	9.800983E-18	6.683894E-19
4.218182E+03	9.851676E-18	6.713668E-19
4.227273E+03	9.901645E-18	6.742898E-19
4.236364E+03	9.950879E-18	6.771575E-19
4.245455E+03	9.999340E-18	6.799677E-19
4.254545E+03	1.004701E-17	6.827193E-19
4.263636E+03	1.009387E-17	6.854108E-19
4.272727E+03	1.014159E-17	6.881566E-19
4.281818E+03	1.018675E-17	6.907238E-19
4.290909E+03	1.023103E-17	6.932264E-19
4.300000E+03	1.027440E-17	6.956633E-19
4.309091E+03	1.031683E-17	6.980327E-19
4.318182E+03	1.035831E-17	7.003334E-19
4.327273E+03	1.039881E-17	7.025641E-19
4.336364E+03	1.043832E-17	7.047241E-19
4.345455E+03	1.047681E-17	7.068116E-19
4.354545E+03	1.051425E-17	7.088251E-19
4.363636E+03	1.055064E-17	7.107646E-19
4.372727E+03	1.058597E-17	7.126285E-19
4.381818E+03	1.062019E-17	7.144154E-19
4.390909E+03	1.065331E-17	7.161249E-19
4.400000E+03	1.068530E-17	7.177565E-19
4.409091E+03	1.071616E-17	7.193086E-19
4.418182E+03	1.074587E-17	7.207819E-19
4.427273E+03	1.077442E-17	7.221747E-19
4.436364E+03	1.080181E-17	7.234877E-19
4.445455E+03	1.082803E-17	7.247208E-19
4.454545E+03	1.085309E-17	7.258736E-19
4.463636E+03	1.087696E-17	7.269459E-19
4.472727E+03	1.089968E-17	7.279394E-19
4.481818E+03	1.092122E-17	7.288530E-19
4.490909E+03	1.094160E-17	7.296881E-19
4.500000E+03	1.095900E-17	7.303228E-19
4.509091E+03	1.097707E-17	7.310021E-19
4.518182E+03	1.099401E-17	7.316049E-19
4.527273E+03	1.100982E-17	7.321317E-19
4.536364E+03	1.102452E-17	7.325835E-19
4.545455E+03	1.103810E-17	7.329613E-19
4.554545E+03	1.105059E-17	7.332660E-19
4.563636E+03	1.106199E-17	7.334983E-19
4.572727E+03	1.107047E-17	7.335366E-19
4.581818E+03	1.107975E-17	7.336278E-19
4.590909E+03	1.108798E-17	7.336503E-19
4.600000E+03	1.109519E-17	7.336054E-19
4.609091E+03	1.110139E-17	7.334934E-19
4.618182E+03	1.110659E-17	7.333163E-19
4.627273E+03	1.110895E-17	7.329524E-19
4.636364E+03	1.111222E-17	7.326487E-19
4.645455E+03	1.111453E-17	7.322836E-19
4.654545E+03	1.111592E-17	7.318579E-19
4.663636E+03	1.111640E-17	7.313737E-19
4.672727E+03	1.111413E-17	7.307097E-19
4.681818E+03	1.111285E-17	7.301120E-19
4.690909E+03	1.111072E-17	7.294594E-19
4.700000E+03	1.110775E-17	7.287538E-19
4.709091E+03	1.110211E-17	7.278741E-19
4.718182E+03	1.109752E-17	7.270657E-19
4.727273E+03	1.109217E-17	7.262085E-19
4.736364E+03	1.108420E-17	7.251822E-19
4.745455E+03	1.107735E-17	7.242308E-19
4.754545E+03	1.106978E-17	7.232345E-19
4.763636E+03	1.106151E-17	7.221950E-19
4.772727E+03	1.105071E-17	7.209923E-19
4.781818E+03	1.104111E-17	7.198699E-19
4.790909E+03	1.103087E-17	7.187083E-19
4.800000E+03	1.101817E-17	7.173891E-19
4.809091E+03	1.100671E-17	7.161534E-19
4.818182E+03	1.099467E-17	7.148826E-19
4.827273E+03	1.098023E-17	7.134588E-19
4.836364E+03	1.096709E-17	7.121221E-19
4.845455E+03	1.095160E-17	7.106354E-19
4.854545E+03	1.093744E-17	7.092384E-19
4.863636E+03	1.092279E-17	7.078131E-19
4.872727E+03	1.090586E-17	7.062430E-19
4.881818E+03	1.089031E-17	7.047652E-19
4.890909E+03	1.087252E-17	7.031457E-19
4.900000E+03	1.085614E-17	7.016210E-19
4.909091E+03	1.083936E-17	7.000743E-19
4.918182E+03	1.082042E-17	6.983911E-19
4.927273E+03	1.080292E-17	6.968048E-19
4.936364E+03	1.078329E-17	6.950847E-19
4.945455E+03	1.076516E-17	6.934646E-19
4.954545E+03	1.074492E-17	6.917129E-19
4.963636E+03	1.072620E-17	6.900627E-19
4.972727E+03	1.070542E-17	6.882845E-19
4.981818E+03	1.068619E-17	6.866094E-19
4.990909E+03	1.066496E-17	6.848094E-19
5.000000E+03	1.064528E-17	6.831137E-19
5.009091E+03	1.062363E-17	6.812957E-19
5.018182E+03	1.060358E-17	6.795845E-19
5.027273E+03	1.058159E-17	6.777532E-19
5.036364E+03	1.056122E-17	6.760299E-19
5.045455E+03	1.053896E-17	6.741899E-19
5.054545E+03	1.051833E-17	6.724592E-19
5.063636E+03	1.049585E-17	6.706139E-19
5.072727E+03	1.047328E-17	6.687680E-19
5.081818E+03	1.045239E-17	6.670335E-19
5.090909E+03	1.042969E-17	6.651887E-19
5.100000E+03	1.040869E-17	6.634563E-19
5.109091E+03	1.038592E-17	6.616162E-19
5.118182E+03	1.036313E-17	6.597799E-19
5.127273E+03	1.034207E-17	6.580582E-19
5.136364E+03	1.031929E-17	6.562320E-19
5.145455E+03	1.029825E-17	6.545215E-19
5.154545E+03	1.027552E-17	6.527087E-19
5.163636E+03	1.025285E-17	6.509044E-19
5.172727E+03	1.023194E-17	6.492170E-19
5.181818E+03	1.020941E-17	6.474315E-19
5.190909E+03	1.018695E-17	6.456561E-19
5.200000E+03	1.016629E-17	6.439995E-19
5.209091E+03	1.014404E-17	6.422478E-19
5.218182E+03	1.012191E-17	6.405085E-19
5.227273E+03	1.010159E-17	6.388896E-19
5.236364E+03	1.007973E-17	6.371784E-19
5.245455E+03	1.005803E-17	6.354823E-19
5.254545E+03	1.003649E-17	6.338023E-19
5.263636E+03	1.001680E-17	6.322441E-19
5.272727E+03	9.995613E-18	6.305972E-19
5.281818E+03	9.974632E-18	6.289687E-19
5.290909E+03	9.955514E-18	6.274631E-19
5.300000E+03	9.934951E-18	6.258721E-19
5.309091E+03	9.914617E-18	6.243011E-19
5.318182E+03	9.894513E-18	6.227504E-19
5.327273E+03	9.874663E-18	6.212213E-19
5.336364E+03	9.856708E-18	6.198172E-19
5.345455E+03	9.837378E-18	6.183323E-19
5.354545E+03	9.818320E-18	6.168704E-19
5.363636E+03	9.799551E-18	6.154325E-19
5.372727E+03	9.781079E-18	6.140192E-19
5.381818E+03	9.764535E-18	6.127328E-19
5.390909E+03	9.746671E-18	6.113695E-19
5.400000E+03	9.729137E-18	6.100329E-19
5.409091E+03	9.711929E-18	6.087228E-19
5.418182E+03	9.695063E-18	6.074402E-19
5.427273E+03	9.678554E-18	6.061861E-19
5.436364E+03	9.664000E-18	6.050607E-19
5.445455E+03	9.648211E-18	6.038640E-19
5.454545E+03	9.632799E-18	6.026972E-19
5.463636E+03	9.617766E-18	6.015604E-19
5.472727E+03	9.603127E-18	6.004546E-19
5.481818E+03	9.588899E-18	5.993808E-19
5.490909E+03	9.575076E-18	5.983387E-19
5.500000E+03	9.561666E-18	5.973290E-19
5.509091E+03	9.550276E-18	5.964519E-19
5.518182E+03	9.537737E-18	5.955095E-19
5.527273E+03	9.525632E-18	5.946008E-19
5.536364E+03	9.513985E-18	5.937274E-19
5.545455E+03	9.502797E-18	5.928892E-19
5.554545E+03	9.492077E-18	5.920870E-19
5.563636E+03	9.481827E-18	5.913209E-19
5.572727E+03	9.472063E-18	5.905919E-19
5.581818E+03	9.462795E-18	5.899007E-19
5.590909E+03	9.454016E-18	5.892470E-19
5.600000E+03	9.445737E-18	5.886314E-19
5.609091E+03	9.437974E-18	5.880550E-19
5.618182E+03	9.430728E-18	5.875179E-19
5.627273E+03	9.423994E-18	5.870198E-19
5.636364E+03	9.417789E-18	5.865620E-19
5.645455E+03	9.412114E-18	5.861443E-19
5.654545E+03	9.406968E-18	5.857667E-19
5.663636E+03	9.402346E-18	5.854287E-19
5.672727E+03	9.398239E-18	5.851297E-19
5.681818E+03	9.394662E-18	5.848706E-19
5.690909E+03	9.391587E-18	5.846494E-19
5.700000E+03	9.389028E-18	5.844671E-19
5.709091E+03	9.386964E-18	5.843221E-19
5.718182E+03	9.385393E-18	5.842145E-19
5.727273E+03	9.384310E-18	5.841436E-19
5.736364E+03	9.383707E-18	5.841089E-19
5.745455E+03	9.383569E-18	5.841095E-19
5.754545E+03	9.383897E-18	5.841452E-19
5.763636E+03	9.384675E-18	5.842152E-19
5.772727E+03	9.384335E-18	5.842216E-19
5.781818E+03	9.386000E-18	5.843588E-19
5.790909E+03	9.388086E-18	5.845283E-19
5.800000E+03	9.390602E-18	5.847303E-19
5.809091E+03	9.393525E-18	5.849635E-19
5.818182E+03	9.396855E-18	5.852278E-19
5.827273E+03	9.400585E-18	5.855227E-19
5.836364E+03	9.404700E-18	5.858472E-19
5.845455E+03	9.409193E-18	5.862009E-19
5.854545E+03	9.412500E-18	5.864861E-19
5.863636E+03	9.417733E-18	5.868968E-19
5.872727E+03	9.423329E-18	5.873356E-19
5.881818E+03	9.429274E-18	5.878015E-19
5.890909E+03	9.435561E-18	5.882939E-19
5.900000E+03	9.442188E-18	5.888129E-19
5.909091E+03	9.447570E-18	5.892594E-19
5.918182E+03	9.454850E-18	5.898294E-19
5.927273E+03	9.462440E-18	5.904239E-19
5.936364E+03	9.470335E-18	5.910425E-19
5.945455E+03	9.478542E-18	5.916855E-19
5.954545E+03	9.485460E-18	5.922531E-19
5.963636E+03	9.494244E-18	5.929421E-19
5.972727E+03	9.503310E-18	5.936536E-19
5.981818E+03	9.512650E-18	5.943870E-19
5.990909E+03	9.522257E-18	5.951420E-19
6.000000E+03	9.530547E-18	5.958194E-19
6.009091E+03	9.540671E-18	5.966161E-19
6.018182E+03	9.551054E-18	5.974338E-19
6.027273E+03	9.561675E-18	5.982709E-19
6.036364E+03	9.570943E-18	5.990280E-19
6.045455E+03	9.582027E-18	5.999034E-19
6.054545E+03	9.593340E-18	6.007976E-19
6.063636E+03	9.604875E-18	6.017103E-19
6.072727E+03	9.615014E-18	6.025399E-19
6.081818E+03	9.626967E-18	6.034876E-19
6.090909E+03	9.639110E-18	6.044517E-19
6.100000E+03	9.651452E-18	6.054326E-19
6.109091E+03	9.662369E-18	6.063285E-19
6.118182E+03	9.675083E-18	6.073414E-19
6.127273E+03	9.687963E-18	6.083691E-19
6.136364E+03	9.699392E-18	6.093098E-19
6.145455E+03	9.712597E-18	6.103664E-19
6.154545E+03	9.725962E-18	6.114371E-19
6.163636E+03	9.737846E-18	6.124190E-19
6.172727E+03	9.751496E-18	6.135160E-19
6.181818E+03	9.765273E-18	6.146251E-19
6.190909E+03	9.777558E-18	6.156444E-19
6.200000E+03	9.791580E-18	6.167771E-19
6.209091E+03	9.805721E-18	6.179214E-19
6.218182E+03	9.818334E-18	6.189734E-19
6.227273E+03	9.832680E-18	6.201386E-19
6.236364E+03	9.847120E-18	6.213137E-19
6.245455E+03	9.859996E-18	6.223941E-19
6.254545E+03	9.874593E-18	6.235869E-19
6.263636E+03	9.889260E-18	6.247882E-19
6.272727E+03	9.902340E-18	6.258930E-19
6.281818E+03	9.917114E-18	6.271087E-19
6.290909E+03	9.930290E-18	6.282271E-19
6.300000E+03	9.945153E-18	6.294561E-19
6.309091E+03	9.960044E-18	6.306907E-19
6.318182E+03	9.973301E-18	6.318255E-19
6.327273E+03	9.988231E-18	6.330701E-19
6.336364E+03	1.000150E-17	6.342130E-19
6.345455E+03	1.001643E-17	6.354649E-19
6.354545E+03	1.002966E-17	6.366131E-19
6.363636E+03	1.004456E-17	6.378705E-19
6.372727E+03	1.005942E-17	6.391291E-19
6.381818E+03	1.007256E-17	6.402820E-19
6.390909E+03	1.008733E-17	6.415422E-19
6.400000E+03	1.010036E-17	6.426952E-19
6.409091E+03	1.011501E-17	6.439543E-19
6.418182E+03	1.012788E-17	6.451046E-19
6.427273E+03	1.014235E-17	6.463597E-19
6.436364E+03	1.015503E-17	6.475045E-19
6.445455E+03	1.016929E-17	6.487532E-19
6.454545E+03	1.018344E-17	6.499985E-19
6.463636E+03	1.019575E-17	6.511297E-19
6.472727E+03	1.020961E-17	6.523634E-19
6.481818E+03	1.022161E-17	6.534822E-19
6.490909E+03	1.023516E-17	6.547025E-19
6.500000E+03	1.024681E-17	6.558053E-19
6.509091E+03	1.025998E-17	6.570083E-19
6.518182E+03	1.027123E-17	6.580922E-19
6.527273E+03	1.028399E-17	6.592753E-19
6.536364E+03	1.029479E-17	6.603367E-19
6.545455E+03	1.030535E-17	6.613856E-19
6.554545E+03	1.031738E-17	6.625318E-19
6.563636E+03	1.032741E-17	6.635533E-19
6.572727E+03	1.033888E-17	6.646703E-19
6.581818E+03	1.034833E-17	6.656603E-19
6.590909E+03	1.035920E-17	6.667448E-19
6.600000E+03	1.036801E-17	6.677002E-19
6.609091E+03	1.037820E-17	6.687475E-19
6.618182E+03	1.038631E-17	6.696635E-19
6.627273E+03	1.039579E-17	6.706709E-19
6.636364E+03	1.040314E-17	6.715438E-19
6.645455E+03	1.041009E-17	6.723937E-19
6.654545E+03	1.041836E-17	6.733318E-19
6.663636E+03	1.042445E-17	6.741323E-19
6.672727E+03	1.043183E-17	6.750189E-19
6.681818E+03	1.043701E-17	6.757656E-19
6.690909E+03	1.044171E-17	6.764841E-19
6.700000E+03	1.044765E-17	6.772856E-19
6.709091E+03	1.045133E-17	6.779439E-19
6.718182E+03	1.045622E-17	6.786830E-19
6.727273E+03	1.045883E-17	6.792764E-19
6.736364E+03	1.046087E-17	6.798354E-19
6.745455E+03	1.046408E-17	6.804730E-19
6.754545E+03	1.046494E-17	6.809605E-19
6.763636E+03	1.046519E-17	6.814108E-19
6.772727E+03	1.046657E-17	6.819369E-19
6.781818E+03	1.046556E-17	6.823095E-19
6.790909E+03	1.046564E-17	6.827556E-19
6.800000E+03	1.046331E-17	6.830463E-19
6.809091E+03	1.046029E-17	6.832943E-19
6.818182E+03	1.045833E-17	6.836139E-19
6.827273E+03	1.045391E-17	6.837752E-19
6.836364E+03	1.044879E-17	6.838919E-19
6.845455E+03	1.044468E-17	6.840773E-19
6.854545E+03	1.043810E-17	6.841025E-19
6.863636E+03	1.043079E-17	6.840816E-19
6.872727E+03	1.042450E-17	6.841291E-19
6.881818E+03	1.041573E-17	6.840150E-19
6.890909E+03	1.040623E-17	6.838550E-19
6.900000E+03	1.039601E-17	6.836482E-19
6.909091E+03	1.038682E-17	6.835105E-19
6.918182E+03	1.037517E-17	6.832124E-19
6.927273E+03	1.036284E-17	6.828695E-19
6.936364E+03	1.035155E-17	6.825964E-19
6.945455E+03	1.033785E-17	6.821648E-19
6.954545E+03	1.032348E-17	6.816892E-19
6.963636E+03	1.030846E-17	6.811715E-19
6.972727E+03	1.029453E-17	6.807254E-19
6.981818E+03	1.027824E-17	6.801240E-19
6.990909E+03	1.026133E-17	6.794814E-19
7.000000E+03	1.024383E-17	6.787990E-19
7.009091E+03	1.022745E-17	6.781913E-19
7.018182E+03	1.020877E-17	6.774305E-19
7.027273E+03	1.018953E-17	6.766318E-19
7.036364E+03	1.016975E-17	6.757964E-19
7.045455E+03	1.015113E-17	6.750377E-19
7.054545E+03	1.013027E-17	6.741297E-19
