#wls	flux	fluxerr
1.588055E+03	2.137871E-06	0.000000E+00
1.627756E+03	2.155066E-06	0.000000E+00
1.667457E+03	2.169727E-06	0.000000E+00
1.707159E+03	2.181730E-06	0.000000E+00
1.746860E+03	2.190836E-06	0.000000E+00
1.786561E+03	2.196383E-06	0.000000E+00
1.826263E+03	2.197506E-06	0.000000E+00
1.865964E+03	2.193187E-06	0.000000E+00
1.905666E+03	2.182391E-06	0.000000E+00
1.945367E+03	2.164425E-06	0.000000E+00
1.985068E+03	2.139691E-06	0.000000E+00
2.024770E+03	2.110812E-06	0.000000E+00
2.064471E+03	2.083546E-06	0.000000E+00
2.104172E+03	2.066102E-06	0.000000E+00
2.143874E+03	2.065894E-06	0.000000E+00
2.183575E+03	2.085547E-06	0.000000E+00
2.223277E+03	2.121791E-06	0.000000E+00
2.262978E+03	2.168053E-06	0.000000E+00
2.302679E+03	2.217918E-06	0.000000E+00
2.342381E+03	2.266956E-06	0.000000E+00
2.382082E+03	2.312839E-06	0.000000E+00
2.421783E+03	2.354722E-06	0.000000E+00
2.461485E+03	2.392588E-06	0.000000E+00
2.501186E+03	2.426799E-06	0.000000E+00
2.540887E+03	2.457853E-06	0.000000E+00
2.580589E+03	2.486247E-06	0.000000E+00
2.620290E+03	2.512442E-06	0.000000E+00
2.659992E+03	2.536834E-06	0.000000E+00
2.699693E+03	2.559766E-06	0.000000E+00
2.739394E+03	2.581527E-06	0.000000E+00
2.779096E+03	2.602366E-06	0.000000E+00
2.818797E+03	2.622503E-06	0.000000E+00
2.858498E+03	2.642125E-06	0.000000E+00
2.898200E+03	2.661404E-06	0.000000E+00
2.937901E+03	2.680498E-06	0.000000E+00
2.977602E+03	2.699554E-06	0.000000E+00
2.987528E+03	2.704327E-06	0.000000E+00
2.997453E+03	2.709110E-06	0.000000E+00
3.007378E+03	2.713902E-06	0.000000E+00
3.017304E+03	2.718721E-06	0.000000E+00
3.027229E+03	2.723624E-06	0.000000E+00
3.037155E+03	2.728664E-06	0.000000E+00
3.047080E+03	2.733826E-06	0.000000E+00
3.057005E+03	2.739094E-06	0.000000E+00
3.066931E+03	2.744456E-06	0.000000E+00
3.076856E+03	2.749900E-06	0.000000E+00
3.086781E+03	2.755416E-06	0.000000E+00
3.096707E+03	2.760993E-06	0.000000E+00
3.106632E+03	2.766625E-06	0.000000E+00
3.116557E+03	2.772304E-06	0.000000E+00
3.126483E+03	2.778025E-06	0.000000E+00
3.136408E+03	2.783784E-06	0.000000E+00
3.146333E+03	2.789573E-06	0.000000E+00
3.156259E+03	2.795392E-06	0.000000E+00
3.166184E+03	2.801236E-06	0.000000E+00
3.176109E+03	2.807105E-06	0.000000E+00
3.186035E+03	2.812995E-06	0.000000E+00
3.195960E+03	2.818909E-06	0.000000E+00
3.205885E+03	2.824842E-06	0.000000E+00
3.215811E+03	2.830796E-06	0.000000E+00
3.225736E+03	2.836773E-06	0.000000E+00
3.235661E+03	2.842770E-06	0.000000E+00
3.245587E+03	2.848792E-06	0.000000E+00
3.255512E+03	2.854837E-06	0.000000E+00
3.265437E+03	2.860910E-06	0.000000E+00
3.275363E+03	2.867010E-06	0.000000E+00
3.285288E+03	2.873140E-06	0.000000E+00
3.295213E+03	2.879304E-06	0.000000E+00
3.305139E+03	2.885501E-06	0.000000E+00
3.315064E+03	2.891736E-06	0.000000E+00
3.324989E+03	2.898012E-06	0.000000E+00
3.334915E+03	2.904330E-06	0.000000E+00
3.344840E+03	2.910694E-06	0.000000E+00
3.354765E+03	2.917108E-06	0.000000E+00
3.364691E+03	2.923573E-06	0.000000E+00
3.374616E+03	2.930093E-06	0.000000E+00
3.384541E+03	2.936672E-06	0.000000E+00
3.394467E+03	2.943311E-06	0.000000E+00
3.404392E+03	2.950015E-06	0.000000E+00
3.414318E+03	2.956787E-06	0.000000E+00
3.424243E+03	2.963629E-06	0.000000E+00
3.434168E+03	2.970545E-06	0.000000E+00
3.444094E+03	2.977538E-06	0.000000E+00
3.454019E+03	2.984611E-06	0.000000E+00
3.463944E+03	2.991766E-06	0.000000E+00
3.473870E+03	2.999007E-06	0.000000E+00
3.483795E+03	3.006337E-06	0.000000E+00
3.493720E+03	3.013758E-06	0.000000E+00
3.503646E+03	3.021273E-06	0.000000E+00
3.513571E+03	3.028885E-06	0.000000E+00
3.523496E+03	3.036597E-06	0.000000E+00
3.533422E+03	3.044411E-06	0.000000E+00
3.543347E+03	3.052329E-06	0.000000E+00
3.553272E+03	3.060354E-06	0.000000E+00
3.563198E+03	3.068488E-06	0.000000E+00
3.573123E+03	3.076734E-06	0.000000E+00
3.583048E+03	3.085093E-06	0.000000E+00
3.592974E+03	3.093566E-06	0.000000E+00
3.602899E+03	3.102158E-06	0.000000E+00
3.612824E+03	3.110869E-06	0.000000E+00
3.622750E+03	3.119700E-06	0.000000E+00
3.632675E+03	3.128654E-06	0.000000E+00
3.642600E+03	3.137731E-06	0.000000E+00
3.652526E+03	3.146933E-06	0.000000E+00
3.662451E+03	3.156263E-06	0.000000E+00
3.672376E+03	3.165720E-06	0.000000E+00
3.682302E+03	3.175304E-06	0.000000E+00
3.692227E+03	3.185019E-06	0.000000E+00
3.702152E+03	3.194864E-06	0.000000E+00
3.712078E+03	3.204839E-06	0.000000E+00
3.722003E+03	3.214947E-06	0.000000E+00
3.731928E+03	3.225185E-06	0.000000E+00
3.741854E+03	3.235556E-06	0.000000E+00
3.751779E+03	3.246059E-06	0.000000E+00
3.761704E+03	3.256695E-06	0.000000E+00
3.771630E+03	3.267462E-06	0.000000E+00
3.781555E+03	3.278362E-06	0.000000E+00
3.791480E+03	3.289393E-06	0.000000E+00
3.801406E+03	3.300556E-06	0.000000E+00
3.811331E+03	3.311848E-06	0.000000E+00
3.821257E+03	3.323270E-06	0.000000E+00
3.831182E+03	3.334822E-06	0.000000E+00
3.841107E+03	3.346501E-06	0.000000E+00
3.851033E+03	3.358307E-06	0.000000E+00
3.860958E+03	3.370237E-06	0.000000E+00
3.870883E+03	3.382291E-06	0.000000E+00
3.880809E+03	3.394468E-06	0.000000E+00
3.890734E+03	3.406764E-06	0.000000E+00
3.900659E+03	3.419180E-06	0.000000E+00
3.910585E+03	3.431711E-06	0.000000E+00
3.920510E+03	3.444357E-06	0.000000E+00
3.930435E+03	3.457115E-06	0.000000E+00
3.940361E+03	3.469981E-06	0.000000E+00
3.950286E+03	3.482954E-06	0.000000E+00
3.960211E+03	3.496031E-06	0.000000E+00
3.970137E+03	3.509208E-06	0.000000E+00
3.980062E+03	3.522484E-06	0.000000E+00
3.989987E+03	3.535854E-06	0.000000E+00
3.999913E+03	3.549315E-06	0.000000E+00
4.009838E+03	3.562863E-06	0.000000E+00
4.019763E+03	3.576496E-06	0.000000E+00
4.029689E+03	3.590208E-06	0.000000E+00
4.039614E+03	3.603996E-06	0.000000E+00
4.049539E+03	3.617856E-06	0.000000E+00
4.059465E+03	3.631783E-06	0.000000E+00
4.069390E+03	3.645773E-06	0.000000E+00
4.079315E+03	3.659822E-06	0.000000E+00
4.089241E+03	3.673923E-06	0.000000E+00
4.099166E+03	3.688075E-06	0.000000E+00
4.109091E+03	3.702269E-06	0.000000E+00
4.119017E+03	3.716502E-06	0.000000E+00
4.128942E+03	3.730767E-06	0.000000E+00
4.138867E+03	3.745061E-06	0.000000E+00
4.148793E+03	3.759377E-06	0.000000E+00
4.158718E+03	3.773710E-06	0.000000E+00
4.168643E+03	3.788053E-06	0.000000E+00
4.178569E+03	3.802401E-06	0.000000E+00
4.188494E+03	3.816747E-06	0.000000E+00
4.198419E+03	3.831085E-06	0.000000E+00
4.208345E+03	3.845410E-06	0.000000E+00
4.218270E+03	3.859715E-06	0.000000E+00
4.228196E+03	3.873993E-06	0.000000E+00
4.238121E+03	3.888238E-06	0.000000E+00
4.248046E+03	3.902442E-06	0.000000E+00
4.257972E+03	3.916600E-06	0.000000E+00
4.267897E+03	3.930704E-06	0.000000E+00
4.277822E+03	3.944747E-06	0.000000E+00
4.287748E+03	3.958722E-06	0.000000E+00
4.297673E+03	3.972623E-06	0.000000E+00
4.307598E+03	3.986442E-06	0.000000E+00
4.317524E+03	4.000172E-06	0.000000E+00
4.327449E+03	4.013805E-06	0.000000E+00
4.337374E+03	4.027335E-06	0.000000E+00
4.347300E+03	4.040755E-06	0.000000E+00
4.357225E+03	4.054055E-06	0.000000E+00
4.367150E+03	4.067230E-06	0.000000E+00
4.377076E+03	4.080273E-06	0.000000E+00
4.387001E+03	4.093176E-06	0.000000E+00
4.396926E+03	4.105930E-06	0.000000E+00
4.406852E+03	4.118531E-06	0.000000E+00
4.416777E+03	4.130968E-06	0.000000E+00
4.426702E+03	4.143236E-06	0.000000E+00
4.436628E+03	4.155328E-06	0.000000E+00
4.446553E+03	4.167236E-06	0.000000E+00
4.456478E+03	4.178952E-06	0.000000E+00
4.466404E+03	4.190470E-06	0.000000E+00
4.476329E+03	4.201783E-06	0.000000E+00
4.486254E+03	4.212885E-06	0.000000E+00
4.496180E+03	4.223767E-06	0.000000E+00
4.506105E+03	4.234424E-06	0.000000E+00
4.516030E+03	4.244848E-06	0.000000E+00
4.525956E+03	4.255033E-06	0.000000E+00
4.535881E+03	4.264973E-06	0.000000E+00
4.545806E+03	4.274661E-06	0.000000E+00
4.555732E+03	4.284090E-06	0.000000E+00
4.565657E+03	4.293257E-06	0.000000E+00
4.575582E+03	4.302153E-06	0.000000E+00
4.585508E+03	4.310773E-06	0.000000E+00
4.595433E+03	4.319113E-06	0.000000E+00
4.605358E+03	4.327165E-06	0.000000E+00
4.615284E+03	4.334925E-06	0.000000E+00
4.625209E+03	4.342389E-06	0.000000E+00
4.635135E+03	4.349550E-06	0.000000E+00
4.645060E+03	4.356403E-06	0.000000E+00
4.654985E+03	4.362946E-06	0.000000E+00
4.664911E+03	4.369173E-06	0.000000E+00
4.674836E+03	4.375080E-06	0.000000E+00
4.684761E+03	4.380662E-06	0.000000E+00
4.694687E+03	4.385917E-06	0.000000E+00
4.704612E+03	4.390841E-06	0.000000E+00
4.714537E+03	4.395429E-06	0.000000E+00
4.724463E+03	4.399680E-06	0.000000E+00
4.734388E+03	4.403590E-06	0.000000E+00
4.744313E+03	4.407156E-06	0.000000E+00
4.754239E+03	4.410375E-06	0.000000E+00
4.764164E+03	4.413246E-06	0.000000E+00
4.774089E+03	4.415766E-06	0.000000E+00
4.784015E+03	4.417933E-06	0.000000E+00
4.793940E+03	4.419747E-06	0.000000E+00
4.803865E+03	4.421205E-06	0.000000E+00
4.813791E+03	4.422305E-06	0.000000E+00
4.823716E+03	4.423047E-06	0.000000E+00
4.833641E+03	4.423431E-06	0.000000E+00
4.843567E+03	4.423455E-06	0.000000E+00
4.853492E+03	4.423119E-06	0.000000E+00
4.863417E+03	4.422423E-06	0.000000E+00
4.873343E+03	4.421367E-06	0.000000E+00
4.883268E+03	4.419951E-06	0.000000E+00
4.893193E+03	4.418176E-06	0.000000E+00
4.903119E+03	4.416042E-06	0.000000E+00
4.913044E+03	4.413550E-06	0.000000E+00
4.922969E+03	4.410701E-06	0.000000E+00
4.932895E+03	4.407496E-06	0.000000E+00
4.942820E+03	4.403938E-06	0.000000E+00
4.952745E+03	4.400026E-06	0.000000E+00
4.962671E+03	4.395763E-06	0.000000E+00
4.972596E+03	4.391152E-06	0.000000E+00
4.982521E+03	4.386193E-06	0.000000E+00
4.992447E+03	4.380890E-06	0.000000E+00
5.002372E+03	4.375244E-06	0.000000E+00
5.012297E+03	4.369259E-06	0.000000E+00
5.022223E+03	4.362938E-06	0.000000E+00
5.032148E+03	4.356283E-06	0.000000E+00
5.042074E+03	4.349296E-06	0.000000E+00
5.051999E+03	4.341982E-06	0.000000E+00
5.061924E+03	4.334343E-06	0.000000E+00
5.071850E+03	4.326384E-06	0.000000E+00
5.081775E+03	4.318107E-06	0.000000E+00
5.091700E+03	4.309518E-06	0.000000E+00
5.101626E+03	4.300619E-06	0.000000E+00
5.111551E+03	4.291414E-06	0.000000E+00
5.121476E+03	4.281908E-06	0.000000E+00
5.131402E+03	4.272104E-06	0.000000E+00
5.141327E+03	4.262009E-06	0.000000E+00
5.151252E+03	4.251624E-06	0.000000E+00
5.161178E+03	4.240956E-06	0.000000E+00
5.171103E+03	4.230009E-06	0.000000E+00
5.181028E+03	4.218786E-06	0.000000E+00
5.190954E+03	4.207294E-06	0.000000E+00
5.200879E+03	4.195538E-06	0.000000E+00
5.210804E+03	4.183521E-06	0.000000E+00
5.220730E+03	4.171250E-06	0.000000E+00
5.230655E+03	4.158729E-06	0.000000E+00
5.240580E+03	4.145964E-06	0.000000E+00
5.250506E+03	4.132959E-06	0.000000E+00
5.260431E+03	4.119721E-06	0.000000E+00
5.270356E+03	4.106253E-06	0.000000E+00
5.280282E+03	4.092564E-06	0.000000E+00
5.290207E+03	4.078655E-06	0.000000E+00
5.300132E+03	4.064535E-06	0.000000E+00
5.310058E+03	4.050209E-06	0.000000E+00
5.319983E+03	4.035682E-06	0.000000E+00
5.329908E+03	4.020959E-06	0.000000E+00
5.339834E+03	4.006046E-06	0.000000E+00
5.349759E+03	3.990951E-06	0.000000E+00
5.359684E+03	3.975677E-06	0.000000E+00
5.369610E+03	3.960230E-06	0.000000E+00
5.379535E+03	3.944616E-06	0.000000E+00
5.389460E+03	3.928842E-06	0.000000E+00
5.399386E+03	3.912912E-06	0.000000E+00
5.409311E+03	3.896834E-06	0.000000E+00
5.419237E+03	3.880612E-06	0.000000E+00
5.429162E+03	3.864253E-06	0.000000E+00
5.439087E+03	3.847762E-06	0.000000E+00
5.449013E+03	3.831145E-06	0.000000E+00
5.458938E+03	3.814409E-06	0.000000E+00
5.468863E+03	3.797557E-06	0.000000E+00
5.478789E+03	3.780597E-06	0.000000E+00
5.488714E+03	3.763536E-06	0.000000E+00
5.498639E+03	3.746378E-06	0.000000E+00
5.508565E+03	3.729128E-06	0.000000E+00
5.518490E+03	3.711793E-06	0.000000E+00
5.528415E+03	3.694378E-06	0.000000E+00
5.538341E+03	3.676891E-06	0.000000E+00
5.548266E+03	3.659333E-06	0.000000E+00
5.558191E+03	3.641715E-06	0.000000E+00
5.568117E+03	3.624040E-06	0.000000E+00
5.578042E+03	3.606313E-06	0.000000E+00
5.587967E+03	3.588541E-06	0.000000E+00
5.597893E+03	3.570728E-06	0.000000E+00
5.607818E+03	3.552881E-06	0.000000E+00
5.617743E+03	3.535004E-06	0.000000E+00
5.627669E+03	3.517104E-06	0.000000E+00
5.637594E+03	3.499185E-06	0.000000E+00
5.647519E+03	3.481253E-06	0.000000E+00
5.657445E+03	3.463312E-06	0.000000E+00
5.667370E+03	3.445369E-06	0.000000E+00
5.677295E+03	3.427428E-06	0.000000E+00
5.687221E+03	3.409493E-06	0.000000E+00
5.697146E+03	3.391572E-06	0.000000E+00
5.707071E+03	3.373667E-06	0.000000E+00
5.716997E+03	3.355785E-06	0.000000E+00
5.726922E+03	3.337928E-06	0.000000E+00
5.736847E+03	3.320104E-06	0.000000E+00
5.746773E+03	3.302316E-06	0.000000E+00
5.756698E+03	3.284568E-06	0.000000E+00
5.766623E+03	3.266866E-06	0.000000E+00
5.776549E+03	3.249213E-06	0.000000E+00
5.786474E+03	3.231614E-06	0.000000E+00
5.796399E+03	3.214075E-06	0.000000E+00
5.806325E+03	3.196597E-06	0.000000E+00
5.816250E+03	3.179186E-06	0.000000E+00
5.826176E+03	3.161846E-06	0.000000E+00
5.836101E+03	3.144580E-06	0.000000E+00
5.846026E+03	3.127394E-06	0.000000E+00
5.855952E+03	3.110290E-06	0.000000E+00
5.865877E+03	3.093272E-06	0.000000E+00
5.875802E+03	3.076343E-06	0.000000E+00
5.885728E+03	3.059508E-06	0.000000E+00
5.895653E+03	3.042771E-06	0.000000E+00
5.905578E+03	3.026131E-06	0.000000E+00
5.915504E+03	3.009598E-06	0.000000E+00
5.925429E+03	2.993170E-06	0.000000E+00
5.935354E+03	2.976852E-06	0.000000E+00
5.945280E+03	2.960647E-06	0.000000E+00
5.955205E+03	2.944558E-06	0.000000E+00
5.965130E+03	2.928588E-06	0.000000E+00
5.975056E+03	2.912740E-06	0.000000E+00
5.984981E+03	2.897016E-06	0.000000E+00
5.994906E+03	2.881419E-06	0.000000E+00
6.004832E+03	2.865951E-06	0.000000E+00
6.014757E+03	2.850616E-06	0.000000E+00
6.024682E+03	2.835414E-06	0.000000E+00
6.034608E+03	2.820349E-06	0.000000E+00
6.044533E+03	2.805423E-06	0.000000E+00
6.054458E+03	2.790638E-06	0.000000E+00
6.064384E+03	2.775995E-06	0.000000E+00
6.074309E+03	2.761498E-06	0.000000E+00
6.084234E+03	2.747148E-06	0.000000E+00
6.094160E+03	2.732947E-06	0.000000E+00
6.104085E+03	2.718895E-06	0.000000E+00
6.114010E+03	2.704997E-06	0.000000E+00
6.123936E+03	2.691250E-06	0.000000E+00
6.133861E+03	2.677660E-06	0.000000E+00
6.143786E+03	2.664226E-06	0.000000E+00
6.153712E+03	2.650950E-06	0.000000E+00
6.163637E+03	2.637832E-06	0.000000E+00
6.173562E+03	2.624876E-06	0.000000E+00
6.183488E+03	2.612081E-06	0.000000E+00
6.193413E+03	2.599448E-06	0.000000E+00
6.203338E+03	2.586980E-06	0.000000E+00
6.213264E+03	2.574676E-06	0.000000E+00
6.223189E+03	2.562536E-06	0.000000E+00
6.233115E+03	2.550563E-06	0.000000E+00
6.243040E+03	2.538757E-06	0.000000E+00
6.252965E+03	2.527118E-06	0.000000E+00
6.262891E+03	2.515648E-06	0.000000E+00
6.272816E+03	2.504347E-06	0.000000E+00
6.282741E+03	2.493214E-06	0.000000E+00
6.292667E+03	2.482252E-06	0.000000E+00
6.302592E+03	2.471459E-06	0.000000E+00
6.312517E+03	2.460837E-06	0.000000E+00
6.322443E+03	2.450385E-06	0.000000E+00
6.332368E+03	2.440105E-06	0.000000E+00
6.342293E+03	2.429995E-06	0.000000E+00
6.352219E+03	2.420057E-06	0.000000E+00
6.362144E+03	2.410290E-06	0.000000E+00
6.372069E+03	2.400695E-06	0.000000E+00
6.381995E+03	2.391270E-06	0.000000E+00
6.391920E+03	2.382018E-06	0.000000E+00
6.401845E+03	2.372935E-06	0.000000E+00
6.411771E+03	2.364024E-06	0.000000E+00
6.421696E+03	2.355284E-06	0.000000E+00
6.431621E+03	2.346715E-06	0.000000E+00
6.441547E+03	2.338315E-06	0.000000E+00
6.451472E+03	2.330087E-06	0.000000E+00
6.461397E+03	2.322026E-06	0.000000E+00
6.471323E+03	2.314136E-06	0.000000E+00
6.481248E+03	2.306415E-06	0.000000E+00
6.491173E+03	2.298862E-06	0.000000E+00
6.501099E+03	2.291477E-06	0.000000E+00
6.511024E+03	2.284260E-06	0.000000E+00
6.520949E+03	2.277209E-06	0.000000E+00
6.530875E+03	2.270325E-06	0.000000E+00
6.540800E+03	2.263607E-06	0.000000E+00
6.550725E+03	2.257054E-06	0.000000E+00
6.560651E+03	2.250665E-06	0.000000E+00
6.570576E+03	2.244440E-06	0.000000E+00
6.580501E+03	2.238377E-06	0.000000E+00
6.590427E+03	2.232479E-06	0.000000E+00
6.600352E+03	2.226741E-06	0.000000E+00
6.610277E+03	2.221165E-06	0.000000E+00
6.620203E+03	2.215747E-06	0.000000E+00
6.630128E+03	2.210489E-06	0.000000E+00
6.640054E+03	2.205391E-06	0.000000E+00
6.649979E+03	2.200449E-06	0.000000E+00
6.659904E+03	2.195665E-06	0.000000E+00
6.669830E+03	2.191035E-06	0.000000E+00
6.679755E+03	2.186562E-06	0.000000E+00
6.689680E+03	2.182242E-06	0.000000E+00
6.699606E+03	2.178075E-06	0.000000E+00
6.709531E+03	2.174060E-06	0.000000E+00
6.719456E+03	2.170196E-06	0.000000E+00
6.729382E+03	2.166482E-06	0.000000E+00
6.739307E+03	2.162918E-06	0.000000E+00
6.749232E+03	2.159500E-06	0.000000E+00
6.759158E+03	2.156231E-06	0.000000E+00
6.769083E+03	2.153107E-06	0.000000E+00
6.779008E+03	2.150128E-06	0.000000E+00
6.788934E+03	2.147294E-06	0.000000E+00
6.798859E+03	2.144602E-06	0.000000E+00
6.808784E+03	2.142052E-06	0.000000E+00
6.818710E+03	2.139641E-06	0.000000E+00
6.828635E+03	2.137371E-06	0.000000E+00
6.838560E+03	2.135239E-06	0.000000E+00
6.848486E+03	2.133244E-06	0.000000E+00
6.858411E+03	2.131385E-06	0.000000E+00
6.868336E+03	2.129662E-06	0.000000E+00
6.878262E+03	2.128072E-06	0.000000E+00
6.888187E+03	2.126614E-06	0.000000E+00
6.898112E+03	2.125288E-06	0.000000E+00
6.908038E+03	2.124091E-06	0.000000E+00
6.917963E+03	2.123025E-06	0.000000E+00
6.927888E+03	2.122086E-06	0.000000E+00
6.937814E+03	2.121274E-06	0.000000E+00
6.947739E+03	2.120587E-06	0.000000E+00
6.957664E+03	2.120024E-06	0.000000E+00
6.967590E+03	2.119584E-06	0.000000E+00
6.977515E+03	2.119266E-06	0.000000E+00
6.987440E+03	2.119069E-06	0.000000E+00
6.997366E+03	2.118991E-06	0.000000E+00
7.007291E+03	2.119031E-06	0.000000E+00
7.017216E+03	2.119188E-06	0.000000E+00
7.027142E+03	2.119460E-06	0.000000E+00
7.037067E+03	2.119848E-06	0.000000E+00
7.046993E+03	2.120348E-06	0.000000E+00
7.056918E+03	2.120960E-06	0.000000E+00
7.066843E+03	2.121683E-06	0.000000E+00
7.076769E+03	2.122516E-06	0.000000E+00
7.086694E+03	2.123457E-06	0.000000E+00
7.096619E+03	2.124504E-06	0.000000E+00
7.106545E+03	2.125657E-06	0.000000E+00
7.116470E+03	2.126915E-06	0.000000E+00
7.126395E+03	2.128278E-06	0.000000E+00
7.136321E+03	2.129741E-06	0.000000E+00
7.146246E+03	2.131304E-06	0.000000E+00
7.156171E+03	2.132969E-06	0.000000E+00
7.166097E+03	2.134731E-06	0.000000E+00
7.176022E+03	2.136590E-06	0.000000E+00
7.185947E+03	2.138545E-06	0.000000E+00
7.195873E+03	2.140595E-06	0.000000E+00
7.205798E+03	2.142739E-06	0.000000E+00
7.215723E+03	2.144974E-06	0.000000E+00
7.225649E+03	2.147301E-06	0.000000E+00
7.235574E+03	2.149717E-06	0.000000E+00
7.245499E+03	2.152223E-06	0.000000E+00
7.255425E+03	2.154815E-06	0.000000E+00
7.265350E+03	2.157494E-06	0.000000E+00
7.275275E+03	2.160257E-06	0.000000E+00
7.285201E+03	2.163105E-06	0.000000E+00
7.295126E+03	2.166036E-06	0.000000E+00
7.305051E+03	2.169048E-06	0.000000E+00
7.314977E+03	2.172140E-06	0.000000E+00
7.324902E+03	2.175311E-06	0.000000E+00
7.334827E+03	2.178561E-06	0.000000E+00
7.344753E+03	2.181886E-06	0.000000E+00
7.354678E+03	2.185288E-06	0.000000E+00
7.364603E+03	2.188765E-06	0.000000E+00
7.374529E+03	2.192314E-06	0.000000E+00
7.384454E+03	2.195936E-06	0.000000E+00
7.394379E+03	2.199628E-06	0.000000E+00
7.404305E+03	2.203391E-06	0.000000E+00
7.414230E+03	2.207224E-06	0.000000E+00
7.424156E+03	2.211123E-06	0.000000E+00
7.434081E+03	2.215089E-06	0.000000E+00
7.444006E+03	2.219120E-06	0.000000E+00
7.453932E+03	2.223217E-06	0.000000E+00
7.463857E+03	2.227376E-06	0.000000E+00
7.473782E+03	2.231598E-06	0.000000E+00
7.483708E+03	2.235880E-06	0.000000E+00
7.493633E+03	2.240224E-06	0.000000E+00
7.503558E+03	2.244625E-06	0.000000E+00
7.513484E+03	2.249085E-06	0.000000E+00
7.523409E+03	2.253602E-06	0.000000E+00
7.533334E+03	2.258175E-06	0.000000E+00
7.543260E+03	2.262802E-06	0.000000E+00
7.553185E+03	2.267483E-06	0.000000E+00
7.563110E+03	2.272219E-06	0.000000E+00
7.573036E+03	2.277005E-06	0.000000E+00
7.582961E+03	2.281841E-06	0.000000E+00
7.592886E+03	2.286727E-06	0.000000E+00
7.602812E+03	2.291663E-06	0.000000E+00
7.612737E+03	2.296647E-06	0.000000E+00
7.622662E+03	2.301677E-06	0.000000E+00
7.632588E+03	2.306752E-06	0.000000E+00
7.642513E+03	2.311873E-06	0.000000E+00
7.652438E+03	2.317038E-06	0.000000E+00
7.662364E+03	2.322247E-06	0.000000E+00
7.672289E+03	2.327497E-06	0.000000E+00
7.682214E+03	2.332787E-06	0.000000E+00
7.692140E+03	2.338119E-06	0.000000E+00
7.702065E+03	2.343491E-06	0.000000E+00
