#wls	flux	fluxerr
1.588055E+03	-9.120416E-03	-0.000000E+00
1.627756E+03	-9.190400E-03	-0.000000E+00
1.667457E+03	-9.248921E-03	-0.000000E+00
1.707159E+03	-9.295378E-03	-0.000000E+00
1.746860E+03	-9.328731E-03	-0.000000E+00
1.786561E+03	-9.346093E-03	-0.000000E+00
1.826263E+03	-9.343765E-03	-0.000000E+00
1.865964E+03	-9.317392E-03	-0.000000E+00
1.905666E+03	-9.262577E-03	-0.000000E+00
1.945367E+03	-9.176400E-03	-0.000000E+00
1.985068E+03	-9.060621E-03	-0.000000E+00
2.024770E+03	-8.926385E-03	-0.000000E+00
2.064471E+03	-8.798053E-03	-0.000000E+00
2.104172E+03	-8.710160E-03	-0.000000E+00
2.143874E+03	-8.693647E-03	-0.000000E+00
2.183575E+03	-8.759058E-03	-0.000000E+00
2.223277E+03	-8.892049E-03	-0.000000E+00
2.262978E+03	-9.064504E-03	-0.000000E+00
2.302679E+03	-9.249148E-03	-0.000000E+00
2.342381E+03	-9.427202E-03	-0.000000E+00
2.382082E+03	-9.588783E-03	-0.000000E+00
2.421783E+03	-9.730269E-03	-0.000000E+00
2.461485E+03	-9.851498E-03	-0.000000E+00
2.501186E+03	-9.953893E-03	-0.000000E+00
2.540887E+03	-1.003941E-02	-0.000000E+00
2.580589E+03	-1.011001E-02	-0.000000E+00
2.620290E+03	-1.016749E-02	-0.000000E+00
2.659992E+03	-1.021336E-02	-0.000000E+00
2.699693E+03	-1.024892E-02	-0.000000E+00
2.739394E+03	-1.027525E-02	-0.000000E+00
2.779096E+03	-1.029328E-02	-0.000000E+00
2.818797E+03	-1.030379E-02	-0.000000E+00
2.858498E+03	-1.030752E-02	-0.000000E+00
2.898200E+03	-1.030510E-02	-0.000000E+00
2.937901E+03	-1.029718E-02	-0.000000E+00
2.977602E+03	-1.028436E-02	-0.000000E+00
2.987528E+03	-1.028046E-02	-0.000000E+00
2.997453E+03	-1.027631E-02	-0.000000E+00
3.007378E+03	-1.027190E-02	-0.000000E+00
3.017304E+03	-1.026732E-02	-0.000000E+00
3.027229E+03	-1.026277E-02	-0.000000E+00
3.037155E+03	-1.025846E-02	-0.000000E+00
3.047080E+03	-1.025432E-02	-0.000000E+00
3.057005E+03	-1.025031E-02	-0.000000E+00
3.066931E+03	-1.024637E-02	-0.000000E+00
3.076856E+03	-1.024246E-02	-0.000000E+00
3.086781E+03	-1.023855E-02	-0.000000E+00
3.096707E+03	-1.023461E-02	-0.000000E+00
3.106632E+03	-1.023061E-02	-0.000000E+00
3.116557E+03	-1.022653E-02	-0.000000E+00
3.126483E+03	-1.022235E-02	-0.000000E+00
3.136408E+03	-1.021806E-02	-0.000000E+00
3.146333E+03	-1.021364E-02	-0.000000E+00
3.156259E+03	-1.020910E-02	-0.000000E+00
3.166184E+03	-1.020442E-02	-0.000000E+00
3.176109E+03	-1.019962E-02	-0.000000E+00
3.186035E+03	-1.019469E-02	-0.000000E+00
3.195960E+03	-1.018962E-02	-0.000000E+00
3.205885E+03	-1.018444E-02	-0.000000E+00
3.215811E+03	-1.017915E-02	-0.000000E+00
3.225736E+03	-1.017376E-02	-0.000000E+00
3.235661E+03	-1.016828E-02	-0.000000E+00
3.245587E+03	-1.016272E-02	-0.000000E+00
3.255512E+03	-1.015710E-02	-0.000000E+00
3.265437E+03	-1.015144E-02	-0.000000E+00
3.275363E+03	-1.014575E-02	-0.000000E+00
3.285288E+03	-1.014006E-02	-0.000000E+00
3.295213E+03	-1.013437E-02	-0.000000E+00
3.305139E+03	-1.012872E-02	-0.000000E+00
3.315064E+03	-1.012312E-02	-0.000000E+00
3.324989E+03	-1.011760E-02	-0.000000E+00
3.334915E+03	-1.011217E-02	-0.000000E+00
3.344840E+03	-1.010686E-02	-0.000000E+00
3.354765E+03	-1.010169E-02	-0.000000E+00
3.364691E+03	-1.009669E-02	-0.000000E+00
3.374616E+03	-1.009189E-02	-0.000000E+00
3.384541E+03	-1.008729E-02	-0.000000E+00
3.394467E+03	-1.008294E-02	-0.000000E+00
3.404392E+03	-1.007886E-02	-0.000000E+00
3.414318E+03	-1.007506E-02	-0.000000E+00
3.424243E+03	-1.007158E-02	-0.000000E+00
3.434168E+03	-1.006845E-02	-0.000000E+00
3.444094E+03	-1.006567E-02	-0.000000E+00
3.454019E+03	-1.006329E-02	-0.000000E+00
3.463944E+03	-1.006133E-02	-0.000000E+00
3.473870E+03	-1.005981E-02	-0.000000E+00
3.483795E+03	-1.005876E-02	-0.000000E+00
3.493720E+03	-1.005820E-02	-0.000000E+00
3.503646E+03	-1.005816E-02	-0.000000E+00
3.513571E+03	-1.005867E-02	-0.000000E+00
3.523496E+03	-1.005974E-02	-0.000000E+00
3.533422E+03	-1.006141E-02	-0.000000E+00
3.543347E+03	-1.006369E-02	-0.000000E+00
3.553272E+03	-1.006661E-02	-0.000000E+00
3.563198E+03	-1.007020E-02	-0.000000E+00
3.573123E+03	-1.007448E-02	-0.000000E+00
3.583048E+03	-1.007947E-02	-0.000000E+00
3.592974E+03	-1.008520E-02	-0.000000E+00
3.602899E+03	-1.009168E-02	-0.000000E+00
3.612824E+03	-1.009894E-02	-0.000000E+00
3.622750E+03	-1.010701E-02	-0.000000E+00
3.632675E+03	-1.011589E-02	-0.000000E+00
3.642600E+03	-1.012562E-02	-0.000000E+00
3.652526E+03	-1.013622E-02	-0.000000E+00
3.662451E+03	-1.014770E-02	-0.000000E+00
3.672376E+03	-1.016009E-02	-0.000000E+00
3.682302E+03	-1.017340E-02	-0.000000E+00
3.692227E+03	-1.018765E-02	-0.000000E+00
3.702152E+03	-1.020287E-02	-0.000000E+00
3.712078E+03	-1.021905E-02	-0.000000E+00
3.722003E+03	-1.023624E-02	-0.000000E+00
3.731928E+03	-1.025444E-02	-0.000000E+00
3.741854E+03	-1.027367E-02	-0.000000E+00
3.751779E+03	-1.029394E-02	-0.000000E+00
3.761704E+03	-1.031526E-02	-0.000000E+00
3.771630E+03	-1.033766E-02	-0.000000E+00
3.781555E+03	-1.036115E-02	-0.000000E+00
3.791480E+03	-1.038573E-02	-0.000000E+00
3.801406E+03	-1.041142E-02	-0.000000E+00
3.811331E+03	-1.043823E-02	-0.000000E+00
3.821257E+03	-1.046619E-02	-0.000000E+00
3.831182E+03	-1.049528E-02	-0.000000E+00
3.841107E+03	-1.052552E-02	-0.000000E+00
3.851033E+03	-1.055692E-02	-0.000000E+00
3.860958E+03	-1.058949E-02	-0.000000E+00
3.870883E+03	-1.062324E-02	-0.000000E+00
3.880809E+03	-1.065817E-02	-0.000000E+00
3.890734E+03	-1.069428E-02	-0.000000E+00
3.900659E+03	-1.073159E-02	-0.000000E+00
3.910585E+03	-1.077010E-02	-0.000000E+00
3.920510E+03	-1.080980E-02	-0.000000E+00
3.930435E+03	-1.085071E-02	-0.000000E+00
3.940361E+03	-1.089281E-02	-0.000000E+00
3.950286E+03	-1.093612E-02	-0.000000E+00
3.960211E+03	-1.098063E-02	-0.000000E+00
3.970137E+03	-1.102634E-02	-0.000000E+00
3.980062E+03	-1.107325E-02	-0.000000E+00
3.989987E+03	-1.112134E-02	-0.000000E+00
3.999913E+03	-1.117063E-02	-0.000000E+00
4.009838E+03	-1.122109E-02	-0.000000E+00
4.019763E+03	-1.127273E-02	-0.000000E+00
4.029689E+03	-1.132554E-02	-0.000000E+00
4.039614E+03	-1.137951E-02	-0.000000E+00
4.049539E+03	-1.143461E-02	-0.000000E+00
4.059465E+03	-1.149086E-02	-0.000000E+00
4.069390E+03	-1.154822E-02	-0.000000E+00
4.079315E+03	-1.160668E-02	-0.000000E+00
4.089241E+03	-1.166624E-02	-0.000000E+00
4.099166E+03	-1.172686E-02	-0.000000E+00
4.109091E+03	-1.178853E-02	-0.000000E+00
4.119017E+03	-1.185123E-02	-0.000000E+00
4.128942E+03	-1.191494E-02	-0.000000E+00
4.138867E+03	-1.197963E-02	-0.000000E+00
4.148793E+03	-1.204527E-02	-0.000000E+00
4.158718E+03	-1.211184E-02	-0.000000E+00
4.168643E+03	-1.217931E-02	-0.000000E+00
4.178569E+03	-1.224765E-02	-0.000000E+00
4.188494E+03	-1.231682E-02	-0.000000E+00
4.198419E+03	-1.238679E-02	-0.000000E+00
4.208345E+03	-1.245751E-02	-0.000000E+00
4.218270E+03	-1.252896E-02	-0.000000E+00
4.228196E+03	-1.260108E-02	-0.000000E+00
4.238121E+03	-1.267384E-02	-0.000000E+00
4.248046E+03	-1.274719E-02	-0.000000E+00
4.257972E+03	-1.282108E-02	-0.000000E+00
4.267897E+03	-1.289546E-02	-0.000000E+00
4.277822E+03	-1.297029E-02	-0.000000E+00
4.287748E+03	-1.304550E-02	-0.000000E+00
4.297673E+03	-1.312105E-02	-0.000000E+00
4.307598E+03	-1.319687E-02	-0.000000E+00
4.317524E+03	-1.327291E-02	-0.000000E+00
4.327449E+03	-1.334911E-02	-0.000000E+00
4.337374E+03	-1.342540E-02	-0.000000E+00
4.347300E+03	-1.350171E-02	-0.000000E+00
4.357225E+03	-1.357799E-02	-0.000000E+00
4.367150E+03	-1.365417E-02	-0.000000E+00
4.377076E+03	-1.373018E-02	-0.000000E+00
4.387001E+03	-1.380594E-02	-0.000000E+00
4.396926E+03	-1.388140E-02	-0.000000E+00
4.406852E+03	-1.395648E-02	-0.000000E+00
4.416777E+03	-1.403109E-02	-0.000000E+00
4.426702E+03	-1.410519E-02	-0.000000E+00
4.436628E+03	-1.417869E-02	-0.000000E+00
4.446553E+03	-1.425152E-02	-0.000000E+00
4.456478E+03	-1.432362E-02	-0.000000E+00
4.466404E+03	-1.439489E-02	-0.000000E+00
4.476329E+03	-1.446528E-02	-0.000000E+00
4.486254E+03	-1.453473E-02	-0.000000E+00
4.496180E+03	-1.460315E-02	-0.000000E+00
4.506105E+03	-1.467048E-02	-0.000000E+00
4.516030E+03	-1.473665E-02	-0.000000E+00
4.525956E+03	-1.480161E-02	-0.000000E+00
4.535881E+03	-1.486528E-02	-0.000000E+00
4.545806E+03	-1.492762E-02	-0.000000E+00
4.555732E+03	-1.498855E-02	-0.000000E+00
4.565657E+03	-1.504803E-02	-0.000000E+00
4.575582E+03	-1.510601E-02	-0.000000E+00
4.585508E+03	-1.516243E-02	-0.000000E+00
4.595433E+03	-1.521725E-02	-0.000000E+00
4.605358E+03	-1.527043E-02	-0.000000E+00
4.615284E+03	-1.532193E-02	-0.000000E+00
4.625209E+03	-1.537172E-02	-0.000000E+00
4.635135E+03	-1.541975E-02	-0.000000E+00
4.645060E+03	-1.546601E-02	-0.000000E+00
4.654985E+03	-1.551047E-02	-0.000000E+00
4.664911E+03	-1.555311E-02	-0.000000E+00
4.674836E+03	-1.559391E-02	-0.000000E+00
4.684761E+03	-1.563288E-02	-0.000000E+00
4.694687E+03	-1.566998E-02	-0.000000E+00
4.704612E+03	-1.570521E-02	-0.000000E+00
4.714537E+03	-1.573858E-02	-0.000000E+00
4.724463E+03	-1.577009E-02	-0.000000E+00
4.734388E+03	-1.579974E-02	-0.000000E+00
4.744313E+03	-1.582755E-02	-0.000000E+00
4.754239E+03	-1.585352E-02	-0.000000E+00
4.764164E+03	-1.587766E-02	-0.000000E+00
4.774089E+03	-1.590000E-02	-0.000000E+00
4.784015E+03	-1.592056E-02	-0.000000E+00
4.793940E+03	-1.593935E-02	-0.000000E+00
4.803865E+03	-1.595640E-02	-0.000000E+00
4.813791E+03	-1.597175E-02	-0.000000E+00
4.823716E+03	-1.598541E-02	-0.000000E+00
4.833641E+03	-1.599741E-02	-0.000000E+00
4.843567E+03	-1.600779E-02	-0.000000E+00
4.853492E+03	-1.601657E-02	-0.000000E+00
4.863417E+03	-1.602379E-02	-0.000000E+00
4.873343E+03	-1.602949E-02	-0.000000E+00
4.883268E+03	-1.603369E-02	-0.000000E+00
4.893193E+03	-1.603642E-02	-0.000000E+00
4.903119E+03	-1.603774E-02	-0.000000E+00
4.913044E+03	-1.603765E-02	-0.000000E+00
4.922969E+03	-1.603620E-02	-0.000000E+00
4.932895E+03	-1.603343E-02	-0.000000E+00
4.942820E+03	-1.602936E-02	-0.000000E+00
4.952745E+03	-1.602401E-02	-0.000000E+00
4.962671E+03	-1.601743E-02	-0.000000E+00
4.972596E+03	-1.600965E-02	-0.000000E+00
4.982521E+03	-1.600068E-02	-0.000000E+00
4.992447E+03	-1.599057E-02	-0.000000E+00
5.002372E+03	-1.597933E-02	-0.000000E+00
5.012297E+03	-1.596698E-02	-0.000000E+00
5.022223E+03	-1.595356E-02	-0.000000E+00
5.032148E+03	-1.593908E-02	-0.000000E+00
5.042074E+03	-1.592356E-02	-0.000000E+00
5.051999E+03	-1.590703E-02	-0.000000E+00
5.061924E+03	-1.588951E-02	-0.000000E+00
5.071850E+03	-1.587100E-02	-0.000000E+00
5.081775E+03	-1.585153E-02	-0.000000E+00
5.091700E+03	-1.583111E-02	-0.000000E+00
5.101626E+03	-1.580976E-02	-0.000000E+00
5.111551E+03	-1.578748E-02	-0.000000E+00
5.121476E+03	-1.576430E-02	-0.000000E+00
5.131402E+03	-1.574021E-02	-0.000000E+00
5.141327E+03	-1.571525E-02	-0.000000E+00
5.151252E+03	-1.568940E-02	-0.000000E+00
5.161178E+03	-1.566267E-02	-0.000000E+00
5.171103E+03	-1.563509E-02	-0.000000E+00
5.181028E+03	-1.560666E-02	-0.000000E+00
5.190954E+03	-1.557737E-02	-0.000000E+00
5.200879E+03	-1.554725E-02	-0.000000E+00
5.210804E+03	-1.551629E-02	-0.000000E+00
5.220730E+03	-1.548452E-02	-0.000000E+00
5.230655E+03	-1.545191E-02	-0.000000E+00
5.240580E+03	-1.541849E-02	-0.000000E+00
5.250506E+03	-1.538426E-02	-0.000000E+00
5.260431E+03	-1.534923E-02	-0.000000E+00
5.270356E+03	-1.531340E-02	-0.000000E+00
5.280282E+03	-1.527677E-02	-0.000000E+00
5.290207E+03	-1.523936E-02	-0.000000E+00
5.300132E+03	-1.520118E-02	-0.000000E+00
5.310058E+03	-1.516222E-02	-0.000000E+00
5.319983E+03	-1.512249E-02	-0.000000E+00
5.329908E+03	-1.508201E-02	-0.000000E+00
5.339834E+03	-1.504077E-02	-0.000000E+00
5.349759E+03	-1.499880E-02	-0.000000E+00
5.359684E+03	-1.495609E-02	-0.000000E+00
5.369610E+03	-1.491265E-02	-0.000000E+00
5.379535E+03	-1.486850E-02	-0.000000E+00
5.389460E+03	-1.482363E-02	-0.000000E+00
5.399386E+03	-1.477808E-02	-0.000000E+00
5.409311E+03	-1.473183E-02	-0.000000E+00
5.419237E+03	-1.468490E-02	-0.000000E+00
5.429162E+03	-1.463731E-02	-0.000000E+00
5.439087E+03	-1.458907E-02	-0.000000E+00
5.449013E+03	-1.454019E-02	-0.000000E+00
5.458938E+03	-1.449068E-02	-0.000000E+00
5.468863E+03	-1.444055E-02	-0.000000E+00
5.478789E+03	-1.438983E-02	-0.000000E+00
5.488714E+03	-1.433851E-02	-0.000000E+00
5.498639E+03	-1.428662E-02	-0.000000E+00
5.508565E+03	-1.423417E-02	-0.000000E+00
5.518490E+03	-1.418119E-02	-0.000000E+00
5.528415E+03	-1.412767E-02	-0.000000E+00
5.538341E+03	-1.407364E-02	-0.000000E+00
5.548266E+03	-1.401912E-02	-0.000000E+00
5.558191E+03	-1.396413E-02	-0.000000E+00
5.568117E+03	-1.390868E-02	-0.000000E+00
5.578042E+03	-1.385278E-02	-0.000000E+00
5.587967E+03	-1.379647E-02	-0.000000E+00
5.597893E+03	-1.373975E-02	-0.000000E+00
5.607818E+03	-1.368265E-02	-0.000000E+00
5.617743E+03	-1.362519E-02	-0.000000E+00
5.627669E+03	-1.356738E-02	-0.000000E+00
5.637594E+03	-1.350925E-02	-0.000000E+00
5.647519E+03	-1.345082E-02	-0.000000E+00
5.657445E+03	-1.339210E-02	-0.000000E+00
5.667370E+03	-1.333313E-02	-0.000000E+00
5.677295E+03	-1.327392E-02	-0.000000E+00
5.687221E+03	-1.321449E-02	-0.000000E+00
5.697146E+03	-1.315487E-02	-0.000000E+00
5.707071E+03	-1.309508E-02	-0.000000E+00
5.716997E+03	-1.303515E-02	-0.000000E+00
5.726922E+03	-1.297509E-02	-0.000000E+00
5.736847E+03	-1.291493E-02	-0.000000E+00
5.746773E+03	-1.285469E-02	-0.000000E+00
5.756698E+03	-1.279441E-02	-0.000000E+00
5.766623E+03	-1.273409E-02	-0.000000E+00
5.776549E+03	-1.267377E-02	-0.000000E+00
5.786474E+03	-1.261347E-02	-0.000000E+00
5.796399E+03	-1.255321E-02	-0.000000E+00
5.806325E+03	-1.249301E-02	-0.000000E+00
5.816250E+03	-1.243292E-02	-0.000000E+00
5.826176E+03	-1.237294E-02	-0.000000E+00
5.836101E+03	-1.231310E-02	-0.000000E+00
5.846026E+03	-1.225342E-02	-0.000000E+00
5.855952E+03	-1.219394E-02	-0.000000E+00
5.865877E+03	-1.213467E-02	-0.000000E+00
5.875802E+03	-1.207563E-02	-0.000000E+00
5.885728E+03	-1.201686E-02	-0.000000E+00
5.895653E+03	-1.195837E-02	-0.000000E+00
5.905578E+03	-1.190019E-02	-0.000000E+00
5.915504E+03	-1.184235E-02	-0.000000E+00
5.925429E+03	-1.178485E-02	-0.000000E+00
5.935354E+03	-1.172773E-02	-0.000000E+00
5.945280E+03	-1.167101E-02	-0.000000E+00
5.955205E+03	-1.161471E-02	-0.000000E+00
5.965130E+03	-1.155885E-02	-0.000000E+00
5.975056E+03	-1.150345E-02	-0.000000E+00
5.984981E+03	-1.144853E-02	-0.000000E+00
5.994906E+03	-1.139412E-02	-0.000000E+00
6.004832E+03	-1.134023E-02	-0.000000E+00
6.014757E+03	-1.128688E-02	-0.000000E+00
6.024682E+03	-1.123409E-02	-0.000000E+00
6.034608E+03	-1.118188E-02	-0.000000E+00
6.044533E+03	-1.113027E-02	-0.000000E+00
6.054458E+03	-1.107926E-02	-0.000000E+00
6.064384E+03	-1.102889E-02	-0.000000E+00
6.074309E+03	-1.097916E-02	-0.000000E+00
6.084234E+03	-1.093009E-02	-0.000000E+00
6.094160E+03	-1.088170E-02	-0.000000E+00
6.104085E+03	-1.083400E-02	-0.000000E+00
6.114010E+03	-1.078700E-02	-0.000000E+00
6.123936E+03	-1.074072E-02	-0.000000E+00
6.133861E+03	-1.069516E-02	-0.000000E+00
6.143786E+03	-1.065035E-02	-0.000000E+00
6.153712E+03	-1.060629E-02	-0.000000E+00
6.163637E+03	-1.056299E-02	-0.000000E+00
6.173562E+03	-1.052046E-02	-0.000000E+00
6.183488E+03	-1.047872E-02	-0.000000E+00
6.193413E+03	-1.043776E-02	-0.000000E+00
6.203338E+03	-1.039761E-02	-0.000000E+00
6.213264E+03	-1.035825E-02	-0.000000E+00
6.223189E+03	-1.031971E-02	-0.000000E+00
6.233115E+03	-1.028199E-02	-0.000000E+00
6.243040E+03	-1.024510E-02	-0.000000E+00
6.252965E+03	-1.020903E-02	-0.000000E+00
6.262891E+03	-1.017380E-02	-0.000000E+00
6.272816E+03	-1.013941E-02	-0.000000E+00
6.282741E+03	-1.010586E-02	-0.000000E+00
6.292667E+03	-1.007316E-02	-0.000000E+00
6.302592E+03	-1.004130E-02	-0.000000E+00
6.312517E+03	-1.001029E-02	-0.000000E+00
6.322443E+03	-9.980139E-03	-0.000000E+00
6.332368E+03	-9.950843E-03	-0.000000E+00
6.342293E+03	-9.922398E-03	-0.000000E+00
6.352219E+03	-9.894814E-03	-0.000000E+00
6.362144E+03	-9.868080E-03	-0.000000E+00
6.372069E+03	-9.842210E-03	-0.000000E+00
6.381995E+03	-9.817193E-03	-0.000000E+00
6.391920E+03	-9.793034E-03	-0.000000E+00
6.401845E+03	-9.769734E-03	-0.000000E+00
6.411771E+03	-9.747289E-03	-0.000000E+00
6.421696E+03	-9.725698E-03	-0.000000E+00
6.431621E+03	-9.704964E-03	-0.000000E+00
6.441547E+03	-9.685080E-03	-0.000000E+00
6.451472E+03	-9.666053E-03	-0.000000E+00
6.461397E+03	-9.647878E-03	-0.000000E+00
6.471323E+03	-9.630555E-03	-0.000000E+00
6.481248E+03	-9.614080E-03	-0.000000E+00
6.491173E+03	-9.598454E-03	-0.000000E+00
6.501099E+03	-9.583681E-03	-0.000000E+00
6.511024E+03	-9.569753E-03	-0.000000E+00
6.520949E+03	-9.556674E-03	-0.000000E+00
6.530875E+03	-9.544440E-03	-0.000000E+00
6.540800E+03	-9.533052E-03	-0.000000E+00
6.550725E+03	-9.522511E-03	-0.000000E+00
6.560651E+03	-9.512810E-03	-0.000000E+00
6.570576E+03	-9.503951E-03	-0.000000E+00
6.580501E+03	-9.495940E-03	-0.000000E+00
6.590427E+03	-9.488766E-03	-0.000000E+00
6.600352E+03	-9.482436E-03	-0.000000E+00
6.610277E+03	-9.476944E-03	-0.000000E+00
6.620203E+03	-9.472292E-03	-0.000000E+00
6.630128E+03	-9.468479E-03	-0.000000E+00
6.640054E+03	-9.465506E-03	-0.000000E+00
6.649979E+03	-9.463368E-03	-0.000000E+00
6.659904E+03	-9.462066E-03	-0.000000E+00
6.669830E+03	-9.461600E-03	-0.000000E+00
6.679755E+03	-9.461965E-03	-0.000000E+00
6.689680E+03	-9.463157E-03	-0.000000E+00
6.699606E+03	-9.465186E-03	-0.000000E+00
6.709531E+03	-9.468037E-03	-0.000000E+00
6.719456E+03	-9.471710E-03	-0.000000E+00
6.729382E+03	-9.476211E-03	-0.000000E+00
6.739307E+03	-9.481530E-03	-0.000000E+00
6.749232E+03	-9.487661E-03	-0.000000E+00
6.759158E+03	-9.494604E-03	-0.000000E+00
6.769083E+03	-9.502356E-03	-0.000000E+00
6.779008E+03	-9.510904E-03	-0.000000E+00
6.788934E+03	-9.520256E-03	-0.000000E+00
6.798859E+03	-9.530399E-03	-0.000000E+00
6.808784E+03	-9.541330E-03	-0.000000E+00
6.818710E+03	-9.553037E-03	-0.000000E+00
6.828635E+03	-9.565520E-03	-0.000000E+00
6.838560E+03	-9.578769E-03	-0.000000E+00
6.848486E+03	-9.592773E-03	-0.000000E+00
6.858411E+03	-9.607527E-03	-0.000000E+00
6.868336E+03	-9.623025E-03	-0.000000E+00
6.878262E+03	-9.639250E-03	-0.000000E+00
6.888187E+03	-9.656199E-03	-0.000000E+00
6.898112E+03	-9.673858E-03	-0.000000E+00
6.908038E+03	-9.692218E-03	-0.000000E+00
6.917963E+03	-9.711268E-03	-0.000000E+00
6.927888E+03	-9.730990E-03	-0.000000E+00
6.937814E+03	-9.751386E-03	-0.000000E+00
6.947739E+03	-9.772432E-03	-0.000000E+00
6.957664E+03	-9.794118E-03	-0.000000E+00
6.967590E+03	-9.816433E-03	-0.000000E+00
6.977515E+03	-9.839359E-03	-0.000000E+00
6.987440E+03	-9.862887E-03	-0.000000E+00
6.997366E+03	-9.887003E-03	-0.000000E+00
7.007291E+03	-9.911693E-03	-0.000000E+00
7.017216E+03	-9.936939E-03	-0.000000E+00
7.027142E+03	-9.962724E-03	-0.000000E+00
7.037067E+03	-9.989043E-03	-0.000000E+00
7.046993E+03	-1.001587E-02	-0.000000E+00
7.056918E+03	-1.004320E-02	-0.000000E+00
7.066843E+03	-1.007101E-02	-0.000000E+00
7.076769E+03	-1.009930E-02	-0.000000E+00
7.086694E+03	-1.012803E-02	-0.000000E+00
7.096619E+03	-1.015721E-02	-0.000000E+00
7.106545E+03	-1.018681E-02	-0.000000E+00
7.116470E+03	-1.021683E-02	-0.000000E+00
7.126395E+03	-1.024723E-02	-0.000000E+00
7.136321E+03	-1.027802E-02	-0.000000E+00
7.146246E+03	-1.030918E-02	-0.000000E+00
7.156171E+03	-1.034070E-02	-0.000000E+00
7.166097E+03	-1.037255E-02	-0.000000E+00
7.176022E+03	-1.040474E-02	-0.000000E+00
7.185947E+03	-1.043724E-02	-0.000000E+00
7.195873E+03	-1.047004E-02	-0.000000E+00
7.205798E+03	-1.050314E-02	-0.000000E+00
7.215723E+03	-1.053653E-02	-0.000000E+00
7.225649E+03	-1.057017E-02	-0.000000E+00
7.235574E+03	-1.060408E-02	-0.000000E+00
7.245499E+03	-1.063824E-02	-0.000000E+00
7.255425E+03	-1.067264E-02	-0.000000E+00
7.265350E+03	-1.070727E-02	-0.000000E+00
7.275275E+03	-1.074211E-02	-0.000000E+00
7.285201E+03	-1.077718E-02	-0.000000E+00
7.295126E+03	-1.081245E-02	-0.000000E+00
7.305051E+03	-1.084791E-02	-0.000000E+00
7.314977E+03	-1.088356E-02	-0.000000E+00
7.324902E+03	-1.091941E-02	-0.000000E+00
7.334827E+03	-1.095542E-02	-0.000000E+00
7.344753E+03	-1.099161E-02	-0.000000E+00
7.354678E+03	-1.102796E-02	-0.000000E+00
7.364603E+03	-1.106448E-02	-0.000000E+00
7.374529E+03	-1.110115E-02	-0.000000E+00
7.384454E+03	-1.113797E-02	-0.000000E+00
7.394379E+03	-1.117495E-02	-0.000000E+00
7.404305E+03	-1.121205E-02	-0.000000E+00
7.414230E+03	-1.124931E-02	-0.000000E+00
7.424156E+03	-1.128669E-02	-0.000000E+00
7.434081E+03	-1.132421E-02	-0.000000E+00
7.444006E+03	-1.136186E-02	-0.000000E+00
7.453932E+03	-1.139963E-02	-0.000000E+00
