#wls	flux	fluxerr
1.588055E+03	5.459006E-04	1.828476E-05
1.627756E+03	5.584975E-04	1.869023E-05
1.667457E+03	5.710958E-04	1.909461E-05
1.707159E+03	5.835600E-04	1.949334E-05
1.746860E+03	5.959400E-04	1.988806E-05
1.786561E+03	6.079352E-04	2.026873E-05
1.826263E+03	6.194681E-04	2.063276E-05
1.865964E+03	6.301667E-04	2.096780E-05
1.905666E+03	6.396937E-04	2.126268E-05
1.945367E+03	6.477749E-04	2.150840E-05
1.985068E+03	6.545061E-04	2.170825E-05
2.024770E+03	6.607339E-04	2.189042E-05
2.064471E+03	6.681456E-04	2.211076E-05
2.104172E+03	6.797547E-04	2.246874E-05
2.143874E+03	6.984517E-04	2.305926E-05
2.183575E+03	7.258586E-04	2.393492E-05
2.223277E+03	7.617523E-04	2.508724E-05
2.262978E+03	8.045804E-04	2.646402E-05
2.302679E+03	8.526201E-04	2.800769E-05
2.342381E+03	9.047198E-04	2.967966E-05
2.382082E+03	9.598968E-04	3.144707E-05
2.421783E+03	1.018001E-03	3.330446E-05
2.461485E+03	1.078772E-03	3.524272E-05
2.501186E+03	1.142460E-03	3.726956E-05
2.540887E+03	1.209048E-03	3.938375E-05
2.580589E+03	1.278744E-03	4.159154E-05
2.620290E+03	1.351655E-03	4.389568E-05
2.659992E+03	1.428002E-03	4.630272E-05
2.699693E+03	1.507568E-03	4.880486E-05
2.739394E+03	1.590564E-03	5.140827E-05
2.779096E+03	1.676920E-03	5.410988E-05
2.818797E+03	1.766597E-03	5.690768E-05
2.858498E+03	1.859585E-03	5.980059E-05
2.898200E+03	1.956220E-03	6.279861E-05
2.937901E+03	2.056931E-03	6.591467E-05
2.977602E+03	2.162311E-03	6.916673E-05
2.987528E+03	2.189539E-03	7.000576E-05
2.997453E+03	2.217097E-03	7.085449E-05
3.007378E+03	2.244980E-03	7.171261E-05
3.017304E+03	2.273339E-03	7.258504E-05
3.027229E+03	2.302134E-03	7.347041E-05
3.037155E+03	2.331477E-03	7.437228E-05
3.047080E+03	2.361266E-03	7.528738E-05
3.057005E+03	2.391706E-03	7.622222E-05
3.066931E+03	2.422620E-03	7.717113E-05
3.076856E+03	2.454061E-03	7.813575E-05
3.086781E+03	2.486081E-03	7.911776E-05
3.096707E+03	2.518656E-03	8.011631E-05
3.106632E+03	2.551839E-03	8.113307E-05
3.116557E+03	2.585530E-03	8.216485E-05
3.126483E+03	2.619858E-03	8.321569E-05
3.136408E+03	2.654798E-03	8.428478E-05
3.146333E+03	2.690400E-03	8.537370E-05
3.156259E+03	2.726567E-03	8.647929E-05
3.166184E+03	2.763350E-03	8.760316E-05
3.176109E+03	2.800798E-03	8.874682E-05
3.186035E+03	2.838887E-03	8.990947E-05
3.195960E+03	2.877665E-03	9.109263E-05
3.205885E+03	2.917109E-03	9.229551E-05
3.215811E+03	2.957264E-03	9.351949E-05
3.225736E+03	2.998106E-03	9.476380E-05
3.235661E+03	3.039610E-03	9.602755E-05
3.245587E+03	3.081821E-03	9.731221E-05
3.255512E+03	3.124712E-03	9.861685E-05
3.265437E+03	3.168258E-03	9.994064E-05
3.275363E+03	3.212575E-03	1.012872E-04
3.285288E+03	3.257565E-03	1.026534E-04
3.295213E+03	3.303200E-03	1.040383E-04
3.305139E+03	3.349454E-03	1.054412E-04
3.315064E+03	3.396442E-03	1.068654E-04
3.324989E+03	3.443997E-03	1.083059E-04
3.334915E+03	3.492162E-03	1.097638E-04
3.344840E+03	3.540914E-03	1.112384E-04
3.354765E+03	3.590156E-03	1.127267E-04
3.364691E+03	3.639869E-03	1.142280E-04
3.374616E+03	3.690096E-03	1.157437E-04
3.384541E+03	3.740613E-03	1.172667E-04
3.394467E+03	3.791535E-03	1.188005E-04
3.404392E+03	3.842644E-03	1.203384E-04
3.414318E+03	3.893992E-03	1.218819E-04
3.424243E+03	3.945365E-03	1.234244E-04
3.434168E+03	3.996821E-03	1.249676E-04
3.444094E+03	4.048153E-03	1.265051E-04
3.454019E+03	4.099360E-03	1.280368E-04
3.463944E+03	4.150244E-03	1.295565E-04
3.473870E+03	4.200814E-03	1.310646E-04
3.483795E+03	4.250882E-03	1.325553E-04
3.493720E+03	4.300401E-03	1.340270E-04
3.503646E+03	4.349264E-03	1.354764E-04
3.513571E+03	4.397369E-03	1.369005E-04
3.523496E+03	4.444684E-03	1.382982E-04
3.533422E+03	4.490997E-03	1.396630E-04
3.543347E+03	4.536286E-03	1.409943E-04
3.553272E+03	4.580534E-03	1.422916E-04
3.563198E+03	4.623665E-03	1.435526E-04
3.573123E+03	4.665610E-03	1.447751E-04
3.583048E+03	4.706302E-03	1.459573E-04
3.592974E+03	4.745739E-03	1.470990E-04
3.602899E+03	4.783920E-03	1.482004E-04
3.612824E+03	4.820671E-03	1.492560E-04
3.622750E+03	4.856059E-03	1.502681E-04
3.632675E+03	4.889974E-03	1.512333E-04
3.642600E+03	4.922545E-03	1.521558E-04
3.652526E+03	4.953724E-03	1.530339E-04
3.662451E+03	4.983526E-03	1.538684E-04
3.672376E+03	5.012021E-03	1.546615E-04
3.682302E+03	5.039226E-03	1.554136E-04
3.692227E+03	5.065269E-03	1.561290E-04
3.702152E+03	5.090110E-03	1.568063E-04
3.712078E+03	5.113879E-03	1.574496E-04
3.722003E+03	5.136646E-03	1.580613E-04
3.731928E+03	5.158537E-03	1.586451E-04
3.741854E+03	5.179568E-03	1.592017E-04
3.751779E+03	5.199857E-03	1.597347E-04
3.761704E+03	5.219467E-03	1.602461E-04
3.771630E+03	5.238515E-03	1.607395E-04
3.781555E+03	5.256999E-03	1.612150E-04
3.791480E+03	5.275134E-03	1.616790E-04
3.801406E+03	5.292858E-03	1.621298E-04
3.811331E+03	5.310320E-03	1.625720E-04
3.821257E+03	5.327504E-03	1.630050E-04
3.831182E+03	5.344604E-03	1.634348E-04
3.841107E+03	5.361544E-03	1.638591E-04
3.851033E+03	5.378402E-03	1.642803E-04
3.860958E+03	5.395307E-03	1.647024E-04
3.870883E+03	5.412222E-03	1.651242E-04
3.880809E+03	5.429217E-03	1.655479E-04
3.890734E+03	5.446354E-03	1.659754E-04
3.900659E+03	5.463588E-03	1.664052E-04
3.910585E+03	5.481026E-03	1.668407E-04
3.920510E+03	5.498667E-03	1.672818E-04
3.930435E+03	5.516453E-03	1.677268E-04
3.940361E+03	5.534479E-03	1.681785E-04
3.950286E+03	5.552734E-03	1.686366E-04
3.960211E+03	5.571254E-03	1.691021E-04
3.970137E+03	5.589966E-03	1.695730E-04
3.980062E+03	5.608905E-03	1.700502E-04
3.989987E+03	5.997962E-03	1.817416E-04
3.999119E+03	5.796627E-03	1.755487E-04
4.008250E+03	5.623961E-03	1.702301E-04
4.017381E+03	5.508835E-03	1.666578E-04
4.026513E+03	5.446736E-03	1.646927E-04
4.035644E+03	5.472478E-03	1.653843E-04
4.044775E+03	5.563062E-03	1.680338E-04
4.053907E+03	5.720176E-03	1.726890E-04
4.063038E+03	5.943052E-03	1.793238E-04
4.072169E+03	6.169542E-03	1.860607E-04
4.081300E+03	6.344782E-03	1.912458E-04
4.090432E+03	6.453546E-03	1.944228E-04
4.099563E+03	6.442450E-03	1.939877E-04
4.108694E+03	6.428498E-03	1.934671E-04
4.117826E+03	6.371272E-03	1.916455E-04
4.126957E+03	6.304389E-03	1.895355E-04
4.136088E+03	6.223336E-03	1.870021E-04
4.145220E+03	6.158448E-03	1.849569E-04
4.154351E+03	6.083876E-03	1.826232E-04
4.163482E+03	6.011424E-03	1.803557E-04
4.172614E+03	5.958556E-03	1.786780E-04
4.181745E+03	5.957430E-03	1.785529E-04
4.190876E+03	5.992342E-03	1.795076E-04
4.200008E+03	6.034579E-03	1.806809E-04
4.209139E+03	6.085278E-03	1.821064E-04
4.218270E+03	6.095879E-03	1.823313E-04
4.227401E+03	6.058403E-03	1.811190E-04
4.236533E+03	6.003871E-03	1.793984E-04
4.245664E+03	5.923770E-03	1.769161E-04
4.254795E+03	5.845230E-03	1.744831E-04
4.263927E+03	5.817514E-03	1.735692E-04
4.273058E+03	5.812373E-03	1.733297E-04
4.282189E+03	5.808867E-03	1.731394E-04
4.291321E+03	5.842152E-03	1.740456E-04
4.300452E+03	5.921354E-03	1.763184E-04
4.309583E+03	6.026099E-03	1.793495E-04
4.318715E+03	6.125755E-03	1.822265E-04
4.327846E+03	6.260072E-03	1.861317E-04
4.336977E+03	6.417721E-03	1.907268E-04
4.346109E+03	6.511749E-03	1.934280E-04
4.355240E+03	6.551743E-03	1.945228E-04
4.364371E+03	6.560962E-03	1.947036E-04
4.373503E+03	6.529128E-03	1.936669E-04
4.382634E+03	6.444812E-03	1.910756E-04
4.391765E+03	6.375157E-03	1.889217E-04
4.400896E+03	6.319041E-03	1.871712E-04
4.410028E+03	6.285024E-03	1.860770E-04
4.419159E+03	6.249186E-03	1.849305E-04
4.428290E+03	6.238320E-03	1.845241E-04
4.437422E+03	6.271838E-03	1.854307E-04
4.446553E+03	6.305275E-03	1.863347E-04
4.455684E+03	6.355745E-03	1.877415E-04
4.464816E+03	6.426108E-03	1.897348E-04
4.473947E+03	6.528928E-03	1.926848E-04
4.483078E+03	6.607701E-03	1.949234E-04
4.492210E+03	6.688102E-03	1.972086E-04
4.501341E+03	6.753567E-03	1.990521E-04
4.510472E+03	6.795514E-03	2.002018E-04
4.519604E+03	6.778521E-03	1.996155E-04
4.528735E+03	6.759689E-03	1.989762E-04
4.537866E+03	6.740157E-03	1.983175E-04
4.546997E+03	6.709072E-03	1.973202E-04
4.556129E+03	6.694424E-03	1.968077E-04
4.565260E+03	6.716208E-03	1.973669E-04
4.574391E+03	6.757855E-03	1.985098E-04
4.583523E+03	6.804507E-03	1.997994E-04
4.592654E+03	6.855586E-03	2.012188E-04
4.601785E+03	6.910515E-03	2.027507E-04
4.610917E+03	6.966431E-03	2.043112E-04
4.620048E+03	7.018759E-03	2.057661E-04
4.629179E+03	7.069780E-03	2.071823E-04
4.638311E+03	7.145178E-03	2.093125E-04
4.647442E+03	7.195843E-03	2.107177E-04
4.656573E+03	7.227491E-03	2.115660E-04
4.665705E+03	7.215022E-03	2.111238E-04
4.674836E+03	7.201246E-03	2.106445E-04
4.683967E+03	7.166203E-03	2.095447E-04
4.693099E+03	7.147537E-03	2.089253E-04
4.702230E+03	7.109327E-03	2.077363E-04
4.711361E+03	7.071532E-03	2.065612E-04
4.720492E+03	7.008523E-03	2.046516E-04
4.729624E+03	6.924883E-03	2.021421E-04
4.738755E+03	6.840560E-03	1.996153E-04
4.747886E+03	6.757262E-03	1.971211E-04
4.757018E+03	6.672151E-03	1.945766E-04
4.766149E+03	6.599437E-03	1.923962E-04
4.775280E+03	6.549896E-03	1.908935E-04
4.784412E+03	6.500221E-03	1.893888E-04
4.793543E+03	6.465728E-03	1.883282E-04
4.802674E+03	6.453764E-03	1.879253E-04
4.811806E+03	6.460325E-03	1.880628E-04
4.820937E+03	6.479713E-03	1.885745E-04
4.830068E+03	6.507376E-03	1.893277E-04
4.839200E+03	6.551212E-03	1.905519E-04
4.848331E+03	6.609487E-03	1.921962E-04
4.857462E+03	6.662975E-03	1.937015E-04
4.866593E+03	6.702659E-03	1.948058E-04
4.875725E+03	6.726317E-03	1.954448E-04
4.884856E+03	6.731174E-03	1.955383E-04
4.893987E+03	6.711656E-03	1.949248E-04
4.903119E+03	6.667830E-03	1.936067E-04
4.912250E+03	6.625035E-03	1.923201E-04
4.921381E+03	6.587202E-03	1.911790E-04
4.930513E+03	6.548715E-03	1.900203E-04
4.939644E+03	6.542610E-03	1.898024E-04
4.948775E+03	6.560401E-03	1.902786E-04
4.957907E+03	6.577435E-03	1.907335E-04
4.967038E+03	6.598735E-03	1.913127E-04
4.976169E+03	6.622058E-03	1.919513E-04
4.985301E+03	6.614548E-03	1.916968E-04
4.994432E+03	6.595219E-03	1.911008E-04
5.003563E+03	6.581890E-03	1.906798E-04
5.012695E+03	6.559562E-03	1.899990E-04
5.021826E+03	6.542124E-03	1.894609E-04
5.030957E+03	6.522921E-03	1.888727E-04
5.040088E+03	6.493667E-03	1.879946E-04
5.049220E+03	6.457167E-03	1.869077E-04
5.058351E+03	6.434400E-03	1.862195E-04
5.067482E+03	6.417058E-03	1.856892E-04
5.076614E+03	6.411720E-03	1.855071E-04
5.085745E+03	6.429319E-03	1.859893E-04
5.094876E+03	6.450571E-03	1.865779E-04
5.104008E+03	6.465605E-03	1.869871E-04
5.113139E+03	6.484288E-03	1.875026E-04
5.122270E+03	6.513703E-03	1.883289E-04
5.131402E+03	6.534176E-03	1.888972E-04
5.140533E+03	6.565345E-03	1.897753E-04
5.149664E+03	6.597376E-03	1.906788E-04
5.158796E+03	6.617238E-03	1.912312E-04
5.167927E+03	6.624447E-03	1.914186E-04
5.177058E+03	6.627174E-03	1.914771E-04
5.186189E+03	6.610317E-03	1.909705E-04
5.195321E+03	6.586375E-03	1.902601E-04
5.204452E+03	6.568308E-03	1.897202E-04
5.213583E+03	6.552864E-03	1.892569E-04
5.222715E+03	6.549695E-03	1.891488E-04
5.231846E+03	6.557671E-03	1.893632E-04
5.240977E+03	6.572991E-03	1.897903E-04
5.250109E+03	6.599358E-03	1.905369E-04
5.259240E+03	6.637783E-03	1.916323E-04
5.268371E+03	6.671705E-03	1.925981E-04
5.277503E+03	6.709113E-03	1.936651E-04
5.286634E+03	6.749460E-03	1.948174E-04
5.295765E+03	6.775256E-03	1.955502E-04
5.304897E+03	6.782875E-03	1.957591E-04
5.314028E+03	6.782969E-03	1.957514E-04
5.323159E+03	6.760830E-03	1.951027E-04
5.332291E+03	6.717631E-03	1.938471E-04
5.341422E+03	6.672907E-03	1.925482E-04
5.350553E+03	6.632955E-03	1.913877E-04
5.359684E+03	6.609779E-03	1.907120E-04
5.368816E+03	6.609552E-03	1.906990E-04
5.377947E+03	6.635274E-03	1.914353E-04
5.387078E+03	6.667560E-03	1.923615E-04
5.396210E+03	6.697032E-03	1.932072E-04
5.405341E+03	6.714900E-03	1.937186E-04
5.414472E+03	6.721231E-03	1.938978E-04
5.423604E+03	6.709381E-03	1.935531E-04
5.432735E+03	6.687184E-03	1.929105E-04
5.441866E+03	6.662412E-03	1.921942E-04
5.450998E+03	6.629437E-03	1.912420E-04
5.460129E+03	6.588312E-03	1.900552E-04
5.469260E+03	6.545219E-03	1.888122E-04
5.478392E+03	6.513941E-03	1.879106E-04
5.487523E+03	6.486270E-03	1.871136E-04
5.496654E+03	6.463709E-03	1.864646E-04
5.505785E+03	6.458397E-03	1.863137E-04
5.514917E+03	6.473268E-03	1.867457E-04
5.524048E+03	6.478412E-03	1.868976E-04
5.533179E+03	6.487493E-03	1.871637E-04
5.542311E+03	6.502500E-03	1.876013E-04
5.551442E+03	6.515870E-03	1.879922E-04
5.560573E+03	6.527614E-03	1.883369E-04
5.569705E+03	6.547240E-03	1.889095E-04
5.578836E+03	6.574202E-03	1.896944E-04
5.587967E+03	6.596508E-03	1.903456E-04
5.597099E+03	6.608229E-03	1.906919E-04
5.606230E+03	6.611907E-03	1.908067E-04
5.615361E+03	6.607596E-03	1.906916E-04
5.624493E+03	6.584485E-03	1.900344E-04
5.633624E+03	6.561415E-03	1.893789E-04
5.642755E+03	6.538386E-03	1.887251E-04
5.651887E+03	6.508534E-03	1.878748E-04
5.661018E+03	6.480226E-03	1.870695E-04
5.670149E+03	6.452966E-03	1.862949E-04
5.679280E+03	6.431136E-03	1.856776E-04
5.688412E+03	6.414219E-03	1.852026E-04
5.697543E+03	6.399274E-03	1.847850E-04
5.706674E+03	6.377570E-03	1.841727E-04
5.715806E+03	6.354470E-03	1.835205E-04
5.724937E+03	6.318890E-03	1.825084E-04
5.734068E+03	6.284870E-03	1.815417E-04
5.743200E+03	6.261051E-03	1.808700E-04
5.752331E+03	6.255998E-03	1.807409E-04
5.761462E+03	6.275335E-03	1.813171E-04
5.770594E+03	6.311750E-03	1.823874E-04
5.779725E+03	6.347989E-03	1.834535E-04
5.788856E+03	6.370271E-03	1.841169E-04
5.797988E+03	6.384378E-03	1.845447E-04
5.807119E+03	6.393676E-03	1.848342E-04
5.816250E+03	6.386390E-03	1.846449E-04
5.825381E+03	6.364983E-03	1.840477E-04
5.834513E+03	6.323430E-03	1.828684E-04
5.843644E+03	6.247313E-03	1.806897E-04
5.852775E+03	6.133569E-03	1.774226E-04
5.861907E+03	6.001601E-03	1.736281E-04
5.871038E+03	5.852458E-03	1.693361E-04
5.880169E+03	5.712781E-03	1.653174E-04
5.889301E+03	5.603415E-03	1.621754E-04
5.898432E+03	5.528813E-03	1.600393E-04
5.907563E+03	5.490610E-03	1.589570E-04
5.916695E+03	5.501972E-03	1.593100E-04
5.925826E+03	5.550621E-03	1.607434E-04
5.934957E+03	5.611042E-03	1.625188E-04
5.944089E+03	5.684544E-03	1.646743E-04
5.953220E+03	5.761436E-03	1.669292E-04
5.962351E+03	5.833015E-03	1.690315E-04
5.971483E+03	5.886094E-03	1.705989E-04
5.980614E+03	5.916234E-03	1.715025E-04
5.989745E+03	5.903134E-03	1.711533E-04
5.998876E+03	5.860655E-03	1.699527E-04
6.008008E+03	5.801189E-03	1.682595E-04
6.017139E+03	5.736579E-03	1.664170E-04
6.026270E+03	5.689393E-03	1.650800E-04
6.035402E+03	5.659530E-03	1.642459E-04
6.044533E+03	5.645548E-03	1.638729E-04
6.053664E+03	5.641979E-03	1.638028E-04
6.062796E+03	5.653687E-03	1.641768E-04
6.071927E+03	5.662733E-03	1.644743E-04
6.081058E+03	5.676709E-03	1.649158E-04
6.090190E+03	5.692033E-03	1.653973E-04
6.099321E+03	5.702487E-03	1.657381E-04
6.108452E+03	5.705442E-03	1.658617E-04
6.117584E+03	5.707578E-03	1.659621E-04
6.126715E+03	5.708460E-03	1.660268E-04
6.135846E+03	5.697521E-03	1.657483E-04
6.144977E+03	5.676585E-03	1.651794E-04
6.154109E+03	5.636921E-03	1.640659E-04
6.163240E+03	5.581699E-03	1.624994E-04
6.172371E+03	5.512748E-03	1.605331E-04
6.181503E+03	5.442815E-03	1.585378E-04
6.190634E+03	5.374085E-03	1.565772E-04
6.199765E+03	5.310038E-03	1.547527E-04
6.208897E+03	5.251519E-03	1.530890E-04
6.218028E+03	5.203281E-03	1.517248E-04
6.227159E+03	5.164842E-03	1.506463E-04
6.236291E+03	5.125767E-03	1.495493E-04
6.245422E+03	5.101622E-03	1.488881E-04
6.254553E+03	5.091478E-03	1.486358E-04
6.263685E+03	5.091828E-03	1.486905E-04
6.272816E+03	5.095744E-03	1.488501E-04
6.281947E+03	5.104504E-03	1.491519E-04
6.291079E+03	5.118094E-03	1.495958E-04
6.300210E+03	5.128781E-03	1.499558E-04
6.309341E+03	5.137012E-03	1.502449E-04
6.318472E+03	5.141945E-03	1.504384E-04
6.327604E+03	5.154272E-03	1.508491E-04
6.336735E+03	5.163308E-03	1.511644E-04
6.345866E+03	5.173757E-03	1.515220E-04
6.354998E+03	5.189447E-03	1.520342E-04
6.364129E+03	5.208665E-03	1.526508E-04
6.373260E+03	5.227162E-03	1.532474E-04
6.382392E+03	5.239430E-03	1.536625E-04
6.391523E+03	5.260741E-03	1.543439E-04
6.400654E+03	5.280064E-03	1.549681E-04
6.409786E+03	5.302903E-03	1.556966E-04
6.418917E+03	5.317841E-03	1.561944E-04
6.428048E+03	5.327857E-03	1.565485E-04
6.437180E+03	5.315252E-03	1.562386E-04
6.446311E+03	5.302412E-03	1.559222E-04
6.455442E+03	5.285966E-03	1.555000E-04
6.464573E+03	5.259610E-03	1.547865E-04
6.473705E+03	5.221262E-03	1.537200E-04
6.482836E+03	5.182703E-03	1.526469E-04
6.491967E+03	5.151065E-03	1.517774E-04
6.501099E+03	5.131363E-03	1.512596E-04
6.510230E+03	5.153334E-03	1.519709E-04
6.519361E+03	5.220252E-03	1.540093E-04
6.528493E+03	5.320736E-03	1.570406E-04
6.537624E+03	5.428370E-03	1.602862E-04
6.546755E+03	5.531439E-03	1.634002E-04
6.555887E+03	5.611559E-03	1.658392E-04
6.565018E+03	5.659573E-03	1.673317E-04
6.574149E+03	5.677619E-03	1.679395E-04
6.583281E+03	5.656128E-03	1.673783E-04
6.592412E+03	5.611006E-03	1.661176E-04
6.601543E+03	5.538937E-03	1.640580E-04
6.610675E+03	5.454124E-03	1.616193E-04
6.619806E+03	5.352818E-03	1.586900E-04
6.628937E+03	5.252533E-03	1.557886E-04
6.638068E+03	5.159095E-03	1.530881E-04
6.647200E+03	5.101655E-03	1.514541E-04
6.656331E+03	5.079351E-03	1.508626E-04
6.665462E+03	5.080080E-03	1.509553E-04
6.674594E+03	5.087585E-03	1.512499E-04
6.683725E+03	5.095616E-03	1.515607E-04
6.692856E+03	5.080442E-03	1.511816E-04
6.701988E+03	5.036239E-03	1.499383E-04
6.711119E+03	4.985075E-03	1.484867E-04
6.720250E+03	4.941096E-03	1.472481E-04
6.729382E+03	4.908877E-03	1.463592E-04
6.738513E+03	4.895072E-03	1.460190E-04
6.747644E+03	4.900926E-03	1.462654E-04
6.756776E+03	4.925606E-03	1.470744E-04
6.765907E+03	4.954129E-03	1.479993E-04
6.775038E+03	4.972341E-03	1.486172E-04
6.784169E+03	4.970250E-03	1.486288E-04
6.793301E+03	4.943685E-03	1.479083E-04
6.802432E+03	4.883059E-03	1.461678E-04
6.811563E+03	4.807927E-03	1.439913E-04
6.820695E+03	4.720362E-03	1.414403E-04
6.829826E+03	4.624518E-03	1.386387E-04
6.838957E+03	4.541217E-03	1.362106E-04
6.848089E+03	4.482130E-03	1.345068E-04
6.857220E+03	4.452269E-03	1.336790E-04
6.866351E+03	4.453320E-03	1.337790E-04
6.875483E+03	4.488637E-03	1.349092E-04
6.884614E+03	4.559918E-03	1.371221E-04
6.893745E+03	4.644242E-03	1.397299E-04
6.902877E+03	4.731604E-03	1.424320E-04
6.912008E+03	4.804893E-03	1.447131E-04
6.921139E+03	4.862844E-03	1.465345E-04
6.930271E+03	4.894162E-03	1.475549E-04
6.939402E+03	4.903836E-03	1.479236E-04
6.948533E+03	4.905220E-03	1.480425E-04
6.957664E+03	4.912108E-03	1.483279E-04
6.966796E+03	4.923667E-03	1.487548E-04
6.975927E+03	4.941577E-03	1.493741E-04
6.985058E+03	4.972545E-03	1.503891E-04
6.994190E+03	4.998991E-03	1.512684E-04
7.003321E+03	5.015461E-03	1.518467E-04
7.012452E+03	5.031586E-03	1.524151E-04
7.021584E+03	5.030581E-03	1.524650E-04
7.030715E+03	5.015362E-03	1.520840E-04
7.039846E+03	4.996822E-03	1.516018E-04
7.048978E+03	4.985461E-03	1.513371E-04
7.058109E+03	4.982969E-03	1.513415E-04
7.067240E+03	4.993143E-03	1.517307E-04
7.076372E+03	5.013477E-03	1.524293E-04
7.085503E+03	5.045670E-03	1.534894E-04
7.094634E+03	5.084688E-03	1.547583E-04
7.103765E+03	5.111573E-03	1.556591E-04
7.112897E+03	5.129258E-03	1.562804E-04
7.122028E+03	5.145743E-03	1.568659E-04
7.131159E+03	5.142869E-03	1.568614E-04
7.140291E+03	5.122292E-03	1.563167E-04
7.149422E+03	5.096236E-03	1.556040E-04
7.158553E+03	5.055808E-03	1.544515E-04
7.167685E+03	4.993359E-03	1.526246E-04
7.176816E+03	4.923246E-03	1.505614E-04
7.185947E+03	4.859439E-03	1.486889E-04
7.195079E+03	4.796857E-03	1.468517E-04
7.204210E+03	4.740594E-03	1.452062E-04
7.213341E+03	4.702973E-03	1.441301E-04
7.222473E+03	4.682332E-03	1.435735E-04
7.231604E+03	4.662969E-03	1.430554E-04
7.240735E+03	4.640206E-03	1.424323E-04
7.249867E+03	4.635750E-03	1.423707E-04
7.258998E+03	4.641117E-03	1.426107E-04
7.268129E+03	4.643534E-03	1.427602E-04
7.277260E+03	4.639580E-03	1.427138E-04
7.286392E+03	4.654008E-03	1.432330E-04
7.295523E+03	4.682156E-03	1.441751E-04
7.304654E+03	4.696684E-03	1.446985E-04
7.313786E+03	4.715966E-03	1.453688E-04
7.322917E+03	4.748576E-03	1.464507E-04
7.332048E+03	4.767971E-03	1.471258E-04
7.341180E+03	4.783984E-03	1.476972E-04
7.350311E+03	4.812063E-03	1.486417E-04
7.359442E+03	4.831183E-03	1.493102E-04
7.368574E+03	4.838746E-03	1.496218E-04
7.377705E+03	4.847630E-03	1.499745E-04
7.386836E+03	4.845784E-03	1.499953E-04
7.395968E+03	4.824563E-03	1.494159E-04
7.405099E+03	4.792978E-03	1.485146E-04
