#wls	flux	fluxerr
1.588055E+03	1.242036E-03	3.188797E-06
1.627756E+03	1.257798E-03	3.229264E-06
1.667457E+03	1.272658E-03	3.267414E-06
1.707159E+03	1.286519E-03	3.302997E-06
1.746860E+03	1.299206E-03	3.335569E-06
1.786561E+03	1.310697E-03	3.365069E-06
1.826263E+03	1.320216E-03	3.389504E-06
1.865964E+03	1.327685E-03	3.408680E-06
1.905666E+03	1.332165E-03	3.420179E-06
1.945367E+03	1.333290E-03	3.423065E-06
1.985068E+03	1.331727E-03	3.419051E-06
2.024770E+03	1.329097E-03	3.412295E-06
2.064471E+03	1.328867E-03	3.411701E-06
2.104172E+03	1.336648E-03	3.431677E-06
2.143874E+03	1.358045E-03	3.486610E-06
2.183575E+03	1.395481E-03	3.582719E-06
2.223277E+03	1.447233E-03	3.715582E-06
2.262978E+03	1.510008E-03	3.876745E-06
2.302679E+03	1.579565E-03	4.055320E-06
2.342381E+03	1.652924E-03	4.243656E-06
2.382082E+03	1.728773E-03	4.438384E-06
2.421783E+03	1.805904E-03	4.636403E-06
2.461485E+03	1.884258E-03	4.837564E-06
2.501186E+03	1.963825E-03	5.041836E-06
2.540887E+03	2.044677E-03	5.249405E-06
2.580589E+03	2.126884E-03	5.460456E-06
2.620290E+03	2.210698E-03	5.675630E-06
2.659992E+03	2.296311E-03	5.895422E-06
2.699693E+03	2.383425E-03	6.119068E-06
2.739394E+03	2.472334E-03	6.347322E-06
2.779096E+03	2.563056E-03	6.580229E-06
2.818797E+03	2.655338E-03	6.817143E-06
2.858498E+03	2.748660E-03	7.056724E-06
2.898200E+03	2.842243E-03	7.296973E-06
2.937901E+03	2.936129E-03	7.538001E-06
2.977602E+03	3.029675E-03	7.778156E-06
2.987528E+03	3.053107E-03	7.838312E-06
2.997453E+03	3.076626E-03	7.898690E-06
3.007378E+03	3.100012E-03	7.958727E-06
3.017304E+03	3.123484E-03	8.018987E-06
3.027229E+03	3.147097E-03	8.079606E-06
3.037155E+03	3.170695E-03	8.140186E-06
3.047080E+03	3.194667E-03	8.201729E-06
3.057005E+03	3.218569E-03	8.263091E-06
3.066931E+03	3.242793E-03	8.325278E-06
3.076856E+03	3.266895E-03	8.387153E-06
3.086781E+03	3.291269E-03	8.449726E-06
3.096707E+03	3.315889E-03	8.512932E-06
3.106632E+03	3.340526E-03	8.576180E-06
3.116557E+03	3.365159E-03	8.639419E-06
3.126483E+03	3.389973E-03	8.703121E-06
3.136408E+03	3.414946E-03	8.767230E-06
3.146333E+03	3.440055E-03	8.831692E-06
3.156259E+03	3.465283E-03	8.896457E-06
3.166184E+03	3.490609E-03	8.961473E-06
3.176109E+03	3.516013E-03	9.026691E-06
3.186035E+03	3.541677E-03	9.092577E-06
3.195960E+03	3.567381E-03	9.158562E-06
3.205885E+03	3.593504E-03	9.225625E-06
3.215811E+03	3.619626E-03	9.292686E-06
3.225736E+03	3.646127E-03	9.360719E-06
3.235661E+03	3.672589E-03	9.428651E-06
3.245587E+03	3.699582E-03	9.497948E-06
3.255512E+03	3.726692E-03	9.567546E-06
3.265437E+03	3.754094E-03	9.637891E-06
3.275363E+03	3.781765E-03	9.708928E-06
3.285288E+03	3.809874E-03	9.781089E-06
3.295213E+03	3.838206E-03	9.853823E-06
3.305139E+03	3.866928E-03	9.927559E-06
3.315064E+03	3.896204E-03	1.000272E-05
3.324989E+03	3.925817E-03	1.007874E-05
3.334915E+03	3.955929E-03	1.015604E-05
3.344840E+03	3.986511E-03	1.023455E-05
3.354765E+03	4.017718E-03	1.031466E-05
3.364691E+03	4.049520E-03	1.039630E-05
3.374616E+03	4.081882E-03	1.047939E-05
3.384541E+03	4.114956E-03	1.056429E-05
3.394467E+03	4.148704E-03	1.065093E-05
3.404392E+03	4.183273E-03	1.073967E-05
3.414318E+03	4.218626E-03	1.083043E-05
3.424243E+03	4.254904E-03	1.092356E-05
3.434168E+03	4.292246E-03	1.101943E-05
3.444094E+03	4.330613E-03	1.111793E-05
3.454019E+03	4.370143E-03	1.121940E-05
3.463944E+03	4.410796E-03	1.132377E-05
3.473870E+03	4.452880E-03	1.143181E-05
3.483795E+03	4.496354E-03	1.154341E-05
3.493720E+03	4.541349E-03	1.165892E-05
3.503646E+03	4.587822E-03	1.177823E-05
3.513571E+03	4.635902E-03	1.190166E-05
3.523496E+03	4.685381E-03	1.202868E-05
3.533422E+03	4.736391E-03	1.215963E-05
3.543347E+03	4.788564E-03	1.229357E-05
3.553272E+03	4.841874E-03	1.243043E-05
3.563198E+03	4.896137E-03	1.256974E-05
3.573123E+03	4.951499E-03	1.271186E-05
3.583048E+03	5.007465E-03	1.285554E-05
3.592974E+03	5.064356E-03	1.300159E-05
3.602899E+03	5.121700E-03	1.314880E-05
3.612824E+03	5.179670E-03	1.329762E-05
3.622750E+03	5.237974E-03	1.344730E-05
3.632675E+03	5.296645E-03	1.359792E-05
3.642600E+03	5.355565E-03	1.374918E-05
3.652526E+03	5.414928E-03	1.390157E-05
3.662451E+03	5.474320E-03	1.405404E-05
3.672376E+03	5.533944E-03	1.420711E-05
3.682302E+03	5.593700E-03	1.436051E-05
3.692227E+03	5.653490E-03	1.451400E-05
3.702152E+03	5.713372E-03	1.466773E-05
3.712078E+03	5.773398E-03	1.482183E-05
3.722003E+03	5.833476E-03	1.497606E-05
3.731928E+03	5.893521E-03	1.513020E-05
3.741854E+03	5.953589E-03	1.528441E-05
3.751779E+03	6.013880E-03	1.543918E-05
3.761704E+03	6.074023E-03	1.559358E-05
3.771630E+03	6.134219E-03	1.574812E-05
3.781555E+03	6.194522E-03	1.590292E-05
3.791480E+03	6.254845E-03	1.605778E-05
3.801406E+03	6.315241E-03	1.621283E-05
3.811331E+03	6.375620E-03	1.636783E-05
3.821257E+03	6.436030E-03	1.652291E-05
3.831182E+03	6.496377E-03	1.667783E-05
3.841107E+03	6.556835E-03	1.683303E-05
3.851033E+03	6.617171E-03	1.698793E-05
3.860958E+03	6.677551E-03	1.714293E-05
3.870883E+03	6.737871E-03	1.729778E-05
3.880809E+03	6.798155E-03	1.745254E-05
3.890734E+03	6.858292E-03	1.760692E-05
3.900659E+03	6.918302E-03	1.776097E-05
3.910585E+03	6.978065E-03	1.791439E-05
3.920510E+03	7.037720E-03	1.806753E-05
3.930435E+03	7.097012E-03	1.821974E-05
3.940361E+03	7.156196E-03	1.837167E-05
3.950286E+03	7.214881E-03	1.852233E-05
3.960211E+03	7.273187E-03	1.867200E-05
3.970137E+03	7.330976E-03	1.882036E-05
3.980062E+03	7.388241E-03	1.896736E-05
3.989987E+03	7.444973E-03	1.911300E-05
3.999913E+03	7.501169E-03	1.925726E-05
4.009838E+03	7.556586E-03	1.939952E-05
4.019763E+03	7.611359E-03	1.954013E-05
4.029689E+03	7.665384E-03	1.967882E-05
4.039614E+03	7.718695E-03	1.981567E-05
4.049539E+03	7.771206E-03	1.995047E-05
4.059465E+03	7.823093E-03	2.008367E-05
4.069390E+03	7.874173E-03	2.021479E-05
4.079315E+03	7.924640E-03	2.034434E-05
4.089241E+03	7.974454E-03	2.047222E-05
4.099166E+03	8.023589E-03	2.059835E-05
4.109091E+03	8.072263E-03	2.072330E-05
4.119017E+03	8.120582E-03	2.084734E-05
4.128942E+03	8.168415E-03	2.097013E-05
4.138867E+03	8.215873E-03	2.109196E-05
4.148793E+03	8.263185E-03	2.121341E-05
4.158718E+03	8.310337E-03	2.133445E-05
4.168643E+03	8.357431E-03	2.145534E-05
4.178569E+03	8.404558E-03	2.157632E-05
4.188494E+03	8.451681E-03	2.169729E-05
4.198419E+03	8.498985E-03	2.181872E-05
4.208345E+03	8.546508E-03	2.194071E-05
4.218270E+03	8.594168E-03	2.206306E-05
4.228196E+03	8.641963E-03	2.218575E-05
4.238121E+03	8.689987E-03	2.230902E-05
4.248046E+03	8.738297E-03	2.243304E-05
4.257972E+03	8.786724E-03	2.255735E-05
4.267897E+03	8.835165E-03	2.268170E-05
4.277822E+03	8.883875E-03	2.280674E-05
4.287748E+03	8.932512E-03	2.293159E-05
4.297673E+03	8.981305E-03	2.305685E-05
4.307598E+03	9.030144E-03	2.318222E-05
4.317524E+03	9.079138E-03	2.330798E-05
4.327449E+03	9.128184E-03	2.343389E-05
4.337374E+03	9.177512E-03	2.356051E-05
4.347300E+03	9.227018E-03	2.368759E-05
4.357225E+03	9.276958E-03	2.381579E-05
4.367150E+03	9.327478E-03	2.394548E-05
4.377076E+03	9.378603E-03	2.407671E-05
4.387001E+03	9.430384E-03	2.420964E-05
4.396926E+03	9.482975E-03	2.434464E-05
4.406852E+03	9.536068E-03	2.448093E-05
4.416777E+03	9.589613E-03	2.461838E-05
4.426702E+03	9.643548E-03	2.475683E-05
4.436628E+03	9.697831E-03	2.489618E-05
4.446553E+03	9.752170E-03	2.503567E-05
4.456478E+03	9.806545E-03	2.517525E-05
4.466404E+03	9.860821E-03	2.531457E-05
4.476329E+03	9.914891E-03	2.545337E-05
4.486254E+03	9.968875E-03	2.559195E-05
4.496180E+03	1.002235E-02	2.572922E-05
4.506105E+03	1.007560E-02	2.586592E-05
4.516030E+03	1.012834E-02	2.600129E-05
4.525956E+03	1.018077E-02	2.613589E-05
4.535881E+03	1.023277E-02	2.626936E-05
4.545806E+03	1.028431E-02	2.640168E-05
4.555732E+03	1.033544E-02	2.653292E-05
4.565657E+03	1.038627E-02	2.666340E-05
4.575582E+03	1.043683E-02	2.679318E-05
4.585508E+03	1.048703E-02	2.692205E-05
4.595433E+03	1.053716E-02	2.705073E-05
4.605358E+03	1.058713E-02	2.717899E-05
4.615284E+03	1.063696E-02	2.730690E-05
4.625209E+03	1.068679E-02	2.743484E-05
4.635135E+03	1.073663E-02	2.756277E-05
4.645060E+03	1.078668E-02	2.769124E-05
4.654985E+03	1.083676E-02	2.781979E-05
4.664911E+03	1.088703E-02	2.794883E-05
4.674836E+03	1.093745E-02	2.807827E-05
4.684761E+03	1.098800E-02	2.820803E-05
4.694687E+03	1.103883E-02	2.833849E-05
4.704612E+03	1.108970E-02	2.846908E-05
4.714537E+03	1.114094E-02	2.860061E-05
4.724463E+03	1.119228E-02	2.873240E-05
4.734388E+03	1.124390E-02	2.886491E-05
4.744313E+03	1.129550E-02	2.899736E-05
4.754239E+03	1.134725E-02	2.913020E-05
4.764164E+03	1.139886E-02	2.926268E-05
4.774089E+03	1.145031E-02	2.939474E-05
4.784015E+03	1.150133E-02	2.952572E-05
4.793940E+03	1.155197E-02	2.965571E-05
4.803865E+03	1.160205E-02	2.978427E-05
4.813791E+03	1.165170E-02	2.991171E-05
4.823716E+03	1.170083E-02	3.003782E-05
4.833641E+03	1.174954E-02	3.016286E-05
4.843567E+03	1.179810E-02	3.028751E-05
4.853492E+03	1.184645E-02	3.041162E-05
4.863417E+03	1.189504E-02	3.053634E-05
4.873343E+03	1.194387E-02	3.066169E-05
4.883268E+03	1.199342E-02	3.078889E-05
4.893193E+03	1.204394E-02	3.091857E-05
4.903119E+03	1.209538E-02	3.105062E-05
4.913044E+03	1.214805E-02	3.118582E-05
4.922969E+03	1.220223E-02	3.132488E-05
4.932895E+03	1.225799E-02	3.146803E-05
4.942820E+03	1.231515E-02	3.161475E-05
4.952745E+03	1.237408E-02	3.176602E-05
4.962671E+03	1.243447E-02	3.192103E-05
4.972596E+03	1.249622E-02	3.207956E-05
4.982521E+03	1.255943E-02	3.224181E-05
4.992447E+03	1.262366E-02	3.240667E-05
5.002372E+03	1.268876E-02	3.257380E-05
5.012297E+03	1.275462E-02	3.274285E-05
5.022223E+03	1.282066E-02	3.291238E-05
5.032148E+03	1.288667E-02	3.308183E-05
5.042074E+03	1.295246E-02	3.325070E-05
5.051999E+03	1.301753E-02	3.341774E-05
5.061924E+03	1.308155E-02	3.358209E-05
5.071850E+03	1.314433E-02	3.374323E-05
5.081775E+03	1.320539E-02	3.389998E-05
5.091700E+03	1.326444E-02	3.405156E-05
5.101626E+03	1.332134E-02	3.419761E-05
5.111551E+03	1.337567E-02	3.433707E-05
5.121476E+03	1.342732E-02	3.446966E-05
5.131402E+03	1.347594E-02	3.459446E-05
5.141327E+03	1.352144E-02	3.471125E-05
5.151252E+03	1.356352E-02	3.481927E-05
5.161178E+03	1.360214E-02	3.491841E-05
5.171103E+03	1.363706E-02	3.500804E-05
5.181028E+03	1.366833E-02	3.508830E-05
5.190954E+03	1.369574E-02	3.515866E-05
5.200879E+03	1.371931E-02	3.521914E-05
5.210804E+03	1.373904E-02	3.526980E-05
5.220730E+03	1.375517E-02	3.531118E-05
5.230655E+03	1.376767E-02	3.534326E-05
5.240580E+03	1.377668E-02	3.536639E-05
5.250506E+03	1.378239E-02	3.538102E-05
5.260431E+03	1.378497E-02	3.538764E-05
5.270356E+03	1.378464E-02	3.538680E-05
5.280282E+03	1.378162E-02	3.537902E-05
5.290207E+03	1.377597E-02	3.536451E-05
5.300132E+03	1.376804E-02	3.534415E-05
5.310058E+03	1.375789E-02	3.531809E-05
5.319983E+03	1.374587E-02	3.528722E-05
5.329908E+03	1.373201E-02	3.525163E-05
5.339834E+03	1.371636E-02	3.521144E-05
5.349759E+03	1.369934E-02	3.516775E-05
5.359684E+03	1.368100E-02	3.512066E-05
5.369610E+03	1.366135E-02	3.507021E-05
5.379535E+03	1.364072E-02	3.501722E-05
5.389460E+03	1.361915E-02	3.496184E-05
5.399386E+03	1.359697E-02	3.490491E-05
5.409311E+03	1.357415E-02	3.484631E-05
5.419237E+03	1.355119E-02	3.478737E-05
5.429162E+03	1.352838E-02	3.472881E-05
5.439087E+03	1.350573E-02	3.467065E-05
5.449013E+03	1.348371E-02	3.461411E-05
5.458938E+03	1.346254E-02	3.455975E-05
5.468863E+03	1.344287E-02	3.450924E-05
5.478789E+03	1.342498E-02	3.446333E-05
5.488714E+03	1.340932E-02	3.442312E-05
5.498639E+03	1.339634E-02	3.438979E-05
5.508565E+03	1.338666E-02	3.436492E-05
5.518490E+03	1.338060E-02	3.434936E-05
5.528415E+03	1.337873E-02	3.434455E-05
5.538341E+03	1.338133E-02	3.435121E-05
5.548266E+03	1.338888E-02	3.437059E-05
5.558191E+03	1.340165E-02	3.440337E-05
5.568117E+03	1.342000E-02	3.445047E-05
5.578042E+03	1.344383E-02	3.451165E-05
5.587967E+03	1.347355E-02	3.458791E-05
5.597893E+03	1.350924E-02	3.467954E-05
5.607818E+03	1.355103E-02	3.478682E-05
5.617743E+03	1.359886E-02	3.490958E-05
5.627669E+03	1.365297E-02	3.504847E-05
5.637594E+03	1.371360E-02	3.520413E-05
5.647519E+03	1.378060E-02	3.537610E-05
5.657445E+03	1.385434E-02	3.556539E-05
5.667370E+03	1.393490E-02	3.577219E-05
5.677295E+03	1.402220E-02	3.599628E-05
5.687221E+03	1.411640E-02	3.623812E-05
5.697146E+03	1.421730E-02	3.649712E-05
5.707071E+03	1.432488E-02	3.677328E-05
5.716997E+03	1.443901E-02	3.706627E-05
5.726922E+03	1.455896E-02	3.737418E-05
5.736847E+03	1.468421E-02	3.769569E-05
5.746773E+03	1.481386E-02	3.802852E-05
5.756698E+03	1.494679E-02	3.836976E-05
5.766623E+03	1.508158E-02	3.871576E-05
5.776549E+03	1.521677E-02	3.906280E-05
5.786474E+03	1.535026E-02	3.940547E-05
5.796399E+03	1.548049E-02	3.973979E-05
5.806325E+03	1.560543E-02	4.006050E-05
5.816250E+03	1.572325E-02	4.036296E-05
5.826176E+03	1.583248E-02	4.064336E-05
5.836101E+03	1.593140E-02	4.089727E-05
5.846026E+03	1.601919E-02	4.112264E-05
5.855952E+03	1.609474E-02	4.131659E-05
5.865877E+03	1.615790E-02	4.147871E-05
5.875802E+03	1.620809E-02	4.160756E-05
5.885728E+03	1.624551E-02	4.170361E-05
5.895653E+03	1.627035E-02	4.176735E-05
5.905578E+03	1.628292E-02	4.179963E-05
5.915504E+03	1.628349E-02	4.180110E-05
5.925429E+03	1.627257E-02	4.177306E-05
5.935354E+03	1.625076E-02	4.171706E-05
5.945280E+03	1.621884E-02	4.163512E-05
5.955205E+03	1.617718E-02	4.152816E-05
5.965130E+03	1.612670E-02	4.139858E-05
5.975056E+03	1.606822E-02	4.124843E-05
5.984981E+03	1.600243E-02	4.107956E-05
5.994906E+03	1.593043E-02	4.089473E-05
6.004832E+03	1.585287E-02	4.069562E-05
6.014757E+03	1.577093E-02	4.048527E-05
6.024682E+03	1.568580E-02	4.026673E-05
6.034608E+03	1.559817E-02	4.004177E-05
6.044533E+03	1.550923E-02	3.981345E-05
6.054458E+03	1.541997E-02	3.958431E-05
6.064384E+03	1.533152E-02	3.935724E-05
6.074309E+03	1.524460E-02	3.913412E-05
6.084234E+03	1.516031E-02	3.891772E-05
6.094160E+03	1.507946E-02	3.871019E-05
6.104085E+03	1.500323E-02	3.851449E-05
6.114010E+03	1.493255E-02	3.833306E-05
6.123936E+03	1.486802E-02	3.816740E-05
6.133861E+03	1.481049E-02	3.801972E-05
6.143786E+03	1.476096E-02	3.789255E-05
6.153712E+03	1.471969E-02	3.778661E-05
6.163637E+03	1.468741E-02	3.770376E-05
6.173562E+03	1.466450E-02	3.764493E-05
6.183488E+03	1.465126E-02	3.761096E-05
6.193413E+03	1.464820E-02	3.760310E-05
6.203338E+03	1.465595E-02	3.762299E-05
6.213264E+03	1.467468E-02	3.767107E-05
6.223189E+03	1.470505E-02	3.774902E-05
6.233115E+03	1.474740E-02	3.785775E-05
6.243040E+03	1.480248E-02	3.799914E-05
6.252965E+03	1.487066E-02	3.817416E-05
6.262891E+03	1.495270E-02	3.838477E-05
6.272816E+03	1.504902E-02	3.863204E-05
6.282741E+03	1.516022E-02	3.891749E-05
6.292667E+03	1.528706E-02	3.924311E-05
6.302592E+03	1.542975E-02	3.960940E-05
6.312517E+03	1.558916E-02	4.001864E-05
6.322443E+03	1.576542E-02	4.047109E-05
6.332368E+03	1.595884E-02	4.096762E-05
6.342293E+03	1.616947E-02	4.150833E-05
6.352219E+03	1.639731E-02	4.209324E-05
6.362144E+03	1.664177E-02	4.272078E-05
6.372069E+03	1.690250E-02	4.339010E-05
6.381995E+03	1.717784E-02	4.409691E-05
6.391920E+03	1.746673E-02	4.483852E-05
6.401845E+03	1.776691E-02	4.560911E-05
6.411771E+03	1.807633E-02	4.640342E-05
6.421696E+03	1.839260E-02	4.721532E-05
6.431621E+03	1.871323E-02	4.803842E-05
6.441547E+03	1.903548E-02	4.886566E-05
6.451472E+03	1.935687E-02	4.969070E-05
6.461397E+03	1.967428E-02	5.050553E-05
6.471323E+03	1.998450E-02	5.130191E-05
6.481248E+03	2.028428E-02	5.207148E-05
6.491173E+03	2.057031E-02	5.280576E-05
6.501099E+03	2.083912E-02	5.349581E-05
6.511024E+03	2.108785E-02	5.413433E-05
6.520949E+03	2.131332E-02	5.471315E-05
6.530875E+03	2.151261E-02	5.522474E-05
6.540800E+03	2.168313E-02	5.566249E-05
6.550725E+03	2.182328E-02	5.602229E-05
6.560651E+03	2.193116E-02	5.629925E-05
6.570576E+03	2.200573E-02	5.649067E-05
6.580501E+03	2.204680E-02	5.659611E-05
6.590427E+03	2.205460E-02	5.661616E-05
6.600352E+03	2.202999E-02	5.655299E-05
6.610277E+03	2.197466E-02	5.641097E-05
6.620203E+03	2.189007E-02	5.619382E-05
6.630128E+03	2.177920E-02	5.590924E-05
6.640054E+03	2.164489E-02	5.556446E-05
6.649979E+03	2.149022E-02	5.516741E-05
6.659904E+03	2.131811E-02	5.472560E-05
6.669830E+03	2.113210E-02	5.424811E-05
6.679755E+03	2.093542E-02	5.374323E-05
6.689680E+03	2.073115E-02	5.321886E-05
6.699606E+03	2.052215E-02	5.268237E-05
6.709531E+03	2.031138E-02	5.214131E-05
6.719456E+03	2.010066E-02	5.160037E-05
6.729382E+03	1.989261E-02	5.106630E-05
6.739307E+03	1.968850E-02	5.054235E-05
6.749232E+03	1.949037E-02	5.003375E-05
6.759158E+03	1.929946E-02	4.954368E-05
6.769083E+03	1.911619E-02	4.907322E-05
6.779008E+03	1.894186E-02	4.862572E-05
6.788934E+03	1.877674E-02	4.820185E-05
6.798859E+03	1.862151E-02	4.780337E-05
6.808784E+03	1.847621E-02	4.743037E-05
6.818710E+03	1.834102E-02	4.708336E-05
6.828635E+03	1.821613E-02	4.676276E-05
6.838560E+03	1.810193E-02	4.646961E-05
6.848486E+03	1.799824E-02	4.620343E-05
6.858411E+03	1.790511E-02	4.596439E-05
6.868336E+03	1.782257E-02	4.575251E-05
6.878262E+03	1.775081E-02	4.556830E-05
6.888187E+03	1.768920E-02	4.541015E-05
6.898112E+03	1.763807E-02	4.527893E-05
6.908038E+03	1.759696E-02	4.517340E-05
6.917963E+03	1.756556E-02	4.509282E-05
6.927888E+03	1.754383E-02	4.503705E-05
6.937814E+03	1.753089E-02	4.500383E-05
6.947739E+03	1.752663E-02	4.499291E-05
6.957664E+03	1.753065E-02	4.500327E-05
6.967590E+03	1.754255E-02	4.503382E-05
6.977515E+03	1.756186E-02	4.508342E-05
6.987440E+03	1.758785E-02	4.515015E-05
6.997366E+03	1.762049E-02	4.523395E-05
7.007291E+03	1.765864E-02	4.533191E-05
7.017216E+03	1.770190E-02	4.544299E-05
7.027142E+03	1.774928E-02	4.556462E-05
7.037067E+03	1.780023E-02	4.569543E-05
7.046993E+03	1.785365E-02	4.583259E-05
7.056918E+03	1.790894E-02	4.597455E-05
7.066843E+03	1.796522E-02	4.611904E-05
7.076769E+03	1.802108E-02	4.626245E-05
7.086694E+03	1.807651E-02	4.640477E-05
7.096619E+03	1.812992E-02	4.654190E-05
7.106545E+03	1.818123E-02	4.667364E-05
7.116470E+03	1.822931E-02	4.679708E-05
7.126395E+03	1.827426E-02	4.691249E-05
7.136321E+03	1.831543E-02	4.701820E-05
7.146246E+03	1.835254E-02	4.711348E-05
7.156171E+03	1.838567E-02	4.719855E-05
7.166097E+03	1.841407E-02	4.727147E-05
7.176022E+03	1.843795E-02	4.733280E-05
7.185947E+03	1.845697E-02	4.738165E-05
7.195873E+03	1.847176E-02	4.741964E-05
7.205798E+03	1.848182E-02	4.744548E-05
7.215723E+03	1.848790E-02	4.746112E-05
7.225649E+03	1.848938E-02	4.746494E-05
7.235574E+03	1.848747E-02	4.746005E-05
7.245499E+03	1.848195E-02	4.744589E-05
7.255425E+03	1.847354E-02	4.742434E-05
7.265350E+03	1.846241E-02	4.739577E-05
7.275275E+03	1.844933E-02	4.736221E-05
7.285201E+03	1.843448E-02	4.732411E-05
7.295126E+03	1.841864E-02	4.728347E-05
7.305051E+03	1.840226E-02	4.724143E-05
7.314977E+03	1.838516E-02	4.719754E-05
7.324902E+03	1.836866E-02	4.715522E-05
7.334827E+03	1.835222E-02	4.711304E-05
7.344753E+03	1.833709E-02	4.707422E-05
7.354678E+03	1.832292E-02	4.703784E-05
7.364603E+03	1.831025E-02	4.700534E-05
7.374529E+03	1.829895E-02	4.697635E-05
7.384454E+03	1.828979E-02	4.695287E-05
7.394379E+03	1.828225E-02	4.693353E-05
7.404305E+03	1.827640E-02	4.691853E-05
7.414230E+03	1.827264E-02	4.690889E-05
7.424156E+03	1.827071E-02	4.690397E-05
7.434081E+03	1.827100E-02	4.690473E-05
7.444006E+03	1.827298E-02	4.690984E-05
7.453932E+03	1.827738E-02	4.692116E-05
7.463857E+03	1.828369E-02	4.693736E-05
7.473782E+03	1.829235E-02	4.695963E-05
7.483708E+03	1.830349E-02	4.698823E-05
7.493633E+03	1.831721E-02	4.702348E-05
7.503558E+03	1.833365E-02	4.706571E-05
7.513484E+03	1.835255E-02	4.711423E-05
7.523409E+03	1.837428E-02	4.717005E-05
7.533334E+03	1.839891E-02	4.723331E-05
7.543260E+03	1.842646E-02	4.730406E-05
7.553185E+03	1.845695E-02	4.738233E-05
7.563110E+03	1.849004E-02	4.746731E-05
7.573036E+03	1.852609E-02	4.755987E-05
7.582961E+03	1.856513E-02	4.766011E-05
7.592886E+03	1.860685E-02	4.776724E-05
7.602812E+03	1.865200E-02	4.788317E-05
7.612737E+03	1.869995E-02	4.800629E-05
7.622662E+03	1.875113E-02	4.813771E-05
7.632588E+03	1.880526E-02	4.827669E-05
7.642513E+03	1.886305E-02	4.842505E-05
7.652438E+03	1.892378E-02	4.858100E-05
7.662364E+03	1.898772E-02	4.874515E-05
7.672289E+03	1.905468E-02	4.891708E-05
7.682214E+03	1.912407E-02	4.909523E-05
7.692140E+03	1.919584E-02	4.927951E-05
7.702065E+03	1.926957E-02	4.946880E-05
