#wls	flux	fluxerr
1.588055E+03	8.464077E-04	2.444483E-05
1.627756E+03	8.488568E-04	2.442933E-05
1.667457E+03	8.504724E-04	2.438721E-05
1.707159E+03	8.510521E-04	2.431287E-05
1.746860E+03	8.508410E-04	2.421358E-05
1.786561E+03	8.494255E-04	2.407782E-05
1.826263E+03	8.464810E-04	2.389680E-05
1.865964E+03	8.417880E-04	2.366486E-05
1.905666E+03	8.347963E-04	2.336720E-05
1.945367E+03	8.254109E-04	2.300203E-05
1.985068E+03	8.139392E-04	2.257881E-05
2.024770E+03	8.010602E-04	2.211714E-05
2.064471E+03	7.893914E-04	2.168956E-05
2.104172E+03	7.817002E-04	2.137132E-05
2.143874E+03	7.808930E-04	2.123986E-05
2.183575E+03	7.880655E-04	2.132190E-05
2.223277E+03	8.018151E-04	2.157614E-05
2.262978E+03	8.197959E-04	2.193672E-05
2.302679E+03	8.395835E-04	2.233699E-05
2.342381E+03	8.596484E-04	2.273542E-05
2.382082E+03	8.791009E-04	2.310820E-05
2.421783E+03	8.975974E-04	2.344641E-05
2.461485E+03	9.152559E-04	2.375331E-05
2.501186E+03	9.321755E-04	2.403164E-05
2.540887E+03	9.486538E-04	2.428914E-05
2.580589E+03	9.648308E-04	2.452937E-05
2.620290E+03	9.811336E-04	2.476302E-05
2.659992E+03	9.974933E-04	2.498806E-05
2.699693E+03	1.014435E-03	2.521726E-05
2.739394E+03	1.031835E-03	2.544695E-05
2.779096E+03	1.050161E-03	2.568807E-05
2.818797E+03	1.069246E-03	2.593572E-05
2.858498E+03	1.089665E-03	2.620295E-05
2.898200E+03	1.111361E-03	2.648728E-05
2.937901E+03	1.134710E-03	2.679647E-05
2.977602E+03	1.159917E-03	2.713384E-05
2.987528E+03	1.166542E-03	2.722317E-05
2.997453E+03	1.173219E-03	2.731266E-05
3.007378E+03	1.180093E-03	2.740562E-05
3.017304E+03	1.187169E-03	2.750214E-05
3.027229E+03	1.194320E-03	2.759929E-05
3.037155E+03	1.201716E-03	2.770089E-05
3.047080E+03	1.209201E-03	2.780337E-05
3.057005E+03	1.217054E-03	2.791308E-05
3.066931E+03	1.224979E-03	2.802319E-05
3.076856E+03	1.233255E-03	2.814002E-05
3.086781E+03	1.241587E-03	2.825681E-05
3.096707E+03	1.250111E-03	2.837663E-05
3.106632E+03	1.258962E-03	2.850248E-05
3.116557E+03	1.267849E-03	2.862774E-05
3.126483E+03	1.277049E-03	2.875863E-05
3.136408E+03	1.286415E-03	2.889176E-05
3.146333E+03	1.296081E-03	2.903011E-05
3.156259E+03	1.305760E-03	2.916724E-05
3.166184E+03	1.315728E-03	2.930923E-05
3.176109E+03	1.325977E-03	2.945588E-05
3.186035E+03	1.336365E-03	2.960396E-05
3.195960E+03	1.347023E-03	2.975635E-05
3.205885E+03	1.357947E-03	2.991289E-05
3.215811E+03	1.368995E-03	3.007040E-05
3.225736E+03	1.380435E-03	3.023472E-05
3.235661E+03	1.391988E-03	3.039967E-05
3.245587E+03	1.403788E-03	3.056814E-05
3.255512E+03	1.415962E-03	3.074284E-05
3.265437E+03	1.428371E-03	3.092068E-05
3.275363E+03	1.441011E-03	3.110148E-05
3.285288E+03	1.453875E-03	3.128510E-05
3.295213E+03	1.467095E-03	3.147424E-05
3.305139E+03	1.480529E-03	3.166585E-05
3.315064E+03	1.494307E-03	3.186263E-05
3.324989E+03	1.508423E-03	3.206434E-05
3.334915E+03	1.522869E-03	3.227079E-05
3.344840E+03	1.537642E-03	3.248179E-05
3.354765E+03	1.552607E-03	3.269443E-05
3.364691E+03	1.568016E-03	3.291397E-05
3.374616E+03	1.583864E-03	3.314019E-05
3.384541E+03	1.599886E-03	3.336747E-05
3.394467E+03	1.616336E-03	3.360101E-05
3.404392E+03	1.633205E-03	3.384058E-05
3.414318E+03	1.650360E-03	3.408331E-05
3.424243E+03	1.668049E-03	3.433421E-05
3.434168E+03	1.686012E-03	3.458784E-05
3.444094E+03	1.704494E-03	3.484915E-05
3.454019E+03	1.723238E-03	3.511276E-05
3.463944E+03	1.742487E-03	3.538355E-05
3.473870E+03	1.762232E-03	3.566124E-05
3.483795E+03	1.782344E-03	3.594305E-05
3.493720E+03	1.802937E-03	3.623124E-05
3.503646E+03	1.824005E-03	3.652554E-05
3.513571E+03	1.845540E-03	3.682568E-05
3.523496E+03	1.867533E-03	3.713137E-05
3.533422E+03	1.889977E-03	3.744236E-05
3.543347E+03	1.912985E-03	3.776076E-05
3.553272E+03	1.936547E-03	3.808623E-05
3.563198E+03	1.960536E-03	3.841617E-05
3.573123E+03	1.985180E-03	3.875491E-05
3.583048E+03	2.010235E-03	3.909752E-05
3.592974E+03	2.035927E-03	3.944831E-05
3.602899E+03	2.062128E-03	3.980466E-05
3.612824E+03	2.088833E-03	4.016628E-05
3.622750E+03	2.116146E-03	4.053511E-05
3.632675E+03	2.144174E-03	4.091299E-05
3.642600E+03	2.172675E-03	4.129518E-05
3.652526E+03	2.201758E-03	4.168357E-05
3.662451E+03	2.231524E-03	4.207997E-05
3.672376E+03	2.261850E-03	4.248187E-05
3.682302E+03	2.292841E-03	4.289110E-05
3.692227E+03	2.324373E-03	4.330517E-05
3.702152E+03	2.356661E-03	4.372794E-05
3.712078E+03	2.389470E-03	4.415488E-05
3.722003E+03	2.423014E-03	4.458977E-05
3.731928E+03	2.457280E-03	4.503221E-05
3.741854E+03	2.492149E-03	4.547984E-05
3.751779E+03	2.527611E-03	4.593231E-05
3.761704E+03	2.563873E-03	4.639323E-05
3.771630E+03	2.600708E-03	4.685829E-05
3.781555E+03	2.638322E-03	4.733104E-05
3.791480E+03	2.676597E-03	4.780916E-05
3.801406E+03	2.715522E-03	4.829232E-05
3.811331E+03	2.755088E-03	4.878016E-05
3.821257E+03	2.795497E-03	4.927608E-05
3.831182E+03	2.836527E-03	4.977597E-05
3.841107E+03	2.878168E-03	5.027951E-05
3.851033E+03	2.920622E-03	5.079002E-05
3.860958E+03	2.963669E-03	5.130352E-05
3.870883E+03	3.007508E-03	5.182325E-05
3.880809E+03	3.052027E-03	5.234709E-05
3.890734E+03	3.097113E-03	5.287296E-05
3.900659E+03	3.142964E-03	5.340407E-05
3.910585E+03	3.189469E-03	5.393833E-05
3.920510E+03	3.236621E-03	5.447547E-05
3.930435E+03	3.284513E-03	5.501686E-05
3.940361E+03	3.332937E-03	5.555887E-05
3.950286E+03	3.382087E-03	5.610456E-05
3.960211E+03	3.431857E-03	5.665200E-05
3.970137E+03	3.482142E-03	5.719932E-05
3.980062E+03	3.533134E-03	5.774953E-05
3.989987E+03	3.584635E-03	5.829920E-05
3.999913E+03	3.636735E-03	5.884970E-05
4.009838E+03	3.689433E-03	5.940084E-05
4.019763E+03	3.742534E-03	5.994935E-05
4.029689E+03	3.796227E-03	6.049815E-05
4.039614E+03	3.850416E-03	6.104558E-05
4.049539E+03	3.905099E-03	6.159149E-05
4.059465E+03	3.960183E-03	6.213428E-05
4.069390E+03	4.015669E-03	6.267391E-05
4.079315E+03	4.071560E-03	6.321031E-05
4.089241E+03	4.127766E-03	6.374201E-05
4.099166E+03	4.184383E-03	6.427043E-05
4.109091E+03	4.241230E-03	6.479270E-05
4.119017E+03	4.298315E-03	6.530892E-05
4.128942E+03	4.355737E-03	6.582052E-05
4.138867E+03	4.413227E-03	6.632343E-05
4.148793E+03	4.470980E-03	6.682055E-05
4.158718E+03	4.528731E-03	6.730790E-05
4.168643E+03	4.586674E-03	6.778841E-05
4.178569E+03	4.644641E-03	6.825955E-05
4.188494E+03	4.702556E-03	6.872025E-05
4.198419E+03	4.760434E-03	6.917080E-05
4.208345E+03	4.818203E-03	6.961018E-05
4.218270E+03	4.875879E-03	7.003873E-05
4.228196E+03	4.933304E-03	7.045423E-05
4.238121E+03	4.990587E-03	7.085834E-05
4.248046E+03	5.047570E-03	7.124893E-05
4.257972E+03	5.104190E-03	7.162524E-05
4.267897E+03	5.160469E-03	7.198775E-05
4.277822E+03	5.216258E-03	7.233450E-05
4.287748E+03	5.271582E-03	7.266604E-05
4.297673E+03	5.326381E-03	7.298174E-05
4.307598E+03	5.380595E-03	7.328098E-05
4.317524E+03	5.434168E-03	7.356321E-05
4.327449E+03	5.487042E-03	7.382789E-05
4.337374E+03	5.539246E-03	7.407569E-05
4.347300E+03	5.590555E-03	7.430385E-05
4.357225E+03	5.641087E-03	7.451422E-05
4.367150E+03	5.690786E-03	7.470637E-05
4.377076E+03	5.739516E-03	7.487883E-05
4.387001E+03	5.787392E-03	7.503341E-05
4.396926E+03	5.834362E-03	7.516975E-05
4.406852E+03	5.880290E-03	7.528645E-05
4.416777E+03	5.925290E-03	7.538532E-05
4.426702E+03	5.969392E-03	7.546707E-05
4.436628E+03	6.012462E-03	7.553035E-05
4.446553E+03	6.054527E-03	7.557587E-05
4.456478E+03	6.095537E-03	7.560336E-05
4.466404E+03	6.135518E-03	7.561353E-05
4.476329E+03	6.174498E-03	7.560709E-05
4.486254E+03	6.212505E-03	7.558474E-05
4.496180E+03	6.249479E-03	7.554614E-05
4.506105E+03	6.285448E-03	7.549197E-05
4.516030E+03	6.320593E-03	7.542482E-05
4.525956E+03	6.354776E-03	7.534333E-05
4.535881E+03	6.388178E-03	7.525003E-05
4.545806E+03	6.420734E-03	7.514449E-05
4.555732E+03	6.452624E-03	7.502914E-05
4.565657E+03	6.483699E-03	7.490256E-05
4.575582E+03	6.514136E-03	7.476713E-05
4.585508E+03	6.543944E-03	7.462325E-05
4.595433E+03	6.573214E-03	7.447225E-05
4.605358E+03	6.601954E-03	7.431451E-05
4.615284E+03	6.630169E-03	7.415037E-05
4.625209E+03	6.657946E-03	7.398107E-05
4.635135E+03	6.685367E-03	7.380780E-05
4.645060E+03	6.712434E-03	7.363082E-05
4.654985E+03	6.739228E-03	7.345128E-05
4.664911E+03	6.765830E-03	7.327026E-05
4.674836E+03	6.792318E-03	7.308886E-05
4.684761E+03	6.818772E-03	7.290813E-05
4.694687E+03	6.845190E-03	7.272823E-05
4.704612E+03	6.871651E-03	7.255021E-05
4.714537E+03	6.898397E-03	7.237678E-05
4.724463E+03	6.925508E-03	7.220893E-05
4.734388E+03	6.952988E-03	7.204680E-05
4.744313E+03	6.981003E-03	7.189227E-05
4.754239E+03	7.009642E-03	7.174631E-05
4.764164E+03	7.038917E-03	7.160916E-05
4.774089E+03	7.068761E-03	7.148022E-05
4.784015E+03	7.099110E-03	7.135896E-05
4.793940E+03	7.129983E-03	7.124571E-05
4.803865E+03	7.161318E-03	7.113996E-05
4.813791E+03	7.193137E-03	7.104207E-05
4.823716E+03	7.225455E-03	7.095232E-05
4.833641E+03	7.258199E-03	7.087015E-05
4.843567E+03	7.291371E-03	7.079572E-05
4.853492E+03	7.324961E-03	7.072907E-05
4.863417E+03	7.358954E-03	7.067001E-05
4.873343E+03	7.393329E-03	7.061833E-05
4.883268E+03	7.427981E-03	7.057297E-05
4.893193E+03	7.462973E-03	7.053451E-05
4.903119E+03	7.498286E-03	7.050274E-05
4.913044E+03	7.533909E-03	7.047751E-05
4.922969E+03	7.569747E-03	7.045788E-05
4.932895E+03	7.605964E-03	7.044522E-05
4.942820E+03	7.642394E-03	7.043781E-05
4.952745E+03	7.679208E-03	7.043702E-05
4.962671E+03	7.716329E-03	7.044195E-05
4.972596E+03	7.753765E-03	7.045248E-05
4.982521E+03	7.791613E-03	7.046926E-05
4.992447E+03	7.829886E-03	7.049219E-05
5.002372E+03	7.868429E-03	7.051963E-05
5.012297E+03	7.907508E-03	7.055377E-05
5.022223E+03	7.947056E-03	7.059373E-05
5.032148E+03	7.987001E-03	7.063862E-05
5.042074E+03	8.027441E-03	7.068909E-05
5.051999E+03	8.068476E-03	7.074574E-05
5.061924E+03	8.109948E-03	7.080691E-05
5.071850E+03	8.152040E-03	7.087394E-05
5.081775E+03	8.194678E-03	7.094591E-05
5.091700E+03	8.237959E-03	7.102337E-05
5.101626E+03	8.281806E-03	7.110537E-05
5.111551E+03	8.326225E-03	7.119169E-05
5.121476E+03	8.371312E-03	7.128285E-05
5.131402E+03	8.417073E-03	7.137861E-05
5.141327E+03	8.463515E-03	7.147873E-05
5.151252E+03	8.510552E-03	7.158216E-05
5.161178E+03	8.558278E-03	7.168942E-05
5.171103E+03	8.606782E-03	7.180093E-05
5.181028E+03	8.655889E-03	7.191491E-05
5.190954E+03	8.705684E-03	7.203179E-05
5.200879E+03	8.756271E-03	7.215209E-05
5.210804E+03	8.807548E-03	7.227465E-05
5.220730E+03	8.859506E-03	7.239909E-05
5.230655E+03	8.912163E-03	7.252524E-05
5.240580E+03	8.965590E-03	7.265336E-05
5.250506E+03	9.019708E-03	7.278248E-05
5.260431E+03	9.074500E-03	7.291215E-05
5.270356E+03	9.130062E-03	7.304283E-05
5.280282E+03	9.186291E-03	7.317334E-05
5.290207E+03	9.243290E-03	7.330422E-05
5.300132E+03	9.300938E-03	7.343415E-05
5.310058E+03	9.359349E-03	7.356373E-05
5.319983E+03	9.418408E-03	7.369172E-05
5.329908E+03	9.478203E-03	7.381850E-05
5.339834E+03	9.538743E-03	7.394381E-05
5.349759E+03	9.599913E-03	7.406643E-05
5.359684E+03	9.661721E-03	7.418610E-05
5.369610E+03	9.724246E-03	7.430314E-05
5.379535E+03	9.787498E-03	7.441727E-05
5.389460E+03	9.851261E-03	7.452654E-05
5.399386E+03	9.915838E-03	7.463295E-05
5.409311E+03	9.980925E-03	7.473388E-05
5.419237E+03	1.004671E-02	7.483042E-05
5.429162E+03	1.011310E-02	7.492160E-05
5.439087E+03	1.018019E-02	7.500783E-05
5.449013E+03	1.024787E-02	7.508793E-05
5.458938E+03	1.031614E-02	7.516167E-05
5.468863E+03	1.038510E-02	7.522947E-05
5.478789E+03	1.045465E-02	7.529030E-05
5.488714E+03	1.052480E-02	7.534385E-05
5.498639E+03	1.059562E-02	7.539056E-05
5.508565E+03	1.066715E-02	7.543018E-05
5.518490E+03	1.073915E-02	7.546095E-05
5.528415E+03	1.081186E-02	7.548412E-05
5.538341E+03	1.088527E-02	7.549940E-05
5.548266E+03	1.095915E-02	7.550500E-05
5.558191E+03	1.103375E-02	7.550230E-05
5.568117E+03	1.110905E-02	7.549101E-05
5.578042E+03	1.118485E-02	7.546939E-05
5.587967E+03	1.126149E-02	7.543959E-05
5.597893E+03	1.133862E-02	7.539904E-05
5.607818E+03	1.141638E-02	7.534840E-05
5.617743E+03	1.149488E-02	7.528820E-05
5.627669E+03	1.157401E-02	7.521752E-05
5.637594E+03	1.165390E-02	7.513701E-05
5.647519E+03	1.173433E-02	7.504501E-05
5.657445E+03	1.181553E-02	7.494296E-05
5.667370E+03	1.189727E-02	7.482913E-05
5.677295E+03	1.197970E-02	7.470431E-05
5.687221E+03	1.206292E-02	7.456908E-05
5.697146E+03	1.214671E-02	7.442188E-05
5.707071E+03	1.223108E-02	7.426276E-05
5.716997E+03	1.231629E-02	7.409310E-05
5.726922E+03	1.240208E-02	7.391139E-05
5.736847E+03	1.248847E-02	7.371764E-05
5.746773E+03	1.257547E-02	7.351194E-05
5.756698E+03	1.266320E-02	7.329502E-05
5.766623E+03	1.275155E-02	7.306620E-05
5.776549E+03	1.284052E-02	7.282561E-05
5.786474E+03	1.293011E-02	7.257334E-05
5.796399E+03	1.302020E-02	7.230884E-05
5.806325E+03	1.311103E-02	7.203363E-05
5.816250E+03	1.320237E-02	7.174656E-05
5.826176E+03	1.329420E-02	7.144786E-05
5.836101E+03	1.338663E-02	7.113841E-05
5.846026E+03	1.347954E-02	7.081788E-05
5.855952E+03	1.357293E-02	7.048660E-05
5.865877E+03	1.366677E-02	7.014491E-05
5.875802E+03	1.376104E-02	6.979324E-05
5.885728E+03	1.385573E-02	6.943204E-05
5.895653E+03	1.395084E-02	6.906190E-05
5.905578E+03	1.404632E-02	6.868331E-05
5.915504E+03	1.414189E-02	6.829562E-05
5.925429E+03	1.423792E-02	6.790146E-05
5.935354E+03	1.433412E-02	6.750037E-05
5.945280E+03	1.443044E-02	6.709309E-05
5.955205E+03	1.452684E-02	6.668058E-05
5.965130E+03	1.462331E-02	6.626391E-05
5.975056E+03	1.471979E-02	6.584407E-05
5.984981E+03	1.481609E-02	6.542166E-05
5.994906E+03	1.491232E-02	6.499862E-05
6.004832E+03	1.500843E-02	6.457632E-05
6.014757E+03	1.510410E-02	6.415507E-05
6.024682E+03	1.519956E-02	6.373769E-05
6.034608E+03	1.529450E-02	6.332479E-05
6.044533E+03	1.538902E-02	6.291884E-05
6.054458E+03	1.548294E-02	6.252125E-05
6.064384E+03	1.557640E-02	6.213484E-05
6.074309E+03	1.566907E-02	6.176069E-05
6.084234E+03	1.576127E-02	6.140250E-05
6.094160E+03	1.585285E-02	6.106220E-05
6.104085E+03	1.594400E-02	6.074321E-05
6.114010E+03	1.603476E-02	6.044833E-05
6.123936E+03	1.612533E-02	6.018106E-05
6.133861E+03	1.621595E-02	5.994503E-05
6.143786E+03	1.630666E-02	5.974318E-05
6.153712E+03	1.639717E-02	5.957732E-05
6.163637E+03	1.648750E-02	5.945031E-05
6.173562E+03	1.657758E-02	5.936472E-05
6.183488E+03	1.666729E-02	5.932295E-05
6.193413E+03	1.675647E-02	5.932713E-05
6.203338E+03	1.684489E-02	5.937913E-05
6.213264E+03	1.693229E-02	5.948056E-05
6.223189E+03	1.701838E-02	5.963276E-05
6.233115E+03	1.710319E-02	5.983774E-05
6.243040E+03	1.718609E-02	6.009303E-05
6.252965E+03	1.726733E-02	6.039843E-05
6.262891E+03	1.734625E-02	6.075037E-05
6.272816E+03	1.742280E-02	6.114705E-05
6.282741E+03	1.749671E-02	6.158580E-05
6.292667E+03	1.756811E-02	6.206513E-05
6.302592E+03	1.763641E-02	6.258080E-05
6.312517E+03	1.770159E-02	6.313044E-05
6.322443E+03	1.776345E-02	6.371091E-05
6.332368E+03	1.782179E-02	6.431896E-05
6.342293E+03	1.787661E-02	6.495197E-05
6.352219E+03	1.792759E-02	6.560603E-05
6.362144E+03	1.797474E-02	6.627849E-05
6.372069E+03	1.801775E-02	6.696539E-05
6.381995E+03	1.805652E-02	6.766353E-05
6.391920E+03	1.809095E-02	6.836975E-05
6.401845E+03	1.812099E-02	6.908107E-05
6.411771E+03	1.814643E-02	6.979390E-05
6.421696E+03	1.816724E-02	7.050543E-05
6.431621E+03	1.818345E-02	7.121301E-05
6.441547E+03	1.819491E-02	7.191343E-05
6.451472E+03	1.820167E-02	7.260425E-05
6.461397E+03	1.820360E-02	7.328250E-05
6.471323E+03	1.820135E-02	7.394832E-05
6.481248E+03	1.819481E-02	7.459895E-05
6.491173E+03	1.818446E-02	7.523417E-05
6.501099E+03	1.817037E-02	7.585219E-05
6.511024E+03	1.815266E-02	7.645152E-05
6.520949E+03	1.813160E-02	7.703145E-05
6.530875E+03	1.810731E-02	7.759067E-05
6.540800E+03	1.808007E-02	7.812874E-05
6.550725E+03	1.804999E-02	7.864461E-05
6.560651E+03	1.801716E-02	7.913722E-05
6.570576E+03	1.798189E-02	7.960655E-05
6.580501E+03	1.794408E-02	8.005087E-05
6.590427E+03	1.790403E-02	8.047040E-05
6.600352E+03	1.786183E-02	8.086444E-05
6.610277E+03	1.781760E-02	8.123250E-05
6.620203E+03	1.777141E-02	8.157404E-05
6.630128E+03	1.772339E-02	8.188872E-05
6.640054E+03	1.767362E-02	8.217621E-05
6.649979E+03	1.762222E-02	8.243626E-05
6.659904E+03	1.756924E-02	8.266860E-05
6.669830E+03	1.751502E-02	8.287414E-05
6.679755E+03	1.745944E-02	8.305184E-05
6.689680E+03	1.740279E-02	8.320261E-05
6.699606E+03	1.734497E-02	8.332561E-05
6.709531E+03	1.728605E-02	8.342081E-05
6.719456E+03	1.722615E-02	8.348846E-05
6.729382E+03	1.716574E-02	8.353062E-05
6.739307E+03	1.710431E-02	8.354460E-05
6.749232E+03	1.704235E-02	8.353264E-05
6.759158E+03	1.697995E-02	8.349497E-05
6.769083E+03	1.691697E-02	8.343098E-05
6.779008E+03	1.685352E-02	8.334101E-05
6.788934E+03	1.679007E-02	8.322742E-05
6.798859E+03	1.672610E-02	8.308766E-05
6.808784E+03	1.666227E-02	8.292508E-05
6.818710E+03	1.659827E-02	8.273821E-05
6.828635E+03	1.653439E-02	8.252853E-05
6.838560E+03	1.647049E-02	8.229547E-05
6.848486E+03	1.640683E-02	8.204055E-05
6.858411E+03	1.634349E-02	8.176429E-05
6.868336E+03	1.628033E-02	8.146623E-05
6.878262E+03	1.621781E-02	8.114883E-05
6.888187E+03	1.615562E-02	8.081071E-05
6.898112E+03	1.609399E-02	8.045340E-05
6.908038E+03	1.603281E-02	8.007649E-05
6.917963E+03	1.597251E-02	7.968243E-05
6.927888E+03	1.591276E-02	7.926992E-05
6.937814E+03	1.585381E-02	7.884042E-05
6.947739E+03	1.579591E-02	7.839551E-05
6.957664E+03	1.573872E-02	7.793382E-05
6.967590E+03	1.568247E-02	7.745689E-05
6.977515E+03	1.562722E-02	7.696526E-05
6.987440E+03	1.557282E-02	7.645859E-05
6.997366E+03	1.551969E-02	7.593936E-05
7.007291E+03	1.546768E-02	7.540715E-05
7.017216E+03	1.541683E-02	7.486258E-05
7.027142E+03	1.536737E-02	7.430713E-05
7.037067E+03	1.531893E-02	7.373950E-05
7.046993E+03	1.527177E-02	7.316127E-05
7.056918E+03	1.522608E-02	7.257389E-05
7.066843E+03	1.518151E-02	7.197615E-05
7.076769E+03	1.513846E-02	7.137041E-05
7.086694E+03	1.509699E-02	7.075739E-05
7.096619E+03	1.505669E-02	7.013578E-05
7.106545E+03	1.501799E-02	6.950811E-05
7.116470E+03	1.498070E-02	6.887404E-05
7.126395E+03	1.494505E-02	6.823522E-05
7.136321E+03	1.491083E-02	6.759134E-05
7.146246E+03	1.487808E-02	6.694325E-05
7.156171E+03	1.484697E-02	6.629243E-05
7.166097E+03	1.481753E-02	6.563969E-05
7.176022E+03	1.478955E-02	6.498496E-05
7.185947E+03	1.476325E-02	6.433000E-05
7.195873E+03	1.473841E-02	6.367477E-05
7.205798E+03	1.471524E-02	6.302110E-05
7.215723E+03	1.469374E-02	6.236999E-05
7.225649E+03	1.467370E-02	6.172161E-05
7.235574E+03	1.465531E-02	6.107798E-05
7.245499E+03	1.463856E-02	6.044024E-05
7.255425E+03	1.462345E-02	5.980970E-05
7.265350E+03	1.460997E-02	5.918768E-05
7.275275E+03	1.459790E-02	5.857491E-05
7.285201E+03	1.458745E-02	5.797374E-05
7.295126E+03	1.457878E-02	5.738652E-05
7.305051E+03	1.457171E-02	5.681436E-05
7.314977E+03	1.456601E-02	5.625833E-05
7.324902E+03	1.456230E-02	5.572279E-05
7.334827E+03	1.456015E-02	5.520835E-05
7.344753E+03	1.455959E-02	5.471734E-05
7.354678E+03	1.456102E-02	5.425366E-05
7.364603E+03	1.456445E-02	5.381991E-05
7.374529E+03	1.456972E-02	5.341806E-05
7.384454E+03	1.457727E-02	5.305246E-05
7.394379E+03	1.458654E-02	5.272398E-05
7.404305E+03	1.459802E-02	5.243723E-05
7.414230E+03	1.461137E-02	5.219409E-05
7.424156E+03	1.462690E-02	5.199876E-05
7.434081E+03	1.464434E-02	5.185337E-05
7.444006E+03	1.466401E-02	5.176225E-05
7.453932E+03	1.468585E-02	5.172831E-05
7.463857E+03	1.471018E-02	5.175591E-05
7.473782E+03	1.473696E-02	5.184791E-05
7.483708E+03	1.476626E-02	5.200765E-05
7.493633E+03	1.479794E-02	5.223757E-05
7.503558E+03	1.483244E-02	5.254198E-05
7.513484E+03	1.486930E-02	5.292197E-05
7.523409E+03	1.490866E-02	5.338025E-05
7.533334E+03	1.495021E-02	5.391625E-05
7.543260E+03	1.499404E-02	5.452978E-05
7.553185E+03	1.504003E-02	5.521977E-05
7.563110E+03	1.508786E-02	5.598419E-05
7.573036E+03	1.513742E-02	5.682158E-05
7.582961E+03	1.518884E-02	5.773122E-05
7.592886E+03	1.524162E-02	5.871002E-05
7.602812E+03	1.529613E-02	5.975790E-05
7.612737E+03	1.535234E-02	6.087329E-05
7.622662E+03	1.540978E-02	6.205295E-05
7.632588E+03	1.546887E-02	6.329685E-05
7.642513E+03	1.552917E-02	6.460181E-05
7.652438E+03	1.559111E-02	6.596794E-05
7.662364E+03	1.565449E-02	6.739301E-05
7.672289E+03	1.571954E-02	6.887647E-05
7.682214E+03	1.578583E-02	7.041514E-05
7.692140E+03	1.585383E-02	7.200970E-05
7.702065E+03	1.592334E-02	7.365798E-05
