#wls	flux	fluxerr
1.588055E+03	4.660671E-04	1.144357E-05
1.627756E+03	4.669290E-04	1.144527E-05
1.667457E+03	4.672022E-04	1.143196E-05
1.707159E+03	4.670336E-04	1.140731E-05
1.746860E+03	4.662241E-04	1.136651E-05
1.786561E+03	4.647263E-04	1.130848E-05
1.826263E+03	4.623728E-04	1.122925E-05
1.865964E+03	4.590449E-04	1.112606E-05
1.905666E+03	4.543888E-04	1.099049E-05
1.945367E+03	4.484360E-04	1.082351E-05
1.985068E+03	4.412120E-04	1.062595E-05
2.024770E+03	4.332728E-04	1.041138E-05
2.064471E+03	4.258042E-04	1.020837E-05
2.104172E+03	4.205390E-04	1.005831E-05
2.143874E+03	4.188825E-04	9.994353E-06
2.183575E+03	4.213946E-04	1.002920E-05
2.223277E+03	4.273078E-04	1.014387E-05
2.262978E+03	4.352748E-04	1.030579E-05
2.302679E+03	4.440707E-04	1.048561E-05
2.342381E+03	4.528145E-04	1.066238E-05
2.382082E+03	4.610529E-04	1.082542E-05
2.421783E+03	4.685559E-04	1.096937E-05
2.461485E+03	4.754045E-04	1.109625E-05
2.501186E+03	4.816811E-04	1.120805E-05
2.540887E+03	4.874916E-04	1.130732E-05
2.580589E+03	4.929414E-04	1.139655E-05
2.620290E+03	4.981254E-04	1.147798E-05
2.659992E+03	5.031259E-04	1.155350E-05
2.699693E+03	5.080888E-04	1.162648E-05
2.739394E+03	5.129208E-04	1.169474E-05
2.779096E+03	5.178243E-04	1.176289E-05
2.818797E+03	5.227665E-04	1.183011E-05
2.858498E+03	5.278611E-04	1.189894E-05
2.898200E+03	5.330655E-04	1.196832E-05
2.937901E+03	5.384101E-04	1.203888E-05
2.977602E+03	5.439996E-04	1.211286E-05
2.987528E+03	5.454026E-04	1.213115E-05
2.997453E+03	5.468850E-04	1.215107E-05
3.007378E+03	5.482945E-04	1.216923E-05
3.017304E+03	5.497873E-04	1.218911E-05
3.027229E+03	5.512981E-04	1.220925E-05
3.037155E+03	5.528383E-04	1.222989E-05
3.047080E+03	5.544809E-04	1.225265E-05
3.057005E+03	5.560702E-04	1.227409E-05
3.066931E+03	5.577565E-04	1.229752E-05
3.076856E+03	5.593843E-04	1.231951E-05
3.086781E+03	5.611047E-04	1.234339E-05
3.096707E+03	5.629160E-04	1.236910E-05
3.106632E+03	5.646632E-04	1.239325E-05
3.116557E+03	5.664217E-04	1.241749E-05
3.126483E+03	5.682669E-04	1.244347E-05
3.136408E+03	5.701212E-04	1.246948E-05
3.146333E+03	5.719068E-04	1.249382E-05
3.156259E+03	5.738535E-04	1.252151E-05
3.166184E+03	5.757305E-04	1.254751E-05
3.176109E+03	5.776139E-04	1.257348E-05
3.186035E+03	5.795805E-04	1.260109E-05
3.195960E+03	5.815531E-04	1.262865E-05
3.205885E+03	5.834548E-04	1.265450E-05
3.215811E+03	5.855165E-04	1.268364E-05
3.225736E+03	5.875073E-04	1.271106E-05
3.235661E+03	5.895044E-04	1.273843E-05
3.245587E+03	5.915852E-04	1.276743E-05
3.255512E+03	5.935957E-04	1.279472E-05
3.265437E+03	5.956908E-04	1.282366E-05
3.275363E+03	5.977936E-04	1.285256E-05
3.285288E+03	5.999819E-04	1.288311E-05
3.295213E+03	6.021018E-04	1.291200E-05
3.305139E+03	6.042310E-04	1.294090E-05
3.315064E+03	6.064477E-04	1.297147E-05
3.324989E+03	6.086752E-04	1.300206E-05
3.334915E+03	6.109140E-04	1.303270E-05
3.344840E+03	6.131650E-04	1.306339E-05
3.354765E+03	6.154288E-04	1.309415E-05
3.364691E+03	6.177840E-04	1.312665E-05
3.374616E+03	6.201537E-04	1.315924E-05
3.384541E+03	6.224611E-04	1.319029E-05
3.394467E+03	6.248623E-04	1.322311E-05
3.404392E+03	6.272807E-04	1.325608E-05
3.414318E+03	6.297948E-04	1.329085E-05
3.424243E+03	6.322499E-04	1.332415E-05
3.434168E+03	6.348027E-04	1.335928E-05
3.444094E+03	6.372981E-04	1.339298E-05
3.454019E+03	6.398932E-04	1.342853E-05
3.463944E+03	6.425108E-04	1.346433E-05
3.473870E+03	6.451518E-04	1.350037E-05
3.483795E+03	6.478958E-04	1.353833E-05
3.493720E+03	6.505867E-04	1.357493E-05
3.503646E+03	6.533825E-04	1.361347E-05
3.513571E+03	6.562058E-04	1.365233E-05
3.523496E+03	6.590573E-04	1.369152E-05
3.533422E+03	6.619384E-04	1.373107E-05
3.543347E+03	6.648496E-04	1.377098E-05
3.553272E+03	6.677923E-04	1.381128E-05
3.563198E+03	6.708464E-04	1.385362E-05
3.573123E+03	6.738547E-04	1.389473E-05
3.583048E+03	6.769768E-04	1.393792E-05
3.592974E+03	6.801343E-04	1.398155E-05
3.602899E+03	6.833284E-04	1.402566E-05
3.612824E+03	6.865601E-04	1.407024E-05
3.622750E+03	6.898303E-04	1.411533E-05
3.632675E+03	6.931401E-04	1.416093E-05
3.642600E+03	6.965708E-04	1.420869E-05
3.652526E+03	7.000434E-04	1.425701E-05
3.662451E+03	7.034787E-04	1.430426E-05
3.672376E+03	7.070384E-04	1.435372E-05
3.682302E+03	7.106432E-04	1.440379E-05
3.692227E+03	7.142943E-04	1.445447E-05
3.702152E+03	7.179928E-04	1.450578E-05
3.712078E+03	7.218209E-04	1.455937E-05
3.722003E+03	7.256177E-04	1.461200E-05
3.731928E+03	7.295466E-04	1.466695E-05
3.741854E+03	7.334461E-04	1.472096E-05
3.751779E+03	7.374804E-04	1.477732E-05
3.761704E+03	7.415692E-04	1.483441E-05
3.771630E+03	7.457138E-04	1.489226E-05
3.781555E+03	7.499152E-04	1.495088E-05
3.791480E+03	7.541747E-04	1.501028E-05
3.801406E+03	7.584937E-04	1.507049E-05
3.811331E+03	7.628732E-04	1.513152E-05
3.821257E+03	7.673976E-04	1.519503E-05
3.831182E+03	7.719022E-04	1.525775E-05
3.841107E+03	7.765548E-04	1.532300E-05
3.851033E+03	7.811897E-04	1.538749E-05
3.860958E+03	7.859757E-04	1.545455E-05
3.870883E+03	7.908304E-04	1.552253E-05
3.880809E+03	7.956707E-04	1.558981E-05
3.890734E+03	8.006669E-04	1.565971E-05
3.900659E+03	8.057364E-04	1.573061E-05
3.910585E+03	8.108793E-04	1.580250E-05
3.920510E+03	8.160991E-04	1.587543E-05
3.930435E+03	8.213960E-04	1.594941E-05
3.940361E+03	8.267709E-04	1.602443E-05
3.950286E+03	8.322266E-04	1.610056E-05
3.960211E+03	8.377641E-04	1.617778E-05
3.970137E+03	8.434725E-04	1.625783E-05
3.980062E+03	8.491782E-04	1.633732E-05
3.989987E+03	8.549712E-04	1.641800E-05
3.999913E+03	8.608516E-04	1.649985E-05
4.009838E+03	8.669106E-04	1.658461E-05
4.019763E+03	8.729731E-04	1.666892E-05
4.029689E+03	8.791287E-04	1.675447E-05
4.039614E+03	8.854686E-04	1.684300E-05
4.049539E+03	8.918166E-04	1.693114E-05
4.059465E+03	8.983528E-04	1.702230E-05
4.069390E+03	9.048999E-04	1.711311E-05
4.079315E+03	9.115486E-04	1.720527E-05
4.089241E+03	9.183928E-04	1.730054E-05
4.099166E+03	9.252518E-04	1.739551E-05
4.109091E+03	9.322189E-04	1.749192E-05
4.119017E+03	9.393889E-04	1.759153E-05
4.128942E+03	9.465776E-04	1.769088E-05
4.138867E+03	9.538809E-04	1.779176E-05
4.148793E+03	9.612990E-04	1.789416E-05
4.158718E+03	9.689304E-04	1.799988E-05
4.168643E+03	9.765872E-04	1.810543E-05
4.178569E+03	9.843670E-04	1.821261E-05
4.188494E+03	9.922702E-04	1.832141E-05
4.198419E+03	1.000300E-03	1.843189E-05
4.208345E+03	1.008459E-03	1.854405E-05
4.218270E+03	1.016749E-03	1.865794E-05
4.228196E+03	1.025172E-03	1.877356E-05
4.238121E+03	1.033732E-03	1.889097E-05
4.248046E+03	1.042330E-03	1.900837E-05
4.257972E+03	1.051167E-03	1.912939E-05
4.267897E+03	1.060146E-03	1.925227E-05
4.277822E+03	1.069170E-03	1.937521E-05
4.287748E+03	1.078341E-03	1.950006E-05
4.297673E+03	1.087762E-03	1.962866E-05
4.307598E+03	1.097234E-03	1.975740E-05
4.317524E+03	1.106860E-03	1.988812E-05
4.327449E+03	1.116643E-03	2.002087E-05
4.337374E+03	1.126584E-03	2.015565E-05
4.347300E+03	1.136687E-03	2.029249E-05
4.357225E+03	1.146955E-03	2.043146E-05
4.367150E+03	1.157284E-03	2.057066E-05
4.377076E+03	1.167888E-03	2.071391E-05
4.387001E+03	1.178557E-03	2.085743E-05
4.396926E+03	1.189399E-03	2.100317E-05
4.406852E+03	1.200526E-03	2.115305E-05
4.416777E+03	1.211725E-03	2.130329E-05
4.426702E+03	1.222996E-03	2.145389E-05
4.436628E+03	1.234560E-03	2.160873E-05
4.446553E+03	1.246312E-03	2.176592E-05
4.456478E+03	1.258141E-03	2.192352E-05
4.466404E+03	1.270275E-03	2.208549E-05
4.476329E+03	1.282490E-03	2.224791E-05
4.486254E+03	1.294902E-03	2.241277E-05
4.496180E+03	1.307513E-03	2.258011E-05
4.506105E+03	1.320211E-03	2.274793E-05
4.516030E+03	1.333228E-03	2.292027E-05
4.525956E+03	1.346335E-03	2.309315E-05
4.535881E+03	1.359650E-03	2.326855E-05
4.545806E+03	1.373176E-03	2.344656E-05
4.555732E+03	1.386915E-03	2.362715E-05
4.565657E+03	1.400871E-03	2.381037E-05
4.575582E+03	1.414923E-03	2.399416E-05
4.585508E+03	1.429317E-03	2.418267E-05
4.595433E+03	1.443809E-03	2.437177E-05
4.605358E+03	1.458526E-03	2.456355E-05
4.615284E+03	1.473340E-03	2.475588E-05
4.625209E+03	1.488508E-03	2.495304E-05
4.635135E+03	1.503776E-03	2.515075E-05
4.645060E+03	1.519274E-03	2.535117E-05
4.654985E+03	1.535002E-03	2.555429E-05
4.664911E+03	1.550961E-03	2.576012E-05
4.674836E+03	1.567153E-03	2.596865E-05
4.684761E+03	1.583444E-03	2.617764E-05
4.694687E+03	1.599966E-03	2.638929E-05
4.704612E+03	1.616718E-03	2.660357E-05
4.714537E+03	1.633702E-03	2.682046E-05
4.724463E+03	1.650777E-03	2.703766E-05
4.734388E+03	1.668218E-03	2.725964E-05
4.744313E+03	1.685745E-03	2.748182E-05
4.754239E+03	1.703349E-03	2.770406E-05
4.764164E+03	1.721312E-03	2.793093E-05
4.774089E+03	1.739343E-03	2.815770E-05
4.784015E+03	1.757725E-03	2.838891E-05
4.793940E+03	1.776163E-03	2.861980E-05
4.803865E+03	1.794643E-03	2.885016E-05
4.813791E+03	1.813452E-03	2.908461E-05
4.823716E+03	1.832284E-03	2.931820E-05
4.833641E+03	1.851276E-03	2.955313E-05
4.843567E+03	1.870426E-03	2.978939E-05
4.853492E+03	1.889594E-03	3.002472E-05
4.863417E+03	1.909102E-03	3.026426E-05
4.873343E+03	1.928653E-03	3.050329E-05
4.883268E+03	1.948418E-03	3.074449E-05
4.893193E+03	1.968247E-03	3.098553E-05
4.903119E+03	1.988476E-03	3.123167E-05
4.913044E+03	2.008794E-03	3.147802E-05
4.922969E+03	2.029375E-03	3.172731E-05
4.932895E+03	2.050065E-03	3.197712E-05
4.942820E+03	2.071207E-03	3.223279E-05
4.952745E+03	2.092480E-03	3.248931E-05
4.962671E+03	2.114061E-03	3.274942E-05
4.972596E+03	2.135962E-03	3.301331E-05
4.982521E+03	2.158020E-03	3.327844E-05
4.992447E+03	2.180418E-03	3.354762E-05
5.002372E+03	2.203164E-03	3.382096E-05
5.012297E+03	2.226270E-03	3.409859E-05
5.022223E+03	2.249747E-03	3.438065E-05
5.032148E+03	2.273422E-03	3.466446E-05
5.042074E+03	2.297484E-03	3.495291E-05
5.051999E+03	2.321758E-03	3.524326E-05
5.061924E+03	2.346623E-03	3.554126E-05
5.071850E+03	2.371715E-03	3.584135E-05
5.081775E+03	2.397232E-03	3.614649E-05
5.091700E+03	2.423182E-03	3.645676E-05
5.101626E+03	2.449575E-03	3.677226E-05
5.111551E+03	2.476225E-03	3.709018E-05
5.121476E+03	2.503336E-03	3.741352E-05
5.131402E+03	2.530915E-03	3.774238E-05
5.141327E+03	2.558772E-03	3.807384E-05
5.151252E+03	2.587318E-03	3.841400E-05
5.161178E+03	2.616157E-03	3.875693E-05
5.171103E+03	2.645501E-03	3.910574E-05
5.181028E+03	2.675150E-03	3.945741E-05
5.190954E+03	2.705533E-03	3.981824E-05
5.200879E+03	2.736235E-03	4.018207E-05
5.210804E+03	2.767478E-03	4.055212E-05
5.220730E+03	2.799054E-03	4.092526E-05
5.230655E+03	2.831407E-03	4.130799E-05
5.240580E+03	2.864107E-03	4.169395E-05
5.250506E+03	2.897382E-03	4.208643E-05
5.260431E+03	2.931244E-03	4.248552E-05
5.270356E+03	2.965472E-03	4.288799E-05
5.280282E+03	3.000299E-03	4.329718E-05
5.290207E+03	3.035738E-03	4.371319E-05
5.300132E+03	3.071799E-03	4.413611E-05
5.310058E+03	3.108490E-03	4.456601E-05
5.319983E+03	3.145578E-03	4.499949E-05
5.329908E+03	3.183310E-03	4.544005E-05
5.339834E+03	3.221698E-03	4.588777E-05
5.349759E+03	3.260750E-03	4.634273E-05
5.359684E+03	3.300221E-03	4.680138E-05
5.369610E+03	3.340628E-03	4.727099E-05
5.379535E+03	3.381468E-03	4.774437E-05
5.389460E+03	3.422740E-03	4.822146E-05
5.399386E+03	3.464979E-03	4.870976E-05
5.409311E+03	3.507663E-03	4.920184E-05
5.419237E+03	3.551064E-03	4.970147E-05
5.429162E+03	3.595191E-03	5.020872E-05
5.439087E+03	3.640054E-03	5.072363E-05
5.449013E+03	3.685661E-03	5.124625E-05
5.458938E+03	3.731732E-03	5.177265E-05
5.468863E+03	3.778557E-03	5.230677E-05
5.478789E+03	3.826143E-03	5.284866E-05
5.488714E+03	3.874497E-03	5.339833E-05
5.498639E+03	3.923326E-03	5.395168E-05
5.508565E+03	3.973235E-03	5.451698E-05
5.518490E+03	4.023624E-03	5.508590E-05
5.528415E+03	4.074802E-03	5.566261E-05
5.538341E+03	4.126457E-03	5.624282E-05
5.548266E+03	4.179225E-03	5.683510E-05
5.558191E+03	4.232473E-03	5.743077E-05
5.568117E+03	4.286523E-03	5.803413E-05
5.578042E+03	4.341378E-03	5.864517E-05
5.587967E+03	4.397041E-03	5.926386E-05
5.597893E+03	4.453517E-03	5.989018E-05
5.607818E+03	4.510462E-03	6.051944E-05
5.617743E+03	4.568214E-03	6.115613E-05
5.627669E+03	4.626775E-03	6.180019E-05
5.637594E+03	4.686145E-03	6.245158E-05
5.647519E+03	4.746324E-03	6.311020E-05
5.657445E+03	4.806942E-03	6.377108E-05
5.667370E+03	4.868727E-03	6.444384E-05
5.677295E+03	4.930939E-03	6.511856E-05
5.687221E+03	4.993940E-03	6.580001E-05
5.697146E+03	5.057724E-03	6.648803E-05
5.707071E+03	5.121895E-03	6.717738E-05
5.716997E+03	5.187223E-03	6.787807E-05
5.726922E+03	5.252912E-03	6.857965E-05
5.736847E+03	5.319343E-03	6.928704E-05
5.746773E+03	5.386507E-03	7.000006E-05
5.756698E+03	5.454390E-03	7.071848E-05
5.766623E+03	5.522978E-03	7.144206E-05
5.776549E+03	5.591830E-03	7.216505E-05
5.786474E+03	5.661779E-03	7.289817E-05
5.796399E+03	5.731944E-03	7.363002E-05
5.806325E+03	5.802734E-03	7.436583E-05
5.816250E+03	5.874128E-03	7.510528E-05
5.826176E+03	5.946100E-03	7.584802E-05
5.836101E+03	6.018626E-03	7.659370E-05
5.846026E+03	6.091212E-03	7.733601E-05
5.855952E+03	6.164754E-03	7.808632E-05
5.865877E+03	6.238285E-03	7.883233E-05
5.875802E+03	6.312233E-03	7.957949E-05
5.885728E+03	6.386566E-03	8.032736E-05
5.895653E+03	6.461243E-03	8.107541E-05
5.905578E+03	6.536223E-03	8.182313E-05
5.915504E+03	6.610958E-03	8.256367E-05
5.925429E+03	6.686407E-03	8.330905E-05
5.935354E+03	6.761504E-03	8.404597E-05
5.945280E+03	6.836704E-03	8.478012E-05
5.955205E+03	6.911955E-03	8.551089E-05
5.965130E+03	6.987197E-03	8.623757E-05
5.975056E+03	7.062372E-03	8.695950E-05
5.984981E+03	7.137420E-03	8.767595E-05
5.994906E+03	7.212273E-03	8.838617E-05
6.004832E+03	7.286309E-03	8.908258E-05
6.014757E+03	7.360565E-03	8.977796E-05
6.024682E+03	7.433846E-03	9.045779E-05
6.034608E+03	7.506634E-03	9.112806E-05
6.044533E+03	7.578850E-03	9.178788E-05
6.054458E+03	7.650412E-03	9.243636E-05
6.064384E+03	7.721236E-03	9.307260E-05
6.074309E+03	7.791234E-03	9.369564E-05
6.084234E+03	7.860314E-03	9.430452E-05
6.094160E+03	7.927776E-03	9.489098E-05
6.104085E+03	7.994735E-03	9.546853E-05
6.114010E+03	8.059870E-03	9.602151E-05
6.123936E+03	8.123690E-03	9.655620E-05
6.133861E+03	8.186720E-03	9.707899E-05
6.143786E+03	8.247601E-03	9.757392E-05
6.153712E+03	8.306850E-03	9.804733E-05
6.163637E+03	8.364356E-03	9.849812E-05
6.173562E+03	8.420011E-03	9.892520E-05
6.183488E+03	8.473120E-03	9.932065E-05
6.193413E+03	8.524996E-03	9.970009E-05
6.203338E+03	8.575011E-03	1.000564E-04
6.213264E+03	8.622523E-03	1.003822E-04
6.223189E+03	8.668878E-03	1.006935E-04
6.233115E+03	8.712768E-03	1.009752E-04
6.243040E+03	8.755556E-03	1.012435E-04
6.252965E+03	8.795923E-03	1.014831E-04
6.262891E+03	8.834567E-03	1.017024E-04
6.272816E+03	8.871520E-03	1.019019E-04
6.282741E+03	8.906814E-03	1.020821E-04
6.292667E+03	8.940484E-03	1.022435E-04
6.302592E+03	8.972566E-03	1.023866E-04
6.312517E+03	9.003097E-03	1.025117E-04
6.322443E+03	9.032111E-03	1.026195E-04
6.332368E+03	9.058948E-03	1.027024E-04
6.342293E+03	9.085043E-03	1.027769E-04
6.352219E+03	9.109738E-03	1.028354E-04
6.362144E+03	9.132362E-03	1.028706E-04
6.372069E+03	9.154369E-03	1.028987E-04
6.381995E+03	9.174380E-03	1.029043E-04
6.391920E+03	9.193144E-03	1.028960E-04
6.401845E+03	9.211414E-03	1.028822E-04
6.411771E+03	9.227805E-03	1.028473E-04
6.421696E+03	9.243066E-03	1.027998E-04
6.431621E+03	9.257239E-03	1.027402E-04
6.441547E+03	9.270364E-03	1.026689E-04
6.451472E+03	9.282480E-03	1.025865E-04
6.461397E+03	9.293627E-03	1.024933E-04
6.471323E+03	9.303842E-03	1.023898E-04
6.481248E+03	9.313168E-03	1.022765E-04
6.491173E+03	9.321640E-03	1.021537E-04
6.501099E+03	9.329299E-03	1.020219E-04
6.511024E+03	9.336180E-03	1.018815E-04
6.520949E+03	9.341594E-03	1.017250E-04
6.530875E+03	9.347035E-03	1.015687E-04
6.540800E+03	9.351810E-03	1.014050E-04
6.550725E+03	9.355227E-03	1.012264E-04
6.560651E+03	9.358780E-03	1.010491E-04
6.570576E+03	9.361045E-03	1.008577E-04
6.580501E+03	9.363518E-03	1.006684E-04
6.590427E+03	9.364771E-03	1.004656E-04
6.600352E+03	9.366301E-03	1.002657E-04
6.610277E+03	9.366677E-03	1.000530E-04
6.620203E+03	9.366663E-03	9.983596E-05
6.630128E+03	9.367028E-03	9.962261E-05
6.640054E+03	9.366333E-03	9.939765E-05
6.649979E+03	9.365345E-03	9.916923E-05
6.659904E+03	9.364094E-03	9.893766E-05
6.669830E+03	9.363346E-03	9.871101E-05
6.679755E+03	9.361659E-03	9.847402E-05
6.689680E+03	9.359796E-03	9.823477E-05
6.699606E+03	9.357789E-03	9.799354E-05
6.709531E+03	9.355662E-03	9.775060E-05
6.719456E+03	9.353445E-03	9.750622E-05
6.729382E+03	9.351164E-03	9.726067E-05
6.739307E+03	9.348844E-03	9.701418E-05
6.749232E+03	9.345773E-03	9.675938E-05
6.759158E+03	9.343452E-03	9.651179E-05
6.769083E+03	9.341168E-03	9.626401E-05
6.779008E+03	9.338943E-03	9.601624E-05
6.788934E+03	9.336803E-03	9.576871E-05
6.798859E+03	9.334028E-03	9.551408E-05
6.808784E+03	9.332122E-03	9.526770E-05
6.818710E+03	9.330365E-03	9.502218E-05
6.828635E+03	9.328038E-03	9.477020E-05
6.838560E+03	9.326643E-03	9.452702E-05
6.848486E+03	9.324716E-03	9.427777E-05
6.858411E+03	9.323761E-03	9.403765E-05
6.868336E+03	9.322312E-03	9.379185E-05
6.878262E+03	9.321870E-03	9.355546E-05
6.888187E+03	9.320970E-03	9.331376E-05
6.898112E+03	9.321113E-03	9.308177E-05
6.908038E+03	9.320829E-03	9.284478E-05
6.917963E+03	9.320876E-03	9.261036E-05
6.927888E+03	9.321269E-03	9.237866E-05
6.937814E+03	9.322769E-03	9.215716E-05
6.947739E+03	9.323898E-03	9.193126E-05
6.957664E+03	9.325414E-03	9.170843E-05
6.967590E+03	9.327330E-03	9.148880E-05
6.977515E+03	9.329658E-03	9.127247E-05
6.987440E+03	9.332408E-03	9.105954E-05
6.997366E+03	9.335591E-03	9.085010E-05
7.007291E+03	9.339217E-03	9.064426E-05
7.017216E+03	9.343294E-03	9.044207E-05
7.027142E+03	9.347831E-03	9.024363E-05
7.037067E+03	9.352835E-03	9.004900E-05
7.046993E+03	9.358313E-03	8.985825E-05
7.056918E+03	9.363517E-03	8.966421E-05
7.066843E+03	9.369959E-03	8.948139E-05
7.076769E+03	9.376889E-03	8.930259E-05
7.086694E+03	9.383556E-03	8.912068E-05
7.096619E+03	9.391473E-03	8.895006E-05
7.106545E+03	9.399886E-03	8.878356E-05
7.116470E+03	9.408034E-03	8.861403E-05
7.126395E+03	9.417439E-03	8.845583E-05
7.136321E+03	9.426575E-03	8.829463E-05
7.146246E+03	9.436200E-03	8.813759E-05
7.156171E+03	9.447075E-03	8.799182E-05
7.166097E+03	9.457666E-03	8.784304E-05
7.176022E+03	9.468730E-03	8.769834E-05
7.185947E+03	9.480259E-03	8.755768E-05
7.195873E+03	9.492244E-03	8.742102E-05
7.205798E+03	9.504673E-03	8.728828E-05
7.215723E+03	9.517534E-03	8.715939E-05
7.225649E+03	9.530813E-03	8.703427E-05
7.235574E+03	9.544495E-03	8.691282E-05
7.245499E+03	9.558561E-03	8.679494E-05
7.255425E+03	9.572992E-03	8.668050E-05
7.265350E+03	9.586982E-03	8.656228E-05
7.275275E+03	9.602072E-03	8.645429E-05
7.285201E+03	9.617455E-03	8.634929E-05
7.295126E+03	9.632312E-03	8.624001E-05
7.305051E+03	9.648188E-03	8.614039E-05
7.314977E+03	9.663468E-03	8.603608E-05
7.324902E+03	9.678904E-03	8.593390E-05
7.334827E+03	9.695252E-03	8.584063E-05
7.344753E+03	9.710877E-03	8.574188E-05
7.354678E+03	9.726526E-03	8.564439E-05
7.364603E+03	9.742147E-03	8.554781E-05
7.374529E+03	9.757686E-03	8.545179E-05
7.384454E+03	9.773081E-03	8.535591E-05
7.394379E+03	9.788269E-03	8.525974E-05
7.404305E+03	9.802372E-03	8.515579E-05
7.414230E+03	9.816933E-03	8.505762E-05
7.424156E+03	9.831064E-03	8.495766E-05
7.434081E+03	9.843865E-03	8.484829E-05
7.444006E+03	9.856875E-03	8.474296E-05
7.453932E+03	9.868365E-03	8.462696E-05
7.463857E+03	9.879046E-03	8.450659E-05
7.473782E+03	9.889634E-03	8.438812E-05
7.483708E+03	9.898370E-03	8.425673E-05
7.493633E+03	9.905960E-03	8.411866E-05
7.503558E+03	9.912411E-03	8.397412E-05
7.513484E+03	9.917837E-03	8.382414E-05
7.523409E+03	9.922345E-03	8.366959E-05
7.533334E+03	9.925213E-03	8.350436E-05
7.543260E+03	9.928197E-03	8.334317E-05
7.553185E+03	9.929730E-03	8.317282E-05
7.563110E+03	9.931563E-03	8.300793E-05
7.573036E+03	9.932113E-03	8.283518E-05
7.582961E+03	9.933125E-03	8.266907E-05
7.592886E+03	9.933004E-03	8.249624E-05
7.602812E+03	9.932652E-03	8.232414E-05
7.612737E+03	9.932132E-03	8.215319E-05
7.622662E+03	9.931504E-03	8.198384E-05
7.632588E+03	9.930825E-03	8.181644E-05
7.642513E+03	9.929306E-03	8.164445E-05
7.652438E+03	9.928674E-03	8.148198E-05
7.662364E+03	9.928134E-03	8.132241E-05
7.672289E+03	9.926889E-03	8.115912E-05
7.682214E+03	9.925815E-03	8.099923E-05
7.692140E+03	9.925794E-03	8.084983E-05
7.702065E+03	9.925171E-03	8.069737E-05
