#wls	flux	fluxerr
1.588055E+03	4.659967E-04	2.261122E-05
1.627756E+03	4.665187E-04	2.262566E-05
1.667457E+03	4.665356E-04	2.261526E-05
1.707159E+03	4.659524E-04	2.257544E-05
1.746860E+03	4.648138E-04	2.250841E-05
1.786561E+03	4.629932E-04	2.240807E-05
1.826263E+03	4.602456E-04	2.226261E-05
1.865964E+03	4.564585E-04	2.206668E-05
1.905666E+03	4.513606E-04	2.180726E-05
1.945367E+03	4.449134E-04	2.148259E-05
1.985068E+03	4.372238E-04	2.109796E-05
2.024770E+03	4.288460E-04	2.068024E-05
2.064471E+03	4.208830E-04	2.028263E-05
2.104172E+03	4.150487E-04	1.998766E-05
2.143874E+03	4.127890E-04	1.986470E-05
2.183575E+03	4.145702E-04	1.993580E-05
2.223277E+03	4.196159E-04	2.016321E-05
2.262978E+03	4.267273E-04	2.048899E-05
2.302679E+03	4.344825E-04	2.084466E-05
2.342381E+03	4.420839E-04	2.119187E-05
2.382082E+03	4.491611E-04	2.151286E-05
2.421783E+03	4.554156E-04	2.179338E-05
2.461485E+03	4.609307E-04	2.203747E-05
2.501186E+03	4.657882E-04	2.224911E-05
2.540887E+03	4.700925E-04	2.243333E-05
2.580589E+03	4.739466E-04	2.259509E-05
2.620290E+03	4.774429E-04	2.273882E-05
2.659992E+03	4.806601E-04	2.286830E-05
2.699693E+03	4.837415E-04	2.299033E-05
2.739394E+03	4.865886E-04	2.310025E-05
2.779096E+03	4.893240E-04	2.320387E-05
2.818797E+03	4.920629E-04	2.330664E-05
2.858498E+03	4.946846E-04	2.340281E-05
2.898200E+03	4.973700E-04	2.350094E-05
2.937901E+03	5.000668E-04	2.359850E-05
2.977602E+03	5.027962E-04	2.369647E-05
2.987528E+03	5.034547E-04	2.371966E-05
2.997453E+03	5.041887E-04	2.374633E-05
3.007378E+03	5.048450E-04	2.376927E-05
3.017304E+03	5.055799E-04	2.379584E-05
3.027229E+03	5.063270E-04	2.382290E-05
3.037155E+03	5.070200E-04	2.384734E-05
3.047080E+03	5.078085E-04	2.387619E-05
3.057005E+03	5.086134E-04	2.390573E-05
3.066931E+03	5.094319E-04	2.393584E-05
3.076856E+03	5.102618E-04	2.396640E-05
3.086781E+03	5.111010E-04	2.399731E-05
3.096707E+03	5.119476E-04	2.402848E-05
3.106632E+03	5.128001E-04	2.405985E-05
3.116557E+03	5.137335E-04	2.409493E-05
3.126483E+03	5.145936E-04	2.412648E-05
3.136408E+03	5.155323E-04	2.416163E-05
3.146333E+03	5.163958E-04	2.419316E-05
3.156259E+03	5.173362E-04	2.422821E-05
3.166184E+03	5.181998E-04	2.425957E-05
3.176109E+03	5.191393E-04	2.429439E-05
3.186035E+03	5.200775E-04	2.432907E-05
3.195960E+03	5.210144E-04	2.436358E-05
3.205885E+03	5.218730E-04	2.439435E-05
3.215811E+03	5.228064E-04	2.442851E-05
3.225736E+03	5.237378E-04	2.446250E-05
3.235661E+03	5.247439E-04	2.449987E-05
3.245587E+03	5.256717E-04	2.453349E-05
3.255512E+03	5.265978E-04	2.456693E-05
3.265437E+03	5.275223E-04	2.460020E-05
3.275363E+03	5.284456E-04	2.463332E-05
3.285288E+03	5.294443E-04	2.466985E-05
3.295213E+03	5.303658E-04	2.470269E-05
3.305139E+03	5.313635E-04	2.473897E-05
3.315064E+03	5.322846E-04	2.477159E-05
3.324989E+03	5.332825E-04	2.480768E-05
3.334915E+03	5.342811E-04	2.484370E-05
3.344840E+03	5.352810E-04	2.487967E-05
3.354765E+03	5.362059E-04	2.491205E-05
3.364691E+03	5.372093E-04	2.494798E-05
3.374616E+03	5.382153E-04	2.498392E-05
3.384541E+03	5.392243E-04	2.501988E-05
3.394467E+03	5.402369E-04	2.505591E-05
3.404392E+03	5.412533E-04	2.509200E-05
3.414318E+03	5.422742E-04	2.512820E-05
3.424243E+03	5.433766E-04	2.516805E-05
3.434168E+03	5.444079E-04	2.520450E-05
3.444094E+03	5.454452E-04	2.524111E-05
3.454019E+03	5.465654E-04	2.528144E-05
3.463944E+03	5.476161E-04	2.531844E-05
3.473870E+03	5.487507E-04	2.535920E-05
3.483795E+03	5.498166E-04	2.539667E-05
3.493720E+03	5.509675E-04	2.543794E-05
3.503646E+03	5.520507E-04	2.547596E-05
3.513571E+03	5.532199E-04	2.551783E-05
3.523496E+03	5.543989E-04	2.556003E-05
3.533422E+03	5.555115E-04	2.559904E-05
3.543347E+03	5.567114E-04	2.564195E-05
3.553272E+03	5.579226E-04	2.568525E-05
3.563198E+03	5.591454E-04	2.572895E-05
3.573123E+03	5.603803E-04	2.577307E-05
3.583048E+03	5.616277E-04	2.581764E-05
3.592974E+03	5.628879E-04	2.586266E-05
3.602899E+03	5.641616E-04	2.590816E-05
3.612824E+03	5.654489E-04	2.595416E-05
3.622750E+03	5.667504E-04	2.600066E-05
3.632675E+03	5.681434E-04	2.605122E-05
3.642600E+03	5.694743E-04	2.609878E-05
3.652526E+03	5.708206E-04	2.614691E-05
3.662451E+03	5.721825E-04	2.619561E-05
3.672376E+03	5.736375E-04	2.624842E-05
3.682302E+03	5.750318E-04	2.629830E-05
3.692227E+03	5.764429E-04	2.634880E-05
3.702152E+03	5.779483E-04	2.640345E-05
3.712078E+03	5.793939E-04	2.645522E-05
3.722003E+03	5.809346E-04	2.651117E-05
3.731928E+03	5.824161E-04	2.656425E-05
3.741854E+03	5.839934E-04	2.662155E-05
3.751779E+03	5.855120E-04	2.667600E-05
3.761704E+03	5.871272E-04	2.673469E-05
3.771630E+03	5.887618E-04	2.679409E-05
3.781555E+03	5.903385E-04	2.685069E-05
3.791480E+03	5.920128E-04	2.691155E-05
3.801406E+03	5.936298E-04	2.696964E-05
3.811331E+03	5.953449E-04	2.703200E-05
3.821257E+03	5.970811E-04	2.709514E-05
3.831182E+03	5.988383E-04	2.715905E-05
3.841107E+03	6.005390E-04	2.722022E-05
3.851033E+03	6.023393E-04	2.728572E-05
3.860958E+03	6.041618E-04	2.735203E-05
3.870883E+03	6.060064E-04	2.741915E-05
3.880809E+03	6.077952E-04	2.748355E-05
3.890734E+03	6.096852E-04	2.755233E-05
3.900659E+03	6.115981E-04	2.762195E-05
3.910585E+03	6.135344E-04	2.769242E-05
3.920510E+03	6.154942E-04	2.776375E-05
3.930435E+03	6.173990E-04	2.783239E-05
3.940361E+03	6.194066E-04	2.790546E-05
3.950286E+03	6.214386E-04	2.797942E-05
3.960211E+03	6.234951E-04	2.805426E-05
3.970137E+03	6.255764E-04	2.813000E-05
3.980062E+03	6.276033E-04	2.820308E-05
3.989987E+03	6.297350E-04	2.828065E-05
3.999913E+03	6.318921E-04	2.835913E-05
4.009838E+03	6.340751E-04	2.843854E-05
4.019763E+03	6.362841E-04	2.851889E-05
4.029689E+03	6.384393E-04	2.859659E-05
4.039614E+03	6.407011E-04	2.867883E-05
4.049539E+03	6.429897E-04	2.876203E-05
4.059465E+03	6.453053E-04	2.884620E-05
4.069390E+03	6.475677E-04	2.892773E-05
4.079315E+03	6.499380E-04	2.901385E-05
4.089241E+03	6.523362E-04	2.910096E-05
4.099166E+03	6.546816E-04	2.918545E-05
4.109091E+03	6.571362E-04	2.927455E-05
4.119017E+03	6.596194E-04	2.936467E-05
4.128942E+03	6.620500E-04	2.945218E-05
4.138867E+03	6.645912E-04	2.954434E-05
4.148793E+03	6.670801E-04	2.963391E-05
4.158718E+03	6.696804E-04	2.972815E-05
4.168643E+03	6.722287E-04	2.981981E-05
4.178569E+03	6.748894E-04	2.991617E-05
4.188494E+03	6.774983E-04	3.000994E-05
4.198419E+03	6.802206E-04	3.010846E-05
4.208345E+03	6.828914E-04	3.020440E-05
4.218270E+03	6.855935E-04	3.030144E-05
4.228196E+03	6.884108E-04	3.040326E-05
4.238121E+03	6.911769E-04	3.050252E-05
4.248046E+03	6.939756E-04	3.060291E-05
4.257972E+03	6.968072E-04	3.070444E-05
4.267897E+03	6.996720E-04	3.080713E-05
4.277822E+03	7.025704E-04	3.091098E-05
4.287748E+03	7.055030E-04	3.101601E-05
4.297673E+03	7.084703E-04	3.112224E-05
4.307598E+03	7.114726E-04	3.122968E-05
4.317524E+03	7.145106E-04	3.133836E-05
4.327449E+03	7.175846E-04	3.144827E-05
4.337374E+03	7.206953E-04	3.155946E-05
4.347300E+03	7.238432E-04	3.167192E-05
4.357225E+03	7.269430E-04	3.178193E-05
4.367150E+03	7.301671E-04	3.189703E-05
4.377076E+03	7.333438E-04	3.200970E-05
4.387001E+03	7.366467E-04	3.212751E-05
4.396926E+03	7.399031E-04	3.224293E-05
4.406852E+03	7.432878E-04	3.236356E-05
4.416777E+03	7.466271E-04	3.248185E-05
4.426702E+03	7.500091E-04	3.260160E-05
4.436628E+03	7.535226E-04	3.272670E-05
4.446553E+03	7.569927E-04	3.284951E-05
4.456478E+03	7.605083E-04	3.297391E-05
4.466404E+03	7.640705E-04	3.309992E-05
4.476329E+03	7.676803E-04	3.322759E-05
4.486254E+03	7.713390E-04	3.335697E-05
4.496180E+03	7.749580E-04	3.348421E-05
4.506105E+03	7.787181E-04	3.361713E-05
4.516030E+03	7.825309E-04	3.375190E-05
4.525956E+03	7.863074E-04	3.388467E-05
4.535881E+03	7.902302E-04	3.402331E-05
4.545806E+03	7.941192E-04	3.416005E-05
4.555732E+03	7.981585E-04	3.430280E-05
4.565657E+03	8.021669E-04	3.444377E-05
4.575582E+03	8.062378E-04	3.458695E-05
4.585508E+03	8.103730E-04	3.473243E-05
4.595433E+03	8.145747E-04	3.488027E-05
4.605358E+03	8.188451E-04	3.503058E-05
4.615284E+03	8.231865E-04	3.518343E-05
4.625209E+03	8.276014E-04	3.533892E-05
4.635135E+03	8.319976E-04	3.549311E-05
4.645060E+03	8.365666E-04	3.565416E-05
4.654985E+03	8.412169E-04	3.581814E-05
4.664911E+03	8.458556E-04	3.598110E-05
4.674836E+03	8.505804E-04	3.614718E-05
4.684761E+03	8.554912E-04	3.632062E-05
4.694687E+03	8.603981E-04	3.649333E-05
4.704612E+03	8.654003E-04	3.666951E-05
4.714537E+03	8.705005E-04	3.684927E-05
4.724463E+03	8.757037E-04	3.703280E-05
4.734388E+03	8.810106E-04	3.722012E-05
4.744313E+03	8.863276E-04	3.740725E-05
4.754239E+03	8.918541E-04	3.760260E-05
4.764164E+03	8.974954E-04	3.780216E-05
4.774089E+03	9.031543E-04	3.800181E-05
4.784015E+03	9.089321E-04	3.820582E-05
4.793940E+03	9.149357E-04	3.841864E-05
4.803865E+03	9.209627E-04	3.863176E-05
4.813791E+03	9.271181E-04	3.884957E-05
4.823716E+03	9.334034E-04	3.907211E-05
4.833641E+03	9.398213E-04	3.929949E-05
4.843567E+03	9.463752E-04	3.953180E-05
4.853492E+03	9.529591E-04	3.976462E-05
4.863417E+03	9.597865E-04	4.000684E-05
4.873343E+03	9.666472E-04	4.024967E-05
4.883268E+03	9.737548E-04	4.050198E-05
4.893193E+03	9.808956E-04	4.075486E-05
4.903119E+03	9.881772E-04	4.101277E-05
4.913044E+03	9.956014E-04	4.127576E-05
4.922969E+03	1.003167E-03	4.154376E-05
4.932895E+03	1.010876E-03	4.181682E-05
4.942820E+03	1.018727E-03	4.209485E-05
4.952745E+03	1.026720E-03	4.237786E-05
4.962671E+03	1.034743E-03	4.266119E-05
4.972596E+03	1.043019E-03	4.295404E-05
4.982521E+03	1.051323E-03	4.324707E-05
4.992447E+03	1.059768E-03	4.354492E-05
5.002372E+03	1.068468E-03	4.385230E-05
5.012297E+03	1.077192E-03	4.415965E-05
5.022223E+03	1.086054E-03	4.447167E-05
5.032148E+03	1.094936E-03	4.478345E-05
5.042074E+03	1.104073E-03	4.510466E-05
5.051999E+03	1.113349E-03	4.543045E-05
5.061924E+03	1.122640E-03	4.575580E-05
5.071850E+03	1.132188E-03	4.609051E-05
5.081775E+03	1.141749E-03	4.642467E-05
5.091700E+03	1.151568E-03	4.676823E-05
5.101626E+03	1.161397E-03	4.711102E-05
5.111551E+03	1.171361E-03	4.745812E-05
5.121476E+03	1.181456E-03	4.780941E-05
5.131402E+03	1.191685E-03	4.816490E-05
5.141327E+03	1.201917E-03	4.851932E-05
5.151252E+03	1.212409E-03	4.888306E-05
5.161178E+03	1.222902E-03	4.924560E-05
5.171103E+03	1.233657E-03	4.961746E-05
5.181028E+03	1.244411E-03	4.998799E-05
5.190954E+03	1.255293E-03	5.036243E-05
5.200879E+03	1.266440E-03	5.074619E-05
5.210804E+03	1.277582E-03	5.112845E-05
5.220730E+03	1.288853E-03	5.151455E-05
5.230655E+03	1.300112E-03	5.189887E-05
5.240580E+03	1.311638E-03	5.229250E-05
5.250506E+03	1.323293E-03	5.268988E-05
5.260431E+03	1.334933E-03	5.308533E-05
5.270356E+03	1.346842E-03	5.349007E-05
5.280282E+03	1.358734E-03	5.389274E-05
5.290207E+03	1.370751E-03	5.429896E-05
5.300132E+03	1.382894E-03	5.470871E-05
5.310058E+03	1.395310E-03	5.512783E-05
5.319983E+03	1.407552E-03	5.553863E-05
5.329908E+03	1.420066E-03	5.595871E-05
5.339834E+03	1.432705E-03	5.638220E-05
5.349759E+03	1.445468E-03	5.680906E-05
5.359684E+03	1.458197E-03	5.723309E-05
5.369610E+03	1.471203E-03	5.766649E-05
5.379535E+03	1.484173E-03	5.809693E-05
5.389460E+03	1.497261E-03	5.853044E-05
5.399386E+03	1.510629E-03	5.897330E-05
5.409311E+03	1.523955E-03	5.941296E-05
5.419237E+03	1.537396E-03	5.985553E-05
5.429162E+03	1.550955E-03	6.030107E-05
5.439087E+03	1.564461E-03	6.074300E-05
5.449013E+03	1.578247E-03	6.119413E-05
5.458938E+03	1.592146E-03	6.164802E-05
5.468863E+03	1.605985E-03	6.209798E-05
5.478789E+03	1.620105E-03	6.255711E-05
5.488714E+03	1.634162E-03	6.301215E-05
5.498639E+03	1.648324E-03	6.346958E-05
5.508565E+03	1.662589E-03	6.392932E-05
5.518490E+03	1.677135E-03	6.439814E-05
5.528415E+03	1.691605E-03	6.486236E-05
5.538341E+03	1.705995E-03	6.532178E-05
5.548266E+03	1.720660E-03	6.579004E-05
5.558191E+03	1.735421E-03	6.626025E-05
5.568117E+03	1.750275E-03	6.673230E-05
5.578042E+03	1.765035E-03	6.719899E-05
5.587967E+03	1.780068E-03	6.767436E-05
5.597893E+03	1.794998E-03	6.814411E-05
5.607818E+03	1.810011E-03	6.861521E-05
5.617743E+03	1.825294E-03	6.909480E-05
5.627669E+03	1.840463E-03	6.956833E-05
5.637594E+03	1.855705E-03	7.004285E-05
5.647519E+03	1.871017E-03	7.051827E-05
5.657445E+03	1.886397E-03	7.099446E-05
5.667370E+03	1.901841E-03	7.147133E-05
5.677295E+03	1.917144E-03	7.194113E-05
5.687221E+03	1.932706E-03	7.241887E-05
5.697146E+03	1.948321E-03	7.289686E-05
5.707071E+03	1.963781E-03	7.336726E-05
5.716997E+03	1.979492E-03	7.384532E-05
5.726922E+03	1.995037E-03	7.431539E-05
5.736847E+03	2.010617E-03	7.478506E-05
5.746773E+03	2.026229E-03	7.525416E-05
5.756698E+03	2.042083E-03	7.573053E-05
5.766623E+03	2.057748E-03	7.619813E-05
5.776549E+03	2.073432E-03	7.666471E-05
5.786474E+03	2.089129E-03	7.713009E-05
5.796399E+03	2.104615E-03	7.758597E-05
5.806325E+03	2.120326E-03	7.804845E-05
5.816250E+03	2.136038E-03	7.850926E-05
5.826176E+03	2.151744E-03	7.896823E-05
5.836101E+03	2.167215E-03	7.941686E-05
5.846026E+03	2.182896E-03	7.987160E-05
5.855952E+03	2.198326E-03	8.031553E-05
5.865877E+03	2.213729E-03	8.075686E-05
5.875802E+03	2.229334E-03	8.120394E-05
5.885728E+03	2.244667E-03	8.163958E-05
5.895653E+03	2.259957E-03	8.207211E-05
5.905578E+03	2.275200E-03	8.250136E-05
5.915504E+03	2.290388E-03	8.292717E-05
5.925429E+03	2.305519E-03	8.334937E-05
5.935354E+03	2.320585E-03	8.376780E-05
5.945280E+03	2.335583E-03	8.418232E-05
5.955205E+03	2.350508E-03	8.459279E-05
5.965130E+03	2.365354E-03	8.499904E-05
5.975056E+03	2.379867E-03	8.539196E-05
5.984981E+03	2.394542E-03	8.578935E-05
5.994906E+03	2.409125E-03	8.618216E-05
6.004832E+03	2.423356E-03	8.656111E-05
6.014757E+03	2.437742E-03	8.694433E-05
6.024682E+03	2.451765E-03	8.731343E-05
6.034608E+03	2.465679E-03	8.767744E-05
6.044533E+03	2.479739E-03	8.804555E-05
6.054458E+03	2.493424E-03	8.839921E-05
6.064384E+03	2.506990E-03	8.874756E-05
6.074309E+03	2.520435E-03	8.909061E-05
6.084234E+03	2.533755E-03	8.942826E-05
6.094160E+03	2.546951E-03	8.976057E-05
6.104085E+03	2.560021E-03	9.008749E-05
6.114010E+03	2.572963E-03	9.040905E-05
6.123936E+03	2.585778E-03	9.072530E-05
6.133861E+03	2.598466E-03	9.103624E-05
6.143786E+03	2.611026E-03	9.134197E-05
6.153712E+03	2.623184E-03	9.163289E-05
6.163637E+03	2.635493E-03	9.192838E-05
6.173562E+03	2.647679E-03	9.221893E-05
6.183488E+03	2.659458E-03	9.249471E-05
6.193413E+03	2.671384E-03	9.277502E-05
6.203338E+03	2.682887E-03	9.304010E-05
6.213264E+03	2.694525E-03	9.330940E-05
6.223189E+03	2.705725E-03	9.356307E-05
6.233115E+03	2.716763E-03	9.381076E-05
6.243040E+03	2.727923E-03	9.406227E-05
6.252965E+03	2.738624E-03	9.429767E-05
6.262891E+03	2.749150E-03	9.452673E-05
6.272816E+03	2.759494E-03	9.474928E-05
6.282741E+03	2.769947E-03	9.497529E-05
6.292667E+03	2.779922E-03	9.518465E-05
6.302592E+03	2.789707E-03	9.538732E-05
6.312517E+03	2.799299E-03	9.558318E-05
6.322443E+03	2.808696E-03	9.577225E-05
6.332368E+03	2.817897E-03	9.595444E-05
6.342293E+03	2.826899E-03	9.612977E-05
6.352219E+03	2.835703E-03	9.629824E-05
6.362144E+03	2.844006E-03	9.644964E-05
6.372069E+03	2.852408E-03	9.660435E-05
6.381995E+03	2.860610E-03	9.675223E-05
6.391920E+03	2.868612E-03	9.689335E-05
6.401845E+03	2.876110E-03	9.701744E-05
6.411771E+03	2.883713E-03	9.714510E-05
6.421696E+03	2.891118E-03	9.726613E-05
6.431621E+03	2.898019E-03	9.737030E-05
6.441547E+03	2.905031E-03	9.747832E-05
6.451472E+03	2.911542E-03	9.756960E-05
6.461397E+03	2.918170E-03	9.766495E-05
6.471323E+03	2.924298E-03	9.774374E-05
6.481248E+03	2.930549E-03	9.782680E-05
6.491173E+03	2.936305E-03	9.789354E-05
6.501099E+03	2.941878E-03	9.795443E-05
6.511024E+03	2.947585E-03	9.802000E-05
6.520949E+03	2.952803E-03	9.806955E-05
6.530875E+03	2.957848E-03	9.811365E-05
6.540800E+03	2.962723E-03	9.815243E-05
6.550725E+03	2.967747E-03	9.819644E-05
6.560651E+03	2.972295E-03	9.822503E-05
6.570576E+03	2.976683E-03	9.824869E-05
6.580501E+03	2.980916E-03	9.826762E-05
6.590427E+03	2.984998E-03	9.828197E-05
6.600352E+03	2.988932E-03	9.829187E-05
6.610277E+03	2.992724E-03	9.829751E-05
6.620203E+03	2.996376E-03	9.829903E-05
6.630128E+03	2.999895E-03	9.829662E-05
6.640054E+03	3.003282E-03	9.829039E-05
6.649979E+03	3.006543E-03	9.828051E-05
6.659904E+03	3.009682E-03	9.826719E-05
6.669830E+03	3.012703E-03	9.825054E-05
6.679755E+03	3.015289E-03	9.822026E-05
6.689680E+03	3.018087E-03	9.819748E-05
6.699606E+03	3.020781E-03	9.817190E-05
6.709531E+03	3.023375E-03	9.814364E-05
6.719456E+03	3.025549E-03	9.810241E-05
6.729382E+03	3.027954E-03	9.806931E-05
6.739307E+03	3.030273E-03	9.803406E-05
6.749232E+03	3.032185E-03	9.798632E-05
6.759158E+03	3.034342E-03	9.794721E-05
6.769083E+03	3.036100E-03	9.789592E-05
6.779008E+03	3.038113E-03	9.785358E-05
6.788934E+03	3.039735E-03	9.779939E-05
6.798859E+03	3.041622E-03	9.775449E-05
6.808784E+03	3.043125E-03	9.769802E-05
6.818710E+03	3.044901E-03	9.765112E-05
6.828635E+03	3.046303E-03	9.759302E-05
6.838560E+03	3.047659E-03	9.753430E-05
6.848486E+03	3.049302E-03	9.748560E-05
6.858411E+03	3.050581E-03	9.742615E-05
6.868336E+03	3.051827E-03	9.736652E-05
6.878262E+03	3.053374E-03	9.731737E-05
6.888187E+03	3.054568E-03	9.725790E-05
6.898112E+03	3.055741E-03	9.719870E-05
6.908038E+03	3.056898E-03	9.713994E-05
6.917963E+03	3.058042E-03	9.708175E-05
6.927888E+03	3.059177E-03	9.702427E-05
6.937814E+03	3.060637E-03	9.697808E-05
6.947739E+03	3.061765E-03	9.692242E-05
6.957664E+03	3.062896E-03	9.686790E-05
6.967590E+03	3.064033E-03	9.681462E-05
6.977515E+03	3.065179E-03	9.676274E-05
6.987440E+03	3.066339E-03	9.671240E-05
6.997366E+03	3.067516E-03	9.666370E-05
7.007291E+03	3.068381E-03	9.660636E-05
7.017216E+03	3.069603E-03	9.656139E-05
7.027142E+03	3.070852E-03	9.651849E-05
7.037067E+03	3.072131E-03	9.647775E-05
7.046993E+03	3.073446E-03	9.643934E-05
7.056918E+03	3.074466E-03	9.639295E-05
7.066843E+03	3.075859E-03	9.635956E-05
7.076769E+03	3.077299E-03	9.632888E-05
7.086694E+03	3.078453E-03	9.629063E-05
7.096619E+03	3.079993E-03	9.626578E-05
7.106545E+03	3.081590E-03	9.624405E-05
7.116470E+03	3.082911E-03	9.621513E-05
7.126395E+03	3.084630E-03	9.620004E-05
7.136321E+03	3.086082E-03	9.617805E-05
7.146246E+03	3.087939E-03	9.617018E-05
7.156171E+03	3.089536E-03	9.615568E-05
7.166097E+03	3.091548E-03	9.615562E-05
7.176022E+03	3.093306E-03	9.614921E-05
7.185947E+03	3.095152E-03	9.614712E-05
7.195873E+03	3.097428E-03	9.615997E-05
7.205798E+03	3.099462E-03	9.616694E-05
7.215723E+03	3.101598E-03	9.617874E-05
7.225649E+03	3.103842E-03	9.619554E-05
7.235574E+03	3.106536E-03	9.622803E-05
7.245499E+03	3.109009E-03	9.625543E-05
7.255425E+03	3.111606E-03	9.628841E-05
7.265350E+03	3.114333E-03	9.632725E-05
7.275275E+03	3.117198E-03	9.637215E-05
7.285201E+03	3.120207E-03	9.642339E-05
7.295126E+03	3.123367E-03	9.648122E-05
7.305051E+03	3.126688E-03	9.654592E-05
7.314977E+03	3.130176E-03	9.661777E-05
7.324902E+03	3.133843E-03	9.669712E-05
7.334827E+03	3.137352E-03	9.677365E-05
7.344753E+03	3.141404E-03	9.686899E-05
7.354678E+03	3.145665E-03	9.697286E-05
7.364603E+03	3.150146E-03	9.708569E-05
7.374529E+03	3.154514E-03	9.719719E-05
7.384454E+03	3.159476E-03	9.732922E-05
7.394379E+03	3.164700E-03	9.747158E-05
7.404305E+03	3.169851E-03	9.761399E-05
7.414230E+03	3.175645E-03	9.777852E-05
7.424156E+03	3.181398E-03	9.794421E-05
7.434081E+03	3.187832E-03	9.813326E-05
7.444006E+03	3.194262E-03	9.832469E-05
7.453932E+03	3.201416E-03	9.854089E-05
7.463857E+03	3.208607E-03	9.876081E-05
7.473782E+03	3.216213E-03	9.899614E-05
7.483708E+03	3.224618E-03	9.925869E-05
7.493633E+03	3.233130E-03	9.952731E-05
7.503558E+03	3.242111E-03	9.981311E-05
7.513484E+03	3.251541E-03	1.001156E-04
7.523409E+03	3.261404E-03	1.004343E-04
7.533334E+03	3.271680E-03	1.007687E-04
7.543260E+03	3.282354E-03	1.011183E-04
7.553185E+03	3.293409E-03	1.014826E-04
7.563110E+03	3.304832E-03	1.018612E-04
7.573036E+03	3.316606E-03	1.022536E-04
7.582961E+03	3.328718E-03	1.026594E-04
7.592886E+03	3.341157E-03	1.030782E-04
7.602812E+03	3.353909E-03	1.035097E-04
7.612737E+03	3.366589E-03	1.039419E-04
7.622662E+03	3.379934E-03	1.043976E-04
7.632588E+03	3.393562E-03	1.048651E-04
7.642513E+03	3.407082E-03	1.053321E-04
7.652438E+03	3.421245E-03	1.058221E-04
7.662364E+03	3.435279E-03	1.063111E-04
7.672289E+03	3.449945E-03	1.068226E-04
7.682214E+03	3.464463E-03	1.073326E-04
7.692140E+03	3.479603E-03	1.078648E-04
7.702065E+03	3.494577E-03	1.083949E-04
