#wls	flux	fluxerr
1.588055E+03	4.753930E-04	1.072623E-05
1.627756E+03	4.756683E-04	1.072806E-05
1.667457E+03	4.755128E-04	1.072006E-05
1.707159E+03	4.746628E-04	1.069627E-05
1.746860E+03	4.732487E-04	1.065967E-05
1.786561E+03	4.710603E-04	1.060553E-05
1.826263E+03	4.680137E-04	1.053198E-05
1.865964E+03	4.638330E-04	1.043285E-05
1.905666E+03	4.584060E-04	1.030565E-05
1.945367E+03	4.515361E-04	1.014601E-05
1.985068E+03	4.434154E-04	9.958288E-06
2.024770E+03	4.345328E-04	9.753515E-06
2.064471E+03	4.260838E-04	9.558541E-06
2.104172E+03	4.198734E-04	9.413825E-06
2.143874E+03	4.171406E-04	9.347045E-06
2.183575E+03	4.185621E-04	9.373218E-06
2.223277E+03	4.231980E-04	9.471132E-06
2.262978E+03	4.299028E-04	9.615028E-06
2.302679E+03	4.372361E-04	9.772607E-06
2.342381E+03	4.443190E-04	9.924200E-06
2.382082E+03	4.508541E-04	1.006317E-05
2.421783E+03	4.564639E-04	1.018110E-05
2.461485E+03	4.613881E-04	1.028338E-05
2.501186E+03	4.655568E-04	1.036847E-05
2.540887E+03	4.691525E-04	1.044046E-05
2.580589E+03	4.722013E-04	1.049994E-05
2.620290E+03	4.748734E-04	1.055073E-05
2.659992E+03	4.772481E-04	1.059459E-05
2.699693E+03	4.793125E-04	1.063124E-05
2.739394E+03	4.811992E-04	1.066364E-05
2.779096E+03	4.829528E-04	1.069277E-05
2.818797E+03	4.845322E-04	1.071773E-05
2.858498E+03	4.860465E-04	1.074092E-05
2.898200E+03	4.874433E-04	1.076120E-05
2.937901E+03	4.889008E-04	1.078248E-05
2.977602E+03	4.902818E-04	1.080174E-05
2.987528E+03	4.906171E-04	1.080628E-05
2.997453E+03	4.909488E-04	1.081072E-05
3.007378E+03	4.912774E-04	1.081507E-05
3.017304E+03	4.916054E-04	1.081939E-05
3.027229E+03	4.919430E-04	1.082390E-05
3.037155E+03	4.923776E-04	1.083051E-05
3.047080E+03	4.927505E-04	1.083575E-05
3.057005E+03	4.931366E-04	1.084125E-05
3.066931E+03	4.936109E-04	1.084868E-05
3.076856E+03	4.940158E-04	1.085455E-05
3.086781E+03	4.945047E-04	1.086224E-05
3.096707E+03	4.949202E-04	1.086830E-05
3.106632E+03	4.954162E-04	1.087610E-05
3.116557E+03	4.958358E-04	1.088219E-05
3.126483E+03	4.963331E-04	1.088997E-05
3.136408E+03	4.968294E-04	1.089770E-05
3.146333E+03	4.972462E-04	1.090367E-05
3.156259E+03	4.977378E-04	1.091124E-05
3.166184E+03	4.982259E-04	1.091872E-05
3.176109E+03	4.987102E-04	1.092608E-05
3.186035E+03	4.991125E-04	1.093163E-05
3.195960E+03	4.995877E-04	1.093874E-05
3.205885E+03	5.000576E-04	1.094572E-05
3.215811E+03	5.005225E-04	1.095256E-05
3.225736E+03	5.009820E-04	1.095925E-05
3.235661E+03	5.014362E-04	1.096580E-05
3.245587E+03	5.018852E-04	1.097221E-05
3.255512E+03	5.023288E-04	1.097848E-05
3.265437E+03	5.027673E-04	1.098461E-05
3.275363E+03	5.032781E-04	1.099229E-05
3.285288E+03	5.037069E-04	1.099816E-05
3.295213E+03	5.041312E-04	1.100390E-05
3.305139E+03	5.045512E-04	1.100952E-05
3.315064E+03	5.050443E-04	1.101670E-05
3.324989E+03	5.054567E-04	1.102210E-05
3.334915E+03	5.058658E-04	1.102740E-05
3.344840E+03	5.063488E-04	1.103429E-05
3.354765E+03	5.067523E-04	1.103941E-05
3.364691E+03	5.071535E-04	1.104445E-05
3.374616E+03	5.076297E-04	1.105111E-05
3.384541E+03	5.080276E-04	1.105602E-05
3.394467E+03	5.085012E-04	1.106256E-05
3.404392E+03	5.089741E-04	1.106905E-05
3.414318E+03	5.093699E-04	1.107384E-05
3.424243E+03	5.098426E-04	1.108027E-05
3.434168E+03	5.102390E-04	1.108502E-05
3.444094E+03	5.107129E-04	1.109142E-05
3.454019E+03	5.111882E-04	1.109782E-05
3.463944E+03	5.116651E-04	1.110423E-05
3.473870E+03	5.120675E-04	1.110898E-05
3.483795E+03	5.125488E-04	1.111543E-05
3.493720E+03	5.130330E-04	1.112190E-05
3.503646E+03	5.135203E-04	1.112841E-05
3.513571E+03	5.140112E-04	1.113497E-05
3.523496E+03	5.144295E-04	1.113993E-05
3.533422E+03	5.149285E-04	1.114660E-05
3.543347E+03	5.154321E-04	1.115334E-05
3.553272E+03	5.159406E-04	1.116015E-05
3.563198E+03	5.164542E-04	1.116705E-05
3.573123E+03	5.169735E-04	1.117403E-05
3.583048E+03	5.174986E-04	1.118111E-05
3.592974E+03	5.180298E-04	1.118829E-05
3.602899E+03	5.185675E-04	1.119557E-05
3.612824E+03	5.191119E-04	1.120297E-05
3.622750E+03	5.196634E-04	1.121049E-05
3.632675E+03	5.202221E-04	1.121812E-05
3.642600E+03	5.207884E-04	1.122589E-05
3.652526E+03	5.214385E-04	1.123543E-05
3.662451E+03	5.220206E-04	1.124347E-05
3.672376E+03	5.226110E-04	1.125166E-05
3.682302E+03	5.232099E-04	1.125999E-05
3.692227E+03	5.238175E-04	1.126847E-05
3.702152E+03	5.244341E-04	1.127711E-05
3.712078E+03	5.251359E-04	1.128755E-05
3.722003E+03	5.257711E-04	1.129652E-05
3.731928E+03	5.264158E-04	1.130565E-05
3.741854E+03	5.270703E-04	1.131496E-05
3.751779E+03	5.278108E-04	1.132608E-05
3.761704E+03	5.284854E-04	1.133574E-05
3.771630E+03	5.291704E-04	1.134559E-05
3.781555E+03	5.298658E-04	1.135563E-05
3.791480E+03	5.306479E-04	1.136748E-05
3.801406E+03	5.313650E-04	1.137790E-05
3.811331E+03	5.320930E-04	1.138851E-05
3.821257E+03	5.328321E-04	1.139933E-05
3.831182E+03	5.336586E-04	1.141197E-05
3.841107E+03	5.344207E-04	1.142319E-05
3.851033E+03	5.351943E-04	1.143462E-05
3.860958E+03	5.360557E-04	1.144788E-05
3.870883E+03	5.368531E-04	1.145973E-05
3.880809E+03	5.376625E-04	1.147180E-05
3.890734E+03	5.385603E-04	1.148570E-05
3.900659E+03	5.393944E-04	1.149821E-05
3.910585E+03	5.402410E-04	1.151094E-05
3.920510E+03	5.411003E-04	1.152389E-05
3.930435E+03	5.420486E-04	1.153870E-05
3.940361E+03	5.429337E-04	1.155211E-05
3.950286E+03	5.438319E-04	1.156576E-05
3.960211E+03	5.448196E-04	1.158126E-05
3.970137E+03	5.457445E-04	1.159539E-05
3.980062E+03	5.466829E-04	1.160975E-05
3.989987E+03	5.476351E-04	1.162436E-05
3.999913E+03	5.486776E-04	1.164083E-05
4.009838E+03	5.496577E-04	1.165594E-05
4.019763E+03	5.506520E-04	1.167129E-05
4.029689E+03	5.516607E-04	1.168691E-05
4.039614E+03	5.527605E-04	1.170440E-05
4.049539E+03	5.537986E-04	1.172053E-05
4.059465E+03	5.548514E-04	1.173693E-05
4.069390E+03	5.559195E-04	1.175359E-05
4.079315E+03	5.570027E-04	1.177053E-05
4.089241E+03	5.581014E-04	1.178774E-05
4.099166E+03	5.592928E-04	1.180685E-05
4.109091E+03	5.604232E-04	1.182462E-05
4.119017E+03	5.615697E-04	1.184268E-05
4.128942E+03	5.627326E-04	1.186103E-05
4.138867E+03	5.639120E-04	1.187967E-05
4.148793E+03	5.651083E-04	1.189862E-05
4.158718E+03	5.663216E-04	1.191786E-05
4.168643E+03	5.675523E-04	1.193741E-05
4.178569E+03	5.688006E-04	1.195728E-05
4.188494E+03	5.700668E-04	1.197746E-05
4.198419E+03	5.713513E-04	1.199797E-05
4.208345E+03	5.726542E-04	1.201881E-05
4.218270E+03	5.739759E-04	1.203998E-05
4.228196E+03	5.752389E-04	1.205986E-05
4.238121E+03	5.765992E-04	1.208172E-05
4.248046E+03	5.779793E-04	1.210394E-05
4.257972E+03	5.793796E-04	1.212651E-05
4.267897E+03	5.808006E-04	1.214945E-05
4.277822E+03	5.821642E-04	1.217113E-05
4.287748E+03	5.836275E-04	1.219483E-05
4.297673E+03	5.851125E-04	1.221892E-05
4.307598E+03	5.865411E-04	1.224177E-05
4.317524E+03	5.880711E-04	1.226666E-05
4.327449E+03	5.895454E-04	1.229033E-05
4.337374E+03	5.911222E-04	1.231606E-05
4.347300E+03	5.926441E-04	1.234058E-05
4.357225E+03	5.942696E-04	1.236720E-05
4.367150E+03	5.958411E-04	1.239261E-05
4.377076E+03	5.975176E-04	1.242014E-05
4.387001E+03	5.991409E-04	1.244650E-05
4.396926E+03	6.007910E-04	1.247333E-05
4.406852E+03	6.025483E-04	1.250232E-05
4.416777E+03	6.042539E-04	1.253016E-05
4.426702E+03	6.059881E-04	1.255852E-05
4.436628E+03	6.077515E-04	1.258741E-05
4.446553E+03	6.095449E-04	1.261685E-05
4.456478E+03	6.113691E-04	1.264684E-05
4.466404E+03	6.133054E-04	1.267908E-05
4.476329E+03	6.151932E-04	1.271023E-05
4.486254E+03	6.171139E-04	1.274198E-05
4.496180E+03	6.189869E-04	1.277267E-05
4.506105E+03	6.209756E-04	1.280566E-05
4.516030E+03	6.229995E-04	1.283929E-05
4.525956E+03	6.250596E-04	1.287358E-05
4.535881E+03	6.271565E-04	1.290855E-05
4.545806E+03	6.292089E-04	1.294251E-05
4.555732E+03	6.313821E-04	1.297887E-05
4.565657E+03	6.335948E-04	1.301596E-05
4.575582E+03	6.357651E-04	1.305208E-05
4.585508E+03	6.380593E-04	1.309065E-05
4.595433E+03	6.403125E-04	1.312829E-05
4.605358E+03	6.426919E-04	1.316842E-05
4.615284E+03	6.450316E-04	1.320764E-05
4.625209E+03	6.474159E-04	1.324768E-05
4.635135E+03	6.498456E-04	1.328856E-05
4.645060E+03	6.524062E-04	1.333201E-05
4.654985E+03	6.549300E-04	1.337460E-05
4.664911E+03	6.575018E-04	1.341807E-05
4.674836E+03	6.601229E-04	1.346245E-05
4.684761E+03	6.627940E-04	1.350774E-05
4.694687E+03	6.655161E-04	1.355396E-05
4.704612E+03	6.682900E-04	1.360113E-05
4.714537E+03	6.711166E-04	1.364926E-05
4.724463E+03	6.739967E-04	1.369837E-05
4.734388E+03	6.768444E-04	1.374671E-05
4.744313E+03	6.798339E-04	1.379781E-05
4.754239E+03	6.828795E-04	1.384994E-05
4.764164E+03	6.858940E-04	1.390131E-05
4.774089E+03	6.890537E-04	1.395551E-05
4.784015E+03	6.921830E-04	1.400897E-05
4.793940E+03	6.954596E-04	1.406529E-05
4.803865E+03	6.987066E-04	1.412089E-05
4.813791E+03	7.020132E-04	1.417756E-05
4.823716E+03	7.053799E-04	1.423532E-05
4.833641E+03	7.088976E-04	1.429600E-05
4.843567E+03	7.123865E-04	1.435596E-05
4.853492E+03	7.159370E-04	1.441703E-05
4.863417E+03	7.195497E-04	1.447921E-05
4.873343E+03	7.232248E-04	1.454252E-05
4.883268E+03	7.269626E-04	1.460694E-05
4.893193E+03	7.307635E-04	1.467249E-05
4.903119E+03	7.345347E-04	1.473730E-05
4.913044E+03	7.384620E-04	1.480511E-05
4.922969E+03	7.424530E-04	1.487403E-05
4.932895E+03	7.464134E-04	1.494220E-05
4.942820E+03	7.505316E-04	1.501337E-05
4.952745E+03	7.546184E-04	1.508377E-05
4.962671E+03	7.588639E-04	1.515718E-05
4.972596E+03	7.630769E-04	1.522978E-05
4.982521E+03	7.673527E-04	1.530348E-05
4.992447E+03	7.717882E-04	1.538021E-05
5.002372E+03	7.761895E-04	1.545608E-05
5.012297E+03	7.806528E-04	1.553304E-05
5.022223E+03	7.851780E-04	1.561105E-05
5.032148E+03	7.897647E-04	1.569012E-05
5.042074E+03	7.944125E-04	1.577024E-05
5.051999E+03	7.991211E-04	1.585139E-05
5.061924E+03	8.038899E-04	1.593357E-05
5.071850E+03	8.087186E-04	1.601675E-05
5.081775E+03	8.135048E-04	1.609892E-05
5.091700E+03	8.184510E-04	1.618408E-05
5.101626E+03	8.234554E-04	1.627021E-05
5.111551E+03	8.284139E-04	1.635525E-05
5.121476E+03	8.335322E-04	1.644326E-05
5.131402E+03	8.386022E-04	1.653014E-05
5.141327E+03	8.437265E-04	1.661790E-05
5.151252E+03	8.490104E-04	1.670862E-05
5.161178E+03	8.542420E-04	1.679812E-05
5.171103E+03	8.595256E-04	1.688846E-05
5.181028E+03	8.648605E-04	1.697961E-05
5.190954E+03	8.702459E-04	1.707157E-05
5.200879E+03	8.756808E-04	1.716430E-05
5.210804E+03	8.811644E-04	1.725779E-05
5.220730E+03	8.866957E-04	1.735203E-05
5.230655E+03	8.922739E-04	1.744698E-05
5.240580E+03	8.977864E-04	1.754046E-05
5.250506E+03	9.034547E-04	1.763678E-05
5.260431E+03	9.091668E-04	1.773375E-05
5.270356E+03	9.148084E-04	1.782916E-05
5.280282E+03	9.206044E-04	1.792737E-05
5.290207E+03	9.263265E-04	1.802394E-05
5.300132E+03	9.322021E-04	1.812331E-05
5.310058E+03	9.380003E-04	1.822096E-05
5.319983E+03	9.438345E-04	1.831911E-05
5.329908E+03	9.498210E-04	1.842002E-05
5.339834E+03	9.557245E-04	1.851911E-05
5.349759E+03	9.616605E-04	1.861864E-05
5.359684E+03	9.676276E-04	1.871856E-05
5.369610E+03	9.736256E-04	1.881888E-05
5.379535E+03	9.796515E-04	1.891953E-05
5.389460E+03	9.857054E-04	1.902053E-05
5.399386E+03	9.917853E-04	1.912182E-05
5.409311E+03	9.977672E-04	1.922102E-05
5.419237E+03	1.003895E-03	1.932284E-05
5.429162E+03	1.010046E-03	1.942491E-05
5.439087E+03	1.016093E-03	1.952475E-05
5.449013E+03	1.022284E-03	1.962719E-05
5.458938E+03	1.028366E-03	1.972732E-05
5.468863E+03	1.034591E-03	1.983002E-05
5.478789E+03	1.040704E-03	1.993037E-05
5.488714E+03	1.046959E-03	2.003322E-05
5.498639E+03	1.053097E-03	2.013365E-05
5.508565E+03	1.059245E-03	2.023408E-05
5.518490E+03	1.065401E-03	2.033448E-05
5.528415E+03	1.071565E-03	2.043483E-05
5.538341E+03	1.077735E-03	2.053512E-05
5.548266E+03	1.083909E-03	2.063529E-05
5.558191E+03	1.090086E-03	2.073534E-05
5.568117E+03	1.096264E-03	2.083523E-05
5.578042E+03	1.102443E-03	2.093495E-05
5.587967E+03	1.108621E-03	2.103446E-05
5.597893E+03	1.114796E-03	2.113375E-05
5.607818E+03	1.120830E-03	2.123018E-05
5.617743E+03	1.126995E-03	2.132894E-05
5.627669E+03	1.133154E-03	2.142740E-05
5.637594E+03	1.139165E-03	2.152291E-05
5.647519E+03	1.145306E-03	2.162070E-05
5.657445E+03	1.151295E-03	2.171545E-05
5.667370E+03	1.157271E-03	2.180981E-05
5.677295E+03	1.163376E-03	2.190645E-05
5.687221E+03	1.169322E-03	2.199994E-05
5.697146E+03	1.175253E-03	2.209300E-05
5.707071E+03	1.181166E-03	2.218556E-05
5.716997E+03	1.187205E-03	2.228037E-05
5.726922E+03	1.193080E-03	2.237194E-05
5.736847E+03	1.198936E-03	2.246301E-05
5.746773E+03	1.204769E-03	2.255354E-05
5.756698E+03	1.210581E-03	2.264353E-05
5.766623E+03	1.216369E-03	2.273296E-05
5.776549E+03	1.222134E-03	2.282183E-05
5.786474E+03	1.227726E-03	2.290735E-05
5.796399E+03	1.233443E-03	2.299510E-05
5.806325E+03	1.239134E-03	2.308226E-05
5.816250E+03	1.244801E-03	2.316886E-05
5.826176E+03	1.250290E-03	2.325203E-05
5.836101E+03	1.255907E-03	2.333749E-05
5.846026E+03	1.261498E-03	2.342239E-05
5.855952E+03	1.266909E-03	2.350386E-05
5.865877E+03	1.272451E-03	2.358766E-05
5.875802E+03	1.277814E-03	2.366807E-05
5.885728E+03	1.283151E-03	2.374793E-05
5.895653E+03	1.288623E-03	2.383022E-05
5.905578E+03	1.293915E-03	2.390911E-05
5.915504E+03	1.299187E-03	2.398756E-05
5.925429E+03	1.304597E-03	2.406851E-05
5.935354E+03	1.309831E-03	2.414616E-05
5.945280E+03	1.315047E-03	2.422344E-05
5.955205E+03	1.320250E-03	2.430042E-05
5.965130E+03	1.325438E-03	2.437711E-05
5.975056E+03	1.330618E-03	2.445359E-05
5.984981E+03	1.335789E-03	2.452990E-05
5.994906E+03	1.340956E-03	2.460610E-05
6.004832E+03	1.346121E-03	2.468224E-05
6.014757E+03	1.351287E-03	2.475839E-05
6.024682E+03	1.356457E-03	2.483462E-05
6.034608E+03	1.361637E-03	2.491099E-05
6.044533E+03	1.366661E-03	2.498453E-05
6.054458E+03	1.371868E-03	2.506142E-05
6.064384E+03	1.377096E-03	2.513869E-05
6.074309E+03	1.382349E-03	2.521642E-05
6.084234E+03	1.387463E-03	2.529164E-05
6.094160E+03	1.392780E-03	2.537059E-05
6.104085E+03	1.397966E-03	2.544717E-05
6.114010E+03	1.403368E-03	2.552770E-05
6.123936E+03	1.408646E-03	2.560602E-05
6.133861E+03	1.414151E-03	2.568850E-05
6.143786E+03	1.419540E-03	2.576892E-05
6.153712E+03	1.425165E-03	2.585366E-05
6.163637E+03	1.430679E-03	2.593643E-05
6.173562E+03	1.436258E-03	2.602044E-05
6.183488E+03	1.442080E-03	2.610891E-05
6.193413E+03	1.447790E-03	2.619541E-05
6.203338E+03	1.453562E-03	2.628311E-05
6.213264E+03	1.459572E-03	2.637517E-05
6.223189E+03	1.465461E-03	2.646513E-05
6.233115E+03	1.471400E-03	2.655606E-05
6.243040E+03	1.477386E-03	2.664793E-05
6.252965E+03	1.483413E-03	2.674063E-05
6.262891E+03	1.489477E-03	2.683407E-05
6.272816E+03	1.495571E-03	2.692814E-05
6.282741E+03	1.501693E-03	2.702281E-05
6.292667E+03	1.507835E-03	2.711791E-05
6.302592E+03	1.513994E-03	2.721342E-05
6.312517E+03	1.520164E-03	2.730921E-05
6.322443E+03	1.526341E-03	2.740521E-05
6.332368E+03	1.532519E-03	2.750133E-05
6.342293E+03	1.538695E-03	2.759751E-05
6.352219E+03	1.544675E-03	2.769025E-05
6.362144E+03	1.550831E-03	2.778626E-05
6.372069E+03	1.556971E-03	2.788208E-05
6.381995E+03	1.563093E-03	2.797767E-05
6.391920E+03	1.568999E-03	2.806949E-05
6.401845E+03	1.575069E-03	2.816435E-05
6.411771E+03	1.581107E-03	2.825877E-05
6.421696E+03	1.586919E-03	2.834922E-05
6.431621E+03	1.592885E-03	2.844256E-05
6.441547E+03	1.598812E-03	2.853529E-05
6.451472E+03	1.604499E-03	2.862386E-05
6.461397E+03	1.610336E-03	2.871521E-05
6.471323E+03	1.615927E-03	2.880230E-05
6.481248E+03	1.621663E-03	2.889209E-05
6.491173E+03	1.627146E-03	2.897751E-05
6.501099E+03	1.632573E-03	2.906205E-05
6.511024E+03	1.638142E-03	2.914923E-05
6.520949E+03	1.643449E-03	2.923188E-05
6.530875E+03	1.648897E-03	2.931717E-05
6.540800E+03	1.654079E-03	2.939786E-05
6.550725E+03	1.659195E-03	2.947752E-05
6.560651E+03	1.664450E-03	2.955978E-05
6.570576E+03	1.669432E-03	2.963733E-05
6.580501E+03	1.674345E-03	2.971381E-05
6.590427E+03	1.679189E-03	2.978920E-05
6.600352E+03	1.683962E-03	2.986348E-05
6.610277E+03	1.688872E-03	2.994033E-05
6.620203E+03	1.693504E-03	3.001240E-05
6.630128E+03	1.698063E-03	3.008332E-05
6.640054E+03	1.702550E-03	3.015314E-05
6.649979E+03	1.706965E-03	3.022183E-05
6.659904E+03	1.711307E-03	3.028939E-05
6.669830E+03	1.715577E-03	3.035583E-05
6.679755E+03	1.719775E-03	3.042117E-05
6.689680E+03	1.723900E-03	3.048539E-05
6.699606E+03	1.727955E-03	3.054853E-05
6.709531E+03	1.731938E-03	3.061057E-05
6.719456E+03	1.735851E-03	3.067155E-05
6.729382E+03	1.739694E-03	3.073146E-05
6.739307E+03	1.743469E-03	3.079034E-05
6.749232E+03	1.747174E-03	3.084818E-05
6.759158E+03	1.750814E-03	3.090503E-05
6.769083E+03	1.754170E-03	3.095706E-05
6.779008E+03	1.757677E-03	3.101196E-05
6.788934E+03	1.761121E-03	3.106592E-05
6.798859E+03	1.764503E-03	3.111897E-05
6.808784E+03	1.767605E-03	3.116729E-05
6.818710E+03	1.770865E-03	3.121858E-05
6.828635E+03	1.774069E-03	3.126907E-05
6.838560E+03	1.777215E-03	3.131876E-05
6.848486E+03	1.780086E-03	3.136379E-05
6.858411E+03	1.783125E-03	3.141198E-05
6.868336E+03	1.785891E-03	3.145558E-05
6.878262E+03	1.788831E-03	3.150243E-05
6.888187E+03	1.791722E-03	3.154866E-05
6.898112E+03	1.794348E-03	3.159041E-05
6.908038E+03	1.797152E-03	3.163552E-05
6.917963E+03	1.799693E-03	3.167622E-05
6.927888E+03	1.802420E-03	3.172040E-05
6.937814E+03	1.804888E-03	3.176024E-05
6.947739E+03	1.807545E-03	3.180365E-05
6.957664E+03	1.809949E-03	3.184282E-05
6.967590E+03	1.812325E-03	3.188173E-05
6.977515E+03	1.814902E-03	3.192440E-05
6.987440E+03	1.817230E-03	3.196294E-05
6.997366E+03	1.819766E-03	3.200537E-05
7.007291E+03	1.822060E-03	3.204377E-05
7.017216E+03	1.824341E-03	3.208220E-05
7.027142E+03	1.826613E-03	3.212070E-05
7.037067E+03	1.829107E-03	3.216336E-05
7.046993E+03	1.831371E-03	3.220223E-05
7.056918E+03	1.833636E-03	3.224136E-05
7.066843E+03	1.835907E-03	3.228084E-05
7.076769E+03	1.838185E-03	3.232072E-05
7.086694E+03	1.840707E-03	3.236514E-05
7.096619E+03	1.843017E-03	3.240610E-05
7.106545E+03	1.845348E-03	3.244769E-05
7.116470E+03	1.847704E-03	3.248999E-05
7.126395E+03	1.850092E-03	3.253313E-05
7.136321E+03	1.852513E-03	3.257714E-05
7.146246E+03	1.854975E-03	3.262213E-05
7.156171E+03	1.857481E-03	3.266819E-05
7.166097E+03	1.860037E-03	3.271540E-05
7.176022E+03	1.862648E-03	3.276389E-05
7.185947E+03	1.865319E-03	3.281371E-05
7.195873E+03	1.868056E-03	3.286500E-05
7.205798E+03	1.870865E-03	3.291787E-05
7.215723E+03	1.873752E-03	3.297240E-05
7.225649E+03	1.876487E-03	3.302457E-05
7.235574E+03	1.879547E-03	3.308277E-05
7.245499E+03	1.882703E-03	3.314298E-05
7.255425E+03	1.885961E-03	3.320532E-05
7.265350E+03	1.889090E-03	3.326572E-05
7.275275E+03	1.892574E-03	3.333269E-05
7.285201E+03	1.896180E-03	3.340215E-05
7.295126E+03	1.899917E-03	3.347427E-05
7.305051E+03	1.903551E-03	3.354493E-05
7.314977E+03	1.907568E-03	3.362270E-05
7.324902E+03	1.911497E-03	3.369927E-05
7.334827E+03	1.915826E-03	3.378326E-05
7.344753E+03	1.920323E-03	3.387059E-05
7.354678E+03	1.924752E-03	3.395710E-05
7.364603E+03	1.929606E-03	3.405150E-05
7.374529E+03	1.934406E-03	3.414534E-05
7.384454E+03	1.939649E-03	3.424742E-05
7.394379E+03	1.944852E-03	3.434920E-05
7.404305E+03	1.950267E-03	3.445514E-05
7.414230E+03	1.956151E-03	3.456980E-05
7.424156E+03	1.962016E-03	3.468456E-05
7.434081E+03	1.968116E-03	3.480392E-05
7.444006E+03	1.974708E-03	3.493245E-05
7.453932E+03	1.981300E-03	3.506143E-05
7.463857E+03	1.988147E-03	3.519541E-05
7.473782E+03	1.995255E-03	3.533450E-05
7.483708E+03	2.002883E-03	3.548329E-05
7.493633E+03	2.010527E-03	3.563290E-05
7.503558E+03	2.018443E-03	3.578784E-05
7.513484E+03	2.026633E-03	3.594817E-05
7.523409E+03	2.035099E-03	3.611395E-05
7.533334E+03	2.043840E-03	3.628517E-05
7.543260E+03	2.052855E-03	3.646184E-05
7.553185E+03	2.062143E-03	3.664394E-05
7.563110E+03	2.071702E-03	3.683145E-05
7.573036E+03	2.081532E-03	3.702437E-05
7.582961E+03	2.091627E-03	3.722261E-05
7.592886E+03	2.101985E-03	3.742614E-05
7.602812E+03	2.112604E-03	3.763492E-05
7.612737E+03	2.123480E-03	3.784890E-05
7.622662E+03	2.134608E-03	3.806801E-05
7.632588E+03	2.145986E-03	3.829217E-05
7.642513E+03	2.157332E-03	3.851642E-05
7.652438E+03	2.169194E-03	3.875051E-05
7.662364E+03	2.181293E-03	3.898947E-05
7.672289E+03	2.193344E-03	3.922820E-05
7.682214E+03	2.205902E-03	3.947667E-05
7.692140E+03	2.218682E-03	3.972977E-05
7.702065E+03	2.231396E-03	3.998233E-05
