#wls	flux	fluxerr
1.600000E+03	8.133019E-16	4.980639E-16
1.640000E+03	8.320175E-16	5.015018E-16
1.680000E+03	8.522189E-16	5.052497E-16
1.720000E+03	8.739564E-16	5.092759E-16
1.760000E+03	8.973600E-16	5.135903E-16
1.800000E+03	9.226373E-16	5.182384E-16
1.840000E+03	9.496881E-16	5.230850E-16
1.880000E+03	9.788029E-16	5.282077E-16
1.920000E+03	1.010046E-15	5.335487E-16
1.960000E+03	1.043489E-15	5.390492E-16
2.000000E+03	1.079142E-15	5.446124E-16
2.040000E+03	1.117104E-15	5.501828E-16
2.080000E+03	1.157343E-15	5.556352E-16
2.120000E+03	1.199708E-15	5.607866E-16
2.160000E+03	1.244292E-15	5.655728E-16
2.200000E+03	1.290930E-15	5.698087E-16
2.240000E+03	1.339568E-15	5.733645E-16
2.280000E+03	1.390332E-15	5.761882E-16
2.320000E+03	1.443532E-15	5.782953E-16
2.360000E+03	1.499737E-15	5.797837E-16
2.400000E+03	1.559635E-15	5.807663E-16
2.440000E+03	1.623979E-15	5.813403E-16
2.480000E+03	1.693810E-15	5.816603E-16
2.520000E+03	1.770054E-15	5.817847E-16
2.560000E+03	1.853894E-15	5.818015E-16
2.600000E+03	1.946442E-15	5.817123E-16
2.640000E+03	2.049049E-15	5.815267E-16
2.680000E+03	2.163116E-15	5.811979E-16
2.720000E+03	2.290269E-15	5.806651E-16
2.760000E+03	2.432379E-15	5.798498E-16
2.800000E+03	2.591516E-15	5.786325E-16
2.840000E+03	2.770027E-15	5.768650E-16
2.880000E+03	2.970674E-15	5.743919E-16
2.920000E+03	3.196270E-15	5.709721E-16
2.960000E+03	3.450099E-15	5.663714E-16
3.000000E+03	3.735014E-15	5.602256E-16
3.010000E+03	3.811507E-15	5.584154E-16
3.020000E+03	3.890072E-15	5.564666E-16
3.030000E+03	3.970720E-15	5.543703E-16
3.040000E+03	4.053631E-15	5.521419E-16
3.050000E+03	4.138713E-15	5.497585E-16
3.060000E+03	4.225951E-15	5.472100E-16
3.070000E+03	4.315409E-15	5.444974E-16
3.080000E+03	4.406957E-15	5.415979E-16
3.090000E+03	4.500538E-15	5.385006E-16
3.100000E+03	4.596268E-15	5.352167E-16
3.110000E+03	4.693866E-15	5.317121E-16
3.120000E+03	4.793314E-15	5.279864E-16
3.130000E+03	4.894378E-15	5.240177E-16
3.140000E+03	4.997185E-15	5.198257E-16
3.150000E+03	5.101252E-15	5.153681E-16
3.160000E+03	5.206451E-15	5.106443E-16
3.170000E+03	5.312624E-15	5.056535E-16
3.180000E+03	5.419480E-15	5.003850E-16
3.190000E+03	5.526483E-15	4.948105E-16
3.200000E+03	5.633567E-15	4.889487E-16
3.210000E+03	5.740114E-15	4.827727E-16
3.220000E+03	5.845770E-15	4.762839E-16
3.230000E+03	5.949934E-15	4.694668E-16
3.240000E+03	6.052168E-15	4.623240E-16
3.250000E+03	6.151893E-15	4.548500E-16
3.260000E+03	6.248490E-15	4.470405E-16
3.270000E+03	6.341201E-15	4.388847E-16
3.280000E+03	6.429450E-15	4.303883E-16
3.290000E+03	6.512536E-15	4.215500E-16
3.300000E+03	6.589636E-15	4.123635E-16
3.310000E+03	6.660138E-15	4.028378E-16
3.320000E+03	6.723221E-15	3.929702E-16
3.330000E+03	6.778301E-15	3.827734E-16
3.340000E+03	6.824612E-15	3.722504E-16
3.350000E+03	6.861542E-15	3.614137E-16
3.360000E+03	6.888546E-15	3.502798E-16
3.370000E+03	6.905152E-15	3.388695E-16
3.380000E+03	6.910988E-15	3.272089E-16
3.390000E+03	6.905684E-15	3.153250E-16
3.400000E+03	6.889201E-15	3.032607E-16
3.410000E+03	6.861333E-15	2.910520E-16
3.420000E+03	6.822417E-15	2.787590E-16
3.430000E+03	6.772554E-15	2.664320E-16
3.440000E+03	6.712200E-15	2.541361E-16
3.450000E+03	6.641972E-15	2.419425E-16
3.460000E+03	6.562558E-15	2.299242E-16
3.470000E+03	6.474978E-15	2.181645E-16
3.480000E+03	6.380219E-15	2.067434E-16
3.490000E+03	6.279410E-15	1.957425E-16
3.500000E+03	6.173882E-15	1.852457E-16
3.510000E+03	6.064994E-15	1.753319E-16
3.520000E+03	5.954268E-15	1.660698E-16
3.530000E+03	5.842713E-15	1.574767E-16
3.540000E+03	5.731648E-15	1.495666E-16
3.550000E+03	5.622208E-15	1.423367E-16
3.560000E+03	5.515266E-15	1.357428E-16
3.570000E+03	5.411538E-15	1.297321E-16
3.580000E+03	5.311819E-15	1.242556E-16
3.590000E+03	5.216845E-15	1.192551E-16
3.600000E+03	5.127107E-15	1.146735E-16
3.610000E+03	5.043340E-15	1.104676E-16
3.620000E+03	4.965999E-15	1.065894E-16
3.630000E+03	4.895485E-15	1.029999E-16
3.640000E+03	4.832221E-15	9.966918E-17
3.650000E+03	4.776429E-15	9.656125E-17
3.660000E+03	4.728192E-15	9.364624E-17
3.670000E+03	4.687702E-15	9.090418E-17
3.680000E+03	4.654657E-15	8.830059E-17
3.690000E+03	4.628859E-15	8.581151E-17
3.700000E+03	4.610040E-15	8.342186E-17
3.710000E+03	4.597828E-15	8.111732E-17
3.720000E+03	4.591719E-15	7.889243E-17
3.730000E+03	4.591273E-15	7.675305E-17
3.740000E+03	4.595858E-15	7.470069E-17
3.750000E+03	4.604844E-15	7.274757E-17
3.760000E+03	4.617521E-15	7.091007E-17
3.770000E+03	4.633122E-15	6.918320E-17
3.780000E+03	4.650809E-15	6.756550E-17
3.790000E+03	4.669756E-15	6.605855E-17
3.800000E+03	4.689299E-15	6.463820E-17
3.810000E+03	4.708599E-15	6.328095E-17
3.820000E+03	4.727055E-15	6.197498E-17
3.830000E+03	4.744108E-15	6.069849E-17
3.840000E+03	4.759172E-15	5.944003E-17
3.850000E+03	4.771852E-15	5.820041E-17
3.860000E+03	4.781770E-15	5.696550E-17
3.870000E+03	4.788638E-15	5.573452E-17
3.880000E+03	4.792313E-15	5.452225E-17
3.890000E+03	4.792603E-15	5.333211E-17
3.900000E+03	4.789557E-15	5.218608E-17
3.910000E+03	4.783307E-15	5.111864E-17
3.920000E+03	4.773933E-15	5.013665E-17
3.930000E+03	4.761620E-15	4.925878E-17
3.940000E+03	4.746630E-15	4.850790E-17
3.950000E+03	4.729115E-15	4.785360E-17
3.960000E+03	4.709231E-15	4.727130E-17
3.970000E+03	4.687163E-15	4.675009E-17
3.980000E+03	4.663166E-15	4.625454E-17
3.990000E+03	4.637424E-15	4.576666E-17
4.000000E+03	4.610247E-15	4.529232E-17
4.010000E+03	4.581845E-15	4.482758E-17
4.020000E+03	4.552431E-15	4.438842E-17
4.030000E+03	4.522333E-15	4.399719E-17
4.040000E+03	4.491511E-15	4.361552E-17
4.050000E+03	4.460005E-15	4.321240E-17
4.060000E+03	4.427875E-15	4.277669E-17
4.070000E+03	4.395174E-15	4.228820E-17
4.080000E+03	4.362008E-15	4.175025E-17
4.090000E+03	4.328617E-15	4.119000E-17
4.100000E+03	4.295301E-15	4.062637E-17
4.110000E+03	4.262489E-15	4.009908E-17
4.120000E+03	4.230794E-15	3.965798E-17
4.130000E+03	4.200902E-15	3.930862E-17
4.140000E+03	4.173722E-15	3.906359E-17
4.150000E+03	4.150132E-15	3.893589E-17
4.160000E+03	4.130835E-15	3.887970E-17
4.170000E+03	4.116552E-15	3.885361E-17
4.180000E+03	4.107969E-15	3.883079E-17
4.190000E+03	4.105377E-15	3.876254E-17
4.200000E+03	4.109029E-15	3.861768E-17
4.210000E+03	4.119156E-15	3.838677E-17
4.220000E+03	4.135687E-15	3.805452E-17
4.230000E+03	4.158462E-15	3.762906E-17
4.240000E+03	4.187321E-15	3.714333E-17
4.250000E+03	4.221895E-15	3.662532E-17
4.260000E+03	4.261697E-15	3.613067E-17
4.270000E+03	4.306078E-15	3.573622E-17
4.280000E+03	4.354241E-15	3.548754E-17
4.290000E+03	4.405219E-15	3.544391E-17
4.300000E+03	4.457937E-15	3.564935E-17
4.310000E+03	4.511147E-15	3.601147E-17
4.320000E+03	4.563445E-15	3.642059E-17
4.330000E+03	4.613483E-15	3.679414E-17
4.340000E+03	4.659789E-15	3.704980E-17
4.350000E+03	4.701042E-15	3.714902E-17
4.360000E+03	4.735915E-15	3.709722E-17
4.370000E+03	4.763459E-15	3.690535E-17
4.380000E+03	4.782847E-15	3.662785E-17
4.390000E+03	4.793533E-15	3.634686E-17
4.400000E+03	4.795576E-15	3.609021E-17
4.410000E+03	4.789420E-15	3.590496E-17
4.420000E+03	4.775584E-15	3.584727E-17
4.430000E+03	4.754644E-15	3.588860E-17
4.440000E+03	4.727423E-15	3.600816E-17
4.450000E+03	4.694682E-15	3.619217E-17
4.460000E+03	4.656767E-15	3.634687E-17
4.470000E+03	4.614082E-15	3.639384E-17
4.480000E+03	4.566982E-15	3.628790E-17
4.490000E+03	4.515773E-15	3.597553E-17
4.500000E+03	4.460777E-15	3.543842E-17
4.510000E+03	4.402369E-15	3.469554E-17
4.520000E+03	4.340944E-15	3.376903E-17
4.530000E+03	4.276976E-15	3.271400E-17
4.540000E+03	4.211011E-15	3.160269E-17
4.550000E+03	4.143588E-15	3.046025E-17
4.560000E+03	4.075273E-15	2.933033E-17
4.570000E+03	4.006698E-15	2.827335E-17
4.580000E+03	3.938623E-15	2.730202E-17
4.590000E+03	3.871708E-15	2.644867E-17
4.600000E+03	3.806640E-15	2.575449E-17
4.610000E+03	3.743970E-15	2.517971E-17
4.620000E+03	3.684198E-15	2.470182E-17
4.630000E+03	3.627699E-15	2.432676E-17
4.640000E+03	3.574826E-15	2.402812E-17
4.650000E+03	3.525670E-15	2.380697E-17
4.660000E+03	3.480538E-15	2.368464E-17
4.670000E+03	3.439553E-15	2.362272E-17
4.680000E+03	3.402853E-15	2.359996E-17
4.690000E+03	3.370616E-15	2.361619E-17
4.700000E+03	3.343056E-15	2.363241E-17
4.710000E+03	3.320506E-15	2.363250E-17
4.720000E+03	3.303214E-15	2.362762E-17
4.730000E+03	3.291358E-15	2.361346E-17
4.740000E+03	3.285175E-15	2.361110E-17
4.750000E+03	3.284735E-15	2.365486E-17
4.760000E+03	3.289772E-15	2.372735E-17
4.770000E+03	3.299749E-15	2.382136E-17
4.780000E+03	3.314275E-15	2.394715E-17
4.790000E+03	3.332597E-15	2.407747E-17
4.800000E+03	3.353922E-15	2.419760E-17
4.810000E+03	3.377711E-15	2.430994E-17
4.820000E+03	3.403597E-15	2.438878E-17
4.830000E+03	3.431365E-15	2.441637E-17
4.840000E+03	3.461040E-15	2.438944E-17
4.850000E+03	3.492596E-15	2.427546E-17
4.860000E+03	3.525973E-15	2.406468E-17
4.870000E+03	3.561094E-15	2.377508E-17
4.880000E+03	3.597701E-15	2.340586E-17
4.890000E+03	3.635355E-15	2.299194E-17
4.900000E+03	3.673595E-15	2.260409E-17
4.910000E+03	3.711675E-15	2.228126E-17
4.920000E+03	3.748850E-15	2.209887E-17
4.930000E+03	3.784381E-15	2.213848E-17
4.940000E+03	3.817920E-15	2.234574E-17
4.950000E+03	3.849290E-15	2.266806E-17
4.960000E+03	3.878295E-15	2.308070E-17
4.970000E+03	3.905158E-15	2.350216E-17
4.980000E+03	3.930138E-15	2.388587E-17
4.990000E+03	3.953541E-15	2.422816E-17
5.000000E+03	3.975541E-15	2.449026E-17
5.010000E+03	3.996477E-15	2.467139E-17
5.020000E+03	4.016490E-15	2.480154E-17
5.030000E+03	4.035404E-15	2.485570E-17
5.040000E+03	4.053065E-15	2.483800E-17
5.050000E+03	4.069235E-15	2.478062E-17
5.060000E+03	4.083383E-15	2.465587E-17
5.070000E+03	4.094985E-15	2.446904E-17
5.080000E+03	4.103618E-15	2.426413E-17
5.090000E+03	4.108804E-15	2.404018E-17
5.100000E+03	4.110228E-15	2.384054E-17
5.110000E+03	4.107761E-15	2.374460E-17
5.120000E+03	4.101241E-15	2.375520E-17
5.130000E+03	4.090839E-15	2.390382E-17
5.140000E+03	4.076668E-15	2.422902E-17
5.150000E+03	4.059110E-15	2.463535E-17
5.160000E+03	4.038574E-15	2.503859E-17
5.170000E+03	4.015634E-15	2.540034E-17
5.180000E+03	3.990805E-15	2.566208E-17
5.190000E+03	3.964668E-15	2.580837E-17
5.200000E+03	3.937891E-15	2.586117E-17
5.210000E+03	3.910809E-15	2.580789E-17
5.220000E+03	3.883916E-15	2.566397E-17
5.230000E+03	3.857465E-15	2.545998E-17
5.240000E+03	3.831312E-15	2.516140E-17
5.250000E+03	3.805247E-15	2.475108E-17
5.260000E+03	3.779101E-15	2.424176E-17
5.270000E+03	3.752395E-15	2.362436E-17
5.280000E+03	3.724823E-15	2.292805E-17
5.290000E+03	3.696107E-15	2.221414E-17
5.300000E+03	3.665977E-15	2.150676E-17
5.310000E+03	3.634247E-15	2.087209E-17
5.320000E+03	3.600997E-15	2.041175E-17
5.330000E+03	3.566426E-15	2.016492E-17
5.340000E+03	3.530996E-15	2.019378E-17
5.350000E+03	3.495221E-15	2.054144E-17
5.360000E+03	3.459532E-15	2.107015E-17
5.370000E+03	3.424299E-15	2.163696E-17
5.380000E+03	3.390099E-15	2.214939E-17
5.390000E+03	3.357251E-15	2.251947E-17
5.400000E+03	3.326118E-15	2.270455E-17
5.410000E+03	3.297037E-15	2.270511E-17
5.420000E+03	3.270256E-15	2.253002E-17
5.430000E+03	3.246041E-15	2.222103E-17
5.440000E+03	3.224518E-15	2.183839E-17
5.450000E+03	3.205691E-15	2.140689E-17
5.460000E+03	3.189446E-15	2.096781E-17
5.470000E+03	3.175729E-15	2.057257E-17
5.480000E+03	3.164460E-15	2.021349E-17
5.490000E+03	3.155410E-15	1.989355E-17
5.500000E+03	3.148453E-15	1.962535E-17
5.510000E+03	3.143219E-15	1.935270E-17
5.520000E+03	3.139394E-15	1.903792E-17
5.530000E+03	3.136500E-15	1.867568E-17
5.540000E+03	3.134140E-15	1.824410E-17
5.550000E+03	3.131839E-15	1.776275E-17
5.560000E+03	3.129243E-15	1.728730E-17
5.570000E+03	3.126021E-15	1.683222E-17
5.580000E+03	3.121927E-15	1.645225E-17
5.590000E+03	3.116767E-15	1.622724E-17
5.600000E+03	3.110792E-15	1.614586E-17
5.610000E+03	3.104235E-15	1.621788E-17
5.620000E+03	3.097376E-15	1.646574E-17
5.630000E+03	3.090490E-15	1.679277E-17
5.640000E+03	3.083804E-15	1.711956E-17
5.650000E+03	3.077502E-15	1.741079E-17
5.660000E+03	3.071467E-15	1.760304E-17
5.670000E+03	3.065577E-15	1.767411E-17
5.680000E+03	3.059646E-15	1.764338E-17
5.690000E+03	3.053222E-15	1.750875E-17
5.700000E+03	3.045800E-15	1.730676E-17
5.710000E+03	3.036857E-15	1.710317E-17
5.720000E+03	3.025839E-15	1.691043E-17
5.730000E+03	3.012065E-15	1.676654E-17
5.740000E+03	2.995081E-15	1.672186E-17
5.750000E+03	2.974655E-15	1.672748E-17
5.760000E+03	2.950633E-15	1.675245E-17
5.770000E+03	2.923053E-15	1.680770E-17
5.780000E+03	2.892308E-15	1.688474E-17
5.790000E+03	2.858839E-15	1.701305E-17
5.800000E+03	2.823215E-15	1.723905E-17
5.810000E+03	2.786336E-15	1.752862E-17
5.820000E+03	2.749042E-15	1.785817E-17
5.830000E+03	2.712225E-15	1.822603E-17
5.840000E+03	2.676609E-15	1.859144E-17
5.850000E+03	2.642885E-15	1.893233E-17
5.860000E+03	2.611703E-15	1.924744E-17
5.870000E+03	2.583363E-15	1.950989E-17
5.880000E+03	2.558234E-15	1.970713E-17
5.890000E+03	2.536521E-15	1.983354E-17
5.900000E+03	2.518074E-15	1.984343E-17
5.910000E+03	2.502680E-15	1.969838E-17
5.920000E+03	2.490141E-15	1.938018E-17
5.930000E+03	2.480205E-15	1.887873E-17
5.940000E+03	2.472542E-15	1.820682E-17
5.950000E+03	2.466888E-15	1.740442E-17
5.960000E+03	2.462969E-15	1.652939E-17
5.970000E+03	2.460481E-15	1.566992E-17
5.980000E+03	2.459049E-15	1.491668E-17
5.990000E+03	2.458301E-15	1.428062E-17
6.000000E+03	2.457695E-15	1.377329E-17
6.010000E+03	2.456913E-15	1.341189E-17
6.020000E+03	2.455665E-15	1.314072E-17
6.030000E+03	2.453791E-15	1.292175E-17
6.040000E+03	2.451235E-15	1.274450E-17
6.050000E+03	2.448219E-15	1.255722E-17
6.060000E+03	2.445064E-15	1.234365E-17
6.070000E+03	2.442048E-15	1.212762E-17
6.080000E+03	2.439701E-15	1.190926E-17
6.090000E+03	2.438429E-15	1.172889E-17
6.100000E+03	2.438720E-15	1.164990E-17
6.110000E+03	2.440751E-15	1.164898E-17
6.120000E+03	2.444664E-15	1.172268E-17
6.130000E+03	2.450559E-15	1.188983E-17
6.140000E+03	2.458203E-15	1.208915E-17
6.150000E+03	2.467262E-15	1.228176E-17
6.160000E+03	2.477461E-15	1.246333E-17
6.170000E+03	2.488478E-15	1.258883E-17
6.180000E+03	2.499916E-15	1.264580E-17
6.190000E+03	2.511547E-15	1.265904E-17
6.200000E+03	2.523118E-15	1.262299E-17
6.210000E+03	2.534458E-15	1.257209E-17
6.220000E+03	2.545407E-15	1.257743E-17
6.230000E+03	2.555841E-15	1.266355E-17
6.240000E+03	2.565730E-15	1.288454E-17
6.250000E+03	2.574997E-15	1.329372E-17
6.260000E+03	2.583467E-15	1.380319E-17
6.270000E+03	2.590927E-15	1.432340E-17
6.280000E+03	2.597229E-15	1.480612E-17
6.290000E+03	2.602168E-15	1.519925E-17
6.300000E+03	2.605564E-15	1.548863E-17
6.310000E+03	2.607313E-15	1.569018E-17
6.320000E+03	2.607343E-15	1.579210E-17
6.330000E+03	2.605561E-15	1.580490E-17
6.340000E+03	2.602008E-15	1.576089E-17
6.350000E+03	2.596773E-15	1.566022E-17
6.360000E+03	2.589950E-15	1.552199E-17
6.370000E+03	2.581790E-15	1.537901E-17
6.380000E+03	2.572397E-15	1.521089E-17
6.390000E+03	2.561931E-15	1.501333E-17
6.400000E+03	2.550597E-15	1.480624E-17
6.410000E+03	2.538603E-15	1.458463E-17
6.420000E+03	2.526052E-15	1.437078E-17
6.430000E+03	2.513160E-15	1.420887E-17
6.440000E+03	2.500025E-15	1.409660E-17
6.450000E+03	2.486647E-15	1.405002E-17
6.460000E+03	2.472997E-15	1.409824E-17
6.470000E+03	2.459073E-15	1.421002E-17
6.480000E+03	2.444918E-15	1.436989E-17
6.490000E+03	2.430473E-15	1.458115E-17
6.500000E+03	2.415845E-15	1.480415E-17
6.510000E+03	2.401122E-15	1.501584E-17
6.520000E+03	2.386384E-15	1.521016E-17
6.530000E+03	2.371720E-15	1.534314E-17
6.540000E+03	2.357221E-15	1.538526E-17
6.550000E+03	2.343011E-15	1.532870E-17
6.560000E+03	2.329134E-15	1.515435E-17
6.570000E+03	2.315699E-15	1.486515E-17
6.580000E+03	2.302754E-15	1.448585E-17
6.590000E+03	2.290270E-15	1.403328E-17
6.600000E+03	2.278261E-15	1.355266E-17
6.610000E+03	2.266703E-15	1.311438E-17
6.620000E+03	2.255393E-15	1.276828E-17
6.630000E+03	2.244200E-15	1.258940E-17
6.640000E+03	2.232951E-15	1.264598E-17
6.650000E+03	2.221581E-15	1.289010E-17
6.660000E+03	2.209916E-15	1.326492E-17
6.670000E+03	2.197897E-15	1.373131E-17
6.680000E+03	2.185517E-15	1.421632E-17
6.690000E+03	2.172777E-15	1.466771E-17
6.700000E+03	2.159683E-15	1.506083E-17
6.710000E+03	2.146277E-15	1.536718E-17
6.720000E+03	2.132673E-15	1.557894E-17
6.730000E+03	2.118939E-15	1.570649E-17
6.740000E+03	2.105204E-15	1.575371E-17
6.750000E+03	2.091506E-15	1.573798E-17
6.760000E+03	2.078037E-15	1.568733E-17
6.770000E+03	2.064771E-15	1.560652E-17
6.780000E+03	2.051837E-15	1.550978E-17
6.790000E+03	2.039218E-15	1.541749E-17
6.800000E+03	2.026940E-15	1.532617E-17
6.810000E+03	2.014995E-15	1.523991E-17
6.820000E+03	2.003357E-15	1.517021E-17
6.830000E+03	1.992043E-15	1.510554E-17
6.840000E+03	1.981010E-15	1.504176E-17
6.850000E+03	1.970322E-15	1.498204E-17
6.860000E+03	1.959958E-15	1.490250E-17
6.870000E+03	1.950070E-15	1.478914E-17
6.880000E+03	1.940714E-15	1.464163E-17
6.890000E+03	1.931962E-15	1.445422E-17
6.900000E+03	1.923857E-15	1.423718E-17
6.910000E+03	1.916539E-15	1.401665E-17
6.920000E+03	1.909872E-15	1.380780E-17
6.930000E+03	1.903926E-15	1.364082E-17
6.940000E+03	1.898559E-15	1.354782E-17
6.950000E+03	1.893570E-15	1.351790E-17
6.960000E+03	1.888771E-15	1.354279E-17
6.970000E+03	1.883916E-15	1.362117E-17
6.980000E+03	1.878780E-15	1.372640E-17
6.990000E+03	1.873161E-15	1.384212E-17
7.000000E+03	1.866902E-15	1.396641E-17
7.010000E+03	1.859888E-15	1.408690E-17
7.020000E+03	1.852024E-15	1.420346E-17
7.030000E+03	1.843373E-15	1.432402E-17
7.040000E+03	1.833836E-15	1.442872E-17
7.050000E+03	1.823587E-15	1.450602E-17
7.060000E+03	1.812632E-15	1.455493E-17
7.070000E+03	1.801138E-15	1.456963E-17
7.080000E+03	1.789216E-15	1.455586E-17
7.090000E+03	1.777045E-15	1.453021E-17
7.100000E+03	1.764754E-15	1.449798E-17
7.110000E+03	1.752402E-15	1.447206E-17
7.120000E+03	1.740178E-15	1.447025E-17
7.130000E+03	1.728057E-15	1.448455E-17
7.140000E+03	1.716109E-15	1.451093E-17
7.150000E+03	1.704413E-15	1.455057E-17
7.160000E+03	1.692948E-15	1.458809E-17
7.170000E+03	1.681797E-15	1.461483E-17
7.180000E+03	1.670979E-15	1.462883E-17
7.190000E+03	1.660599E-15	1.461955E-17
7.200000E+03	1.650690E-15	1.458258E-17
7.210000E+03	1.641296E-15	1.451929E-17
7.220000E+03	1.632428E-15	1.441853E-17
7.230000E+03	1.624071E-15	1.427508E-17
7.240000E+03	1.616191E-15	1.409231E-17
7.250000E+03	1.608744E-15	1.387062E-17
7.260000E+03	1.601697E-15	1.362037E-17
7.270000E+03	1.595029E-15	1.336047E-17
7.280000E+03	1.588671E-15	1.310194E-17
7.290000E+03	1.582498E-15	1.286396E-17
7.300000E+03	1.576529E-15	1.267147E-17
7.310000E+03	1.570650E-15	1.252705E-17
7.320000E+03	1.564759E-15	1.243727E-17
7.330000E+03	1.558835E-15	1.241150E-17
7.340000E+03	1.552769E-15	1.243168E-17
7.350000E+03	1.546533E-15	1.248353E-17
7.360000E+03	1.540118E-15	1.255968E-17
7.370000E+03	1.533526E-15	1.263899E-17
7.380000E+03	1.526841E-15	1.270821E-17
7.390000E+03	1.520032E-15	1.276069E-17
7.400000E+03	1.513283E-15	1.278006E-17
7.410000E+03	1.506656E-15	1.275642E-17
7.420000E+03	1.500313E-15	1.269073E-17
7.430000E+03	1.494371E-15	1.258197E-17
7.440000E+03	1.488976E-15	1.243949E-17
7.450000E+03	1.484297E-15	1.228183E-17
7.460000E+03	1.480435E-15	1.212131E-17
7.470000E+03	1.477611E-15	1.197983E-17
7.480000E+03	1.475861E-15	1.188255E-17
7.490000E+03	1.475266E-15	1.183659E-17
7.500000E+03	1.475795E-15	1.185169E-17
7.510000E+03	1.477515E-15	1.194055E-17
7.520000E+03	1.480230E-15	1.209070E-17
7.530000E+03	1.483753E-15	1.229203E-17
7.540000E+03	1.487924E-15	1.254003E-17
7.550000E+03	1.492487E-15	1.281656E-17
7.560000E+03	1.497250E-15	1.310937E-17
7.570000E+03	1.501902E-15	1.341023E-17
7.580000E+03	1.506221E-15	1.369775E-17
7.590000E+03	1.510003E-15	1.395530E-17
7.600000E+03	1.512992E-15	1.417308E-17
7.610000E+03	1.515009E-15	1.433733E-17
7.620000E+03	1.515826E-15	1.444134E-17
7.630000E+03	1.515339E-15	1.448764E-17
7.640000E+03	1.513311E-15	1.447497E-17
7.650000E+03	1.509665E-15	1.441095E-17
7.660000E+03	1.504217E-15	1.430624E-17
7.670000E+03	1.496920E-15	1.415967E-17
7.680000E+03	1.487624E-15	1.397303E-17
7.690000E+03	1.476366E-15	1.375567E-17
7.700000E+03	1.463113E-15	1.351006E-17
7.710000E+03	1.447919E-15	1.324589E-17
7.720000E+03	1.430895E-15	1.297901E-17
7.730000E+03	1.412193E-15	1.271760E-17
7.740000E+03	1.392017E-15	1.247485E-17
7.750000E+03	1.370580E-15	1.226435E-17
7.760000E+03	1.348213E-15	1.207997E-17
