#wls	flux	fluxerr
1.600000E+03	7.930289E-16	4.865183E-16
1.640000E+03	8.109449E-16	4.897288E-16
1.680000E+03	8.302971E-16	4.932460E-16
1.720000E+03	8.511337E-16	4.970396E-16
1.760000E+03	8.735805E-16	5.011198E-16
1.800000E+03	8.978388E-16	5.055321E-16
1.840000E+03	9.238103E-16	5.101455E-16
1.880000E+03	9.517770E-16	5.150368E-16
1.920000E+03	9.818001E-16	5.201508E-16
1.960000E+03	1.013950E-15	5.254317E-16
2.000000E+03	1.048234E-15	5.307866E-16
2.040000E+03	1.084750E-15	5.361632E-16
2.080000E+03	1.123465E-15	5.414410E-16
2.120000E+03	1.164231E-15	5.464440E-16
2.160000E+03	1.207140E-15	5.511111E-16
2.200000E+03	1.252029E-15	5.552642E-16
2.240000E+03	1.298845E-15	5.587781E-16
2.280000E+03	1.347707E-15	5.616041E-16
2.320000E+03	1.398912E-15	5.637581E-16
2.360000E+03	1.453005E-15	5.653366E-16
2.400000E+03	1.510643E-15	5.664502E-16
2.440000E+03	1.572541E-15	5.671937E-16
2.480000E+03	1.639688E-15	5.677175E-16
2.520000E+03	1.712951E-15	5.680774E-16
2.560000E+03	1.793438E-15	5.683576E-16
2.600000E+03	1.882170E-15	5.685566E-16
2.640000E+03	1.980378E-15	5.686798E-16
2.680000E+03	2.089314E-15	5.686751E-16
2.720000E+03	2.210404E-15	5.684751E-16
2.760000E+03	2.345262E-15	5.679922E-16
2.800000E+03	2.495613E-15	5.670954E-16
2.840000E+03	2.663347E-15	5.656227E-16
2.880000E+03	2.850618E-15	5.634004E-16
2.920000E+03	3.059435E-15	5.601680E-16
2.960000E+03	3.292015E-15	5.556674E-16
3.000000E+03	3.549844E-15	5.495116E-16
3.010000E+03	3.618454E-15	5.476787E-16
3.020000E+03	3.688636E-15	5.456986E-16
3.030000E+03	3.760368E-15	5.435623E-16
3.040000E+03	3.833792E-15	5.412842E-16
3.050000E+03	3.908783E-15	5.388417E-16
3.060000E+03	3.985290E-15	5.362241E-16
3.070000E+03	4.063338E-15	5.334322E-16
3.080000E+03	4.142763E-15	5.304431E-16
3.090000E+03	4.223471E-15	5.272459E-16
3.100000E+03	4.305528E-15	5.238508E-16
3.110000E+03	4.388629E-15	5.202243E-16
3.120000E+03	4.472713E-15	5.163656E-16
3.130000E+03	4.557517E-15	5.122527E-16
3.140000E+03	4.643119E-15	5.079047E-16
3.150000E+03	4.729023E-15	5.032796E-16
3.160000E+03	4.815073E-15	4.983765E-16
3.170000E+03	4.901084E-15	4.931944E-16
3.180000E+03	4.986752E-15	4.877224E-16
3.190000E+03	5.071551E-15	4.819324E-16
3.200000E+03	5.155395E-15	4.758425E-16
3.210000E+03	5.237700E-15	4.694263E-16
3.220000E+03	5.318131E-15	4.626850E-16
3.230000E+03	5.396136E-15	4.556036E-16
3.240000E+03	5.471327E-15	4.481850E-16
3.250000E+03	5.543196E-15	4.404247E-16
3.260000E+03	5.611217E-15	4.323196E-16
3.270000E+03	5.674750E-15	4.238609E-16
3.280000E+03	5.733340E-15	4.150562E-16
3.290000E+03	5.786434E-15	4.059076E-16
3.300000E+03	5.833386E-15	3.964125E-16
3.310000E+03	5.873758E-15	3.865844E-16
3.320000E+03	5.906946E-15	3.764263E-16
3.330000E+03	5.932569E-15	3.659568E-16
3.340000E+03	5.950104E-15	3.551858E-16
3.350000E+03	5.959177E-15	3.441332E-16
3.360000E+03	5.959485E-15	3.328229E-16
3.370000E+03	5.950802E-15	3.212834E-16
3.380000E+03	5.932990E-15	3.095476E-16
3.390000E+03	5.905924E-15	2.976491E-16
3.400000E+03	5.869758E-15	2.856358E-16
3.410000E+03	5.824505E-15	2.735475E-16
3.420000E+03	5.770630E-15	2.614458E-16
3.430000E+03	5.708387E-15	2.493808E-16
3.440000E+03	5.638314E-15	2.374148E-16
3.450000E+03	5.561068E-15	2.256134E-16
3.460000E+03	5.477338E-15	2.140417E-16
3.470000E+03	5.388065E-15	2.027724E-16
3.480000E+03	5.294136E-15	1.918723E-16
3.490000E+03	5.196519E-15	1.814080E-16
3.500000E+03	5.096312E-15	1.714447E-16
3.510000E+03	4.994569E-15	1.620379E-16
3.520000E+03	4.892436E-15	1.532323E-16
3.530000E+03	4.790734E-15	1.450452E-16
3.540000E+03	4.690449E-15	1.374846E-16
3.550000E+03	4.592346E-15	1.305377E-16
3.560000E+03	4.497126E-15	1.241765E-16
3.570000E+03	4.405290E-15	1.183592E-16
3.580000E+03	4.317332E-15	1.130415E-16
3.590000E+03	4.233782E-15	1.081788E-16
3.600000E+03	4.154920E-15	1.037227E-16
3.610000E+03	4.081181E-15	9.963302E-17
3.620000E+03	4.012845E-15	9.587018E-17
3.630000E+03	3.950099E-15	9.239787E-17
3.640000E+03	3.893109E-15	8.918430E-17
3.650000E+03	3.842000E-15	8.620061E-17
3.660000E+03	3.796730E-15	8.341864E-17
3.670000E+03	3.757303E-15	8.081519E-17
3.680000E+03	3.723461E-15	7.836452E-17
3.690000E+03	3.694998E-15	7.604666E-17
3.700000E+03	3.671616E-15	7.384539E-17
3.710000E+03	3.653004E-15	7.174990E-17
3.720000E+03	3.638732E-15	6.975313E-17
3.730000E+03	3.628408E-15	6.785410E-17
3.740000E+03	3.621559E-15	6.605400E-17
3.750000E+03	3.617713E-15	6.435693E-17
3.760000E+03	3.616335E-15	6.276543E-17
3.770000E+03	3.616905E-15	6.127840E-17
3.780000E+03	3.618862E-15	5.989072E-17
3.790000E+03	3.621660E-15	5.859322E-17
3.800000E+03	3.624898E-15	5.737275E-17
3.810000E+03	3.628035E-15	5.621120E-17
3.820000E+03	3.630723E-15	5.509377E-17
3.830000E+03	3.632660E-15	5.400727E-17
3.840000E+03	3.633497E-15	5.294065E-17
3.850000E+03	3.633002E-15	5.188743E-17
3.860000E+03	3.631013E-15	5.084356E-17
3.870000E+03	3.627387E-15	4.980903E-17
3.880000E+03	3.622031E-15	4.878907E-17
3.890000E+03	3.614866E-15	4.779212E-17
3.900000E+03	3.605932E-15	4.683204E-17
3.910000E+03	3.595276E-15	4.592402E-17
3.920000E+03	3.582969E-15	4.508047E-17
3.930000E+03	3.569104E-15	4.431122E-17
3.940000E+03	3.553784E-15	4.361971E-17
3.950000E+03	3.537130E-15	4.299889E-17
3.960000E+03	3.519231E-15	4.243601E-17
3.970000E+03	3.500159E-15	4.191700E-17
3.980000E+03	3.480093E-15	4.142836E-17
3.990000E+03	3.459131E-15	4.095992E-17
4.000000E+03	3.437447E-15	4.050887E-17
4.010000E+03	3.415184E-15	4.007631E-17
4.020000E+03	3.392447E-15	3.966561E-17
4.030000E+03	3.369399E-15	3.927668E-17
4.040000E+03	3.346059E-15	3.889761E-17
4.050000E+03	3.322477E-15	3.851326E-17
4.060000E+03	3.298682E-15	3.811143E-17
4.070000E+03	3.274727E-15	3.768524E-17
4.080000E+03	3.250704E-15	3.723669E-17
4.090000E+03	3.226800E-15	3.677724E-17
4.100000E+03	3.203223E-15	3.632388E-17
4.110000E+03	3.180291E-15	3.589882E-17
4.120000E+03	3.158468E-15	3.552412E-17
4.130000E+03	3.138200E-15	3.521320E-17
4.140000E+03	3.120073E-15	3.497362E-17
4.150000E+03	3.104644E-15	3.480322E-17
4.160000E+03	3.092424E-15	3.468669E-17
4.170000E+03	3.083871E-15	3.460211E-17
4.180000E+03	3.079353E-15	3.452641E-17
4.190000E+03	3.079115E-15	3.443629E-17
4.200000E+03	3.083300E-15	3.431305E-17
4.210000E+03	3.091958E-15	3.414534E-17
4.220000E+03	3.105035E-15	3.392900E-17
4.230000E+03	3.122356E-15	3.366935E-17
4.240000E+03	3.143693E-15	3.338213E-17
4.250000E+03	3.168747E-15	3.309158E-17
4.260000E+03	3.197098E-15	3.283049E-17
4.270000E+03	3.228172E-15	3.263541E-17
4.280000E+03	3.261368E-15	3.253994E-17
4.290000E+03	3.295957E-15	3.256810E-17
4.300000E+03	3.331121E-15	3.272027E-17
4.310000E+03	3.365963E-15	3.296132E-17
4.320000E+03	3.399499E-15	3.323531E-17
4.330000E+03	3.430817E-15	3.348715E-17
4.340000E+03	3.458899E-15	3.367121E-17
4.350000E+03	3.482902E-15	3.376168E-17
4.360000E+03	3.502029E-15	3.375267E-17
4.370000E+03	3.515675E-15	3.365602E-17
4.380000E+03	3.523394E-15	3.349887E-17
4.390000E+03	3.525010E-15	3.331533E-17
4.400000E+03	3.520583E-15	3.313504E-17
4.410000E+03	3.510461E-15	3.298404E-17
4.420000E+03	3.495060E-15	3.287842E-17
4.430000E+03	3.474870E-15	3.281684E-17
4.440000E+03	3.450472E-15	3.278628E-17
4.450000E+03	3.422335E-15	3.276174E-17
4.460000E+03	3.390855E-15	3.270435E-17
4.470000E+03	3.356383E-15	3.257297E-17
4.480000E+03	3.319144E-15	3.233325E-17
4.490000E+03	3.279428E-15	3.196187E-17
4.500000E+03	3.237488E-15	3.145017E-17
4.510000E+03	3.193574E-15	3.080560E-17
4.520000E+03	3.147984E-15	3.004920E-17
4.530000E+03	3.101049E-15	2.921302E-17
4.540000E+03	3.053130E-15	2.833266E-17
4.550000E+03	3.004611E-15	2.743991E-17
4.560000E+03	2.955876E-15	2.656522E-17
4.570000E+03	2.907334E-15	2.573699E-17
4.580000E+03	2.859497E-15	2.497780E-17
4.590000E+03	2.812764E-15	2.430490E-17
4.600000E+03	2.767534E-15	2.372720E-17
4.610000E+03	2.724197E-15	2.323996E-17
4.620000E+03	2.683069E-15	2.283370E-17
4.630000E+03	2.644331E-15	2.250022E-17
4.640000E+03	2.608257E-15	2.223324E-17
4.650000E+03	2.574900E-15	2.202860E-17
4.660000E+03	2.544447E-15	2.188344E-17
4.670000E+03	2.516997E-15	2.178801E-17
4.680000E+03	2.492653E-15	2.173129E-17
4.690000E+03	2.471537E-15	2.170318E-17
4.700000E+03	2.453795E-15	2.169247E-17
4.710000E+03	2.439642E-15	2.169256E-17
4.720000E+03	2.429211E-15	2.170300E-17
4.730000E+03	2.422636E-15	2.172779E-17
4.740000E+03	2.420026E-15	2.177519E-17
4.750000E+03	2.421323E-15	2.185133E-17
4.760000E+03	2.426442E-15	2.195513E-17
4.770000E+03	2.435043E-15	2.207985E-17
4.780000E+03	2.446832E-15	2.221757E-17
4.790000E+03	2.461393E-15	2.235561E-17
4.800000E+03	2.478248E-15	2.248087E-17
4.810000E+03	2.497037E-15	2.258300E-17
4.820000E+03	2.517475E-15	2.265135E-17
4.830000E+03	2.539284E-15	2.267651E-17
4.840000E+03	2.562320E-15	2.265193E-17
4.850000E+03	2.586436E-15	2.257165E-17
4.860000E+03	2.611451E-15	2.243497E-17
4.870000E+03	2.637169E-15	2.224878E-17
4.880000E+03	2.663351E-15	2.202637E-17
4.890000E+03	2.689631E-15	2.179070E-17
4.900000E+03	2.715628E-15	2.157380E-17
4.910000E+03	2.740820E-15	2.140928E-17
4.920000E+03	2.764756E-15	2.133103E-17
4.930000E+03	2.787028E-15	2.135873E-17
4.940000E+03	2.807346E-15	2.148392E-17
4.950000E+03	2.825610E-15	2.168204E-17
4.960000E+03	2.841793E-15	2.192295E-17
4.970000E+03	2.856054E-15	2.217355E-17
4.980000E+03	2.868586E-15	2.240644E-17
4.990000E+03	2.879643E-15	2.260425E-17
5.000000E+03	2.889435E-15	2.275517E-17
5.010000E+03	2.898232E-15	2.285668E-17
5.020000E+03	2.906111E-15	2.291082E-17
5.030000E+03	2.913096E-15	2.291860E-17
5.040000E+03	2.919150E-15	2.288370E-17
5.050000E+03	2.924100E-15	2.281122E-17
5.060000E+03	2.927718E-15	2.270377E-17
5.070000E+03	2.929742E-15	2.256811E-17
5.080000E+03	2.929922E-15	2.241759E-17
5.090000E+03	2.928012E-15	2.226815E-17
5.100000E+03	2.923856E-15	2.214280E-17
5.110000E+03	2.917404E-15	2.206723E-17
5.120000E+03	2.908595E-15	2.205864E-17
5.130000E+03	2.897577E-15	2.212821E-17
5.140000E+03	2.884426E-15	2.227130E-17
5.150000E+03	2.869440E-15	2.246008E-17
5.160000E+03	2.852888E-15	2.265663E-17
5.170000E+03	2.835120E-15	2.282861E-17
5.180000E+03	2.816503E-15	2.295170E-17
5.190000E+03	2.797388E-15	2.301358E-17
5.200000E+03	2.778134E-15	2.301229E-17
5.210000E+03	2.759004E-15	2.294876E-17
5.220000E+03	2.740284E-15	2.282783E-17
5.230000E+03	2.722015E-15	2.265173E-17
5.240000E+03	2.704209E-15	2.241624E-17
5.250000E+03	2.686759E-15	2.211690E-17
5.260000E+03	2.669506E-15	2.175528E-17
5.270000E+03	2.652199E-15	2.133887E-17
5.280000E+03	2.634664E-15	2.088621E-17
5.290000E+03	2.616705E-15	2.042398E-17
5.300000E+03	2.598190E-15	1.998299E-17
5.310000E+03	2.579037E-15	1.960125E-17
5.320000E+03	2.559319E-15	1.932042E-17
5.330000E+03	2.539148E-15	1.917420E-17
5.340000E+03	2.518779E-15	1.918490E-17
5.350000E+03	2.498479E-15	1.934710E-17
5.360000E+03	2.478564E-15	1.961543E-17
5.370000E+03	2.459250E-15	1.992432E-17
5.380000E+03	2.440843E-15	2.021365E-17
5.390000E+03	2.423574E-15	2.043601E-17
5.400000E+03	2.407654E-15	2.056262E-17
5.410000E+03	2.393234E-15	2.058365E-17
5.420000E+03	2.380478E-15	2.050523E-17
5.430000E+03	2.369523E-15	2.034633E-17
5.440000E+03	2.360364E-15	2.013123E-17
5.450000E+03	2.353023E-15	1.988403E-17
5.460000E+03	2.347396E-15	1.962752E-17
5.470000E+03	2.343377E-15	1.938062E-17
5.480000E+03	2.340918E-15	1.915317E-17
5.490000E+03	2.339825E-15	1.894765E-17
5.500000E+03	2.339950E-15	1.876004E-17
5.510000E+03	2.341036E-15	1.857558E-17
5.520000E+03	2.342858E-15	1.837899E-17
5.530000E+03	2.345051E-15	1.816042E-17
5.540000E+03	2.347316E-15	1.791802E-17
5.550000E+03	2.349316E-15	1.766086E-17
5.560000E+03	2.350819E-15	1.740718E-17
5.570000E+03	2.351554E-15	1.717704E-17
5.580000E+03	2.351370E-15	1.699495E-17
5.590000E+03	2.350195E-15	1.688302E-17
5.600000E+03	2.348132E-15	1.685155E-17
5.610000E+03	2.345301E-15	1.690207E-17
5.620000E+03	2.341899E-15	1.702481E-17
5.630000E+03	2.338125E-15	1.719099E-17
5.640000E+03	2.334126E-15	1.736516E-17
5.650000E+03	2.330009E-15	1.751676E-17
5.660000E+03	2.325744E-15	1.762077E-17
5.670000E+03	2.321266E-15	1.766400E-17
5.680000E+03	2.316428E-15	1.764572E-17
5.690000E+03	2.310969E-15	1.757347E-17
5.700000E+03	2.304567E-15	1.746422E-17
5.710000E+03	2.296859E-15	1.733965E-17
5.720000E+03	2.287509E-15	1.721871E-17
5.730000E+03	2.276101E-15	1.711739E-17
5.740000E+03	2.262392E-15	1.704470E-17
5.750000E+03	2.246212E-15	1.699492E-17
5.760000E+03	2.227484E-15	1.695911E-17
5.770000E+03	2.206316E-15	1.693550E-17
5.780000E+03	2.182964E-15	1.692899E-17
5.790000E+03	2.157760E-15	1.695080E-17
5.800000E+03	2.131170E-15	1.701067E-17
5.810000E+03	2.103800E-15	1.710717E-17
5.820000E+03	2.076215E-15	1.723207E-17
5.830000E+03	2.049033E-15	1.737599E-17
5.840000E+03	2.022798E-15	1.752603E-17
5.850000E+03	1.997995E-15	1.767023E-17
5.860000E+03	1.975045E-15	1.779908E-17
5.870000E+03	1.954201E-15	1.790153E-17
5.880000E+03	1.935707E-15	1.796686E-17
5.890000E+03	1.919631E-15	1.798110E-17
5.900000E+03	1.905932E-15	1.792473E-17
5.910000E+03	1.894485E-15	1.777833E-17
5.920000E+03	1.885117E-15	1.752953E-17
5.930000E+03	1.877646E-15	1.717628E-17
5.940000E+03	1.871812E-15	1.672899E-17
5.950000E+03	1.867385E-15	1.621260E-17
5.960000E+03	1.864140E-15	1.566462E-17
5.970000E+03	1.861817E-15	1.512919E-17
5.980000E+03	1.860089E-15	1.464328E-17
5.990000E+03	1.858686E-15	1.422689E-17
6.000000E+03	1.857227E-15	1.388587E-17
6.010000E+03	1.855503E-15	1.361598E-17
6.020000E+03	1.853251E-15	1.339995E-17
6.030000E+03	1.850357E-15	1.321832E-17
6.040000E+03	1.846829E-15	1.305431E-17
6.050000E+03	1.842755E-15	1.289267E-17
6.060000E+03	1.838341E-15	1.272685E-17
6.070000E+03	1.833810E-15	1.256064E-17
6.080000E+03	1.829523E-15	1.240514E-17
6.090000E+03	1.825743E-15	1.227758E-17
6.100000E+03	1.822804E-15	1.219460E-17
6.110000E+03	1.820900E-15	1.216104E-17
6.120000E+03	1.820149E-15	1.217571E-17
6.130000E+03	1.820598E-15	1.223218E-17
6.140000E+03	1.822200E-15	1.231390E-17
6.150000E+03	1.824790E-15	1.240217E-17
6.160000E+03	1.828186E-15	1.248183E-17
6.170000E+03	1.832228E-15	1.253971E-17
6.180000E+03	1.836661E-15	1.256931E-17
6.190000E+03	1.841313E-15	1.257364E-17
6.200000E+03	1.846028E-15	1.256169E-17
6.210000E+03	1.850675E-15	1.255198E-17
6.220000E+03	1.855103E-15	1.256970E-17
6.230000E+03	1.859207E-15	1.263904E-17
6.240000E+03	1.862916E-15	1.278078E-17
6.250000E+03	1.866106E-15	1.299943E-17
6.260000E+03	1.868669E-15	1.327178E-17
6.270000E+03	1.870459E-15	1.356044E-17
6.280000E+03	1.871360E-15	1.383157E-17
6.290000E+03	1.871240E-15	1.405974E-17
6.300000E+03	1.869990E-15	1.423145E-17
6.310000E+03	1.867555E-15	1.434262E-17
6.320000E+03	1.863915E-15	1.439291E-17
6.330000E+03	1.859036E-15	1.438660E-17
6.340000E+03	1.852976E-15	1.433228E-17
6.350000E+03	1.845837E-15	1.423834E-17
6.360000E+03	1.837700E-15	1.411394E-17
6.370000E+03	1.828747E-15	1.396743E-17
6.380000E+03	1.819112E-15	1.380123E-17
6.390000E+03	1.808942E-15	1.361804E-17
6.400000E+03	1.798403E-15	1.342461E-17
6.410000E+03	1.787719E-15	1.323108E-17
6.420000E+03	1.777055E-15	1.305272E-17
6.430000E+03	1.766667E-15	1.290791E-17
6.440000E+03	1.756712E-15	1.281026E-17
6.450000E+03	1.747216E-15	1.276874E-17
6.460000E+03	1.738094E-15	1.278531E-17
6.470000E+03	1.729197E-15	1.285176E-17
6.480000E+03	1.720437E-15	1.295698E-17
6.490000E+03	1.711693E-15	1.308853E-17
6.500000E+03	1.702994E-15	1.323110E-17
6.510000E+03	1.694352E-15	1.336891E-17
6.520000E+03	1.685771E-15	1.348631E-17
6.530000E+03	1.677317E-15	1.356562E-17
6.540000E+03	1.669031E-15	1.359104E-17
6.550000E+03	1.660959E-15	1.355232E-17
6.560000E+03	1.653136E-15	1.344463E-17
6.570000E+03	1.645617E-15	1.327143E-17
6.580000E+03	1.638392E-15	1.304431E-17
6.590000E+03	1.631451E-15	1.278236E-17
6.600000E+03	1.624792E-15	1.251393E-17
6.610000E+03	1.618363E-15	1.227388E-17
6.620000E+03	1.612052E-15	1.209818E-17
6.630000E+03	1.605789E-15	1.202065E-17
6.640000E+03	1.599453E-15	1.205938E-17
6.650000E+03	1.593015E-15	1.220666E-17
6.660000E+03	1.586356E-15	1.243725E-17
6.670000E+03	1.579431E-15	1.272025E-17
6.680000E+03	1.572241E-15	1.302174E-17
6.690000E+03	1.564782E-15	1.331133E-17
6.700000E+03	1.557040E-15	1.356629E-17
6.710000E+03	1.549042E-15	1.377130E-17
6.720000E+03	1.540859E-15	1.391943E-17
6.730000E+03	1.532516E-15	1.401066E-17
6.740000E+03	1.524101E-15	1.405018E-17
6.750000E+03	1.515623E-15	1.404671E-17
6.760000E+03	1.507197E-15	1.401175E-17
6.770000E+03	1.498813E-15	1.395423E-17
6.780000E+03	1.490563E-15	1.388364E-17
6.790000E+03	1.482417E-15	1.380738E-17
6.800000E+03	1.474411E-15	1.373036E-17
6.810000E+03	1.466548E-15	1.365595E-17
6.820000E+03	1.458801E-15	1.358602E-17
6.830000E+03	1.451192E-15	1.351983E-17
6.840000E+03	1.443698E-15	1.345476E-17
6.850000E+03	1.436362E-15	1.338715E-17
6.860000E+03	1.429160E-15	1.330952E-17
6.870000E+03	1.422190E-15	1.321601E-17
6.880000E+03	1.415475E-15	1.310358E-17
6.890000E+03	1.409061E-15	1.297325E-17
6.900000E+03	1.402965E-15	1.283120E-17
6.910000E+03	1.397265E-15	1.268907E-17
6.920000E+03	1.391877E-15	1.255934E-17
6.930000E+03	1.386853E-15	1.245683E-17
6.940000E+03	1.382078E-15	1.239130E-17
6.950000E+03	1.377452E-15	1.236439E-17
6.960000E+03	1.372880E-15	1.237264E-17
6.970000E+03	1.368209E-15	1.240931E-17
6.980000E+03	1.363317E-15	1.246481E-17
6.990000E+03	1.358097E-15	1.253032E-17
7.000000E+03	1.352468E-15	1.259981E-17
7.010000E+03	1.346380E-15	1.266905E-17
7.020000E+03	1.339788E-15	1.273563E-17
7.030000E+03	1.332753E-15	1.279784E-17
7.040000E+03	1.325233E-15	1.284976E-17
7.050000E+03	1.317367E-15	1.288701E-17
7.060000E+03	1.309159E-15	1.290617E-17
7.070000E+03	1.300754E-15	1.290766E-17
7.080000E+03	1.292231E-15	1.289469E-17
7.090000E+03	1.283697E-15	1.287343E-17
7.100000E+03	1.275271E-15	1.285067E-17
7.110000E+03	1.266990E-15	1.283270E-17
7.120000E+03	1.258950E-15	1.282475E-17
7.130000E+03	1.251168E-15	1.282709E-17
7.140000E+03	1.243696E-15	1.283797E-17
7.150000E+03	1.236562E-15	1.285402E-17
7.160000E+03	1.229757E-15	1.286963E-17
7.170000E+03	1.223331E-15	1.287975E-17
7.180000E+03	1.217259E-15	1.287947E-17
7.190000E+03	1.211614E-15	1.286505E-17
7.200000E+03	1.206395E-15	1.283298E-17
7.210000E+03	1.201590E-15	1.278030E-17
7.220000E+03	1.197217E-15	1.270401E-17
7.230000E+03	1.193257E-15	1.260209E-17
7.240000E+03	1.189662E-15	1.247493E-17
7.250000E+03	1.186401E-15	1.232579E-17
7.260000E+03	1.183438E-15	1.216135E-17
7.270000E+03	1.180735E-15	1.199105E-17
7.280000E+03	1.178245E-15	1.182551E-17
7.290000E+03	1.175867E-15	1.167600E-17
7.300000E+03	1.173598E-15	1.155379E-17
7.310000E+03	1.171356E-15	1.146565E-17
7.320000E+03	1.169062E-15	1.141538E-17
7.330000E+03	1.166690E-15	1.140344E-17
7.340000E+03	1.164152E-15	1.142403E-17
7.350000E+03	1.161422E-15	1.146898E-17
7.360000E+03	1.158488E-15	1.152925E-17
7.370000E+03	1.155335E-15	1.159444E-17
7.380000E+03	1.152014E-15	1.165539E-17
7.390000E+03	1.148497E-15	1.170316E-17
7.400000E+03	1.144902E-15	1.173049E-17
7.410000E+03	1.141259E-15	1.173147E-17
7.420000E+03	1.137686E-15	1.170460E-17
7.430000E+03	1.134258E-15	1.165134E-17
7.440000E+03	1.131079E-15	1.157747E-17
7.450000E+03	1.128276E-15	1.149232E-17
7.460000E+03	1.125924E-15	1.140642E-17
7.470000E+03	1.124185E-15	1.133274E-17
7.480000E+03	1.123078E-15	1.128237E-17
7.490000E+03	1.122690E-15	1.126410E-17
7.500000E+03	1.123000E-15	1.128343E-17
7.510000E+03	1.124051E-15	1.134361E-17
7.520000E+03	1.125737E-15	1.144190E-17
7.530000E+03	1.127945E-15	1.157313E-17
7.540000E+03	1.130561E-15	1.173126E-17
7.550000E+03	1.133424E-15	1.190830E-17
7.560000E+03	1.136413E-15	1.209646E-17
7.570000E+03	1.139307E-15	1.228649E-17
7.580000E+03	1.141958E-15	1.246840E-17
7.590000E+03	1.144228E-15	1.263246E-17
7.600000E+03	1.145939E-15	1.276995E-17
7.610000E+03	1.146971E-15	1.287435E-17
7.620000E+03	1.147171E-15	1.294125E-17
7.630000E+03	1.146472E-15	1.297008E-17
7.640000E+03	1.144718E-15	1.296125E-17
7.650000E+03	1.141874E-15	1.291826E-17
7.660000E+03	1.137814E-15	1.284384E-17
7.670000E+03	1.132531E-15	1.274054E-17
7.680000E+03	1.125936E-15	1.260985E-17
7.690000E+03	1.118070E-15	1.245554E-17
7.700000E+03	1.108922E-15	1.228144E-17
7.710000E+03	1.098539E-15	1.209353E-17
7.720000E+03	1.087001E-15	1.189929E-17
7.730000E+03	1.074415E-15	1.170624E-17
7.740000E+03	1.060916E-15	1.152164E-17
7.750000E+03	1.046640E-15	1.135015E-17
7.760000E+03	1.031813E-15	1.119275E-17
