#wls	flux	fluxerr
1.600000E+03	1.061120E-15	6.408433E-16
1.640000E+03	1.086862E-15	6.455057E-16
1.680000E+03	1.114355E-15	6.503822E-16
1.720000E+03	1.143854E-15	6.555404E-16
1.760000E+03	1.175286E-15	6.608487E-16
1.800000E+03	1.208891E-15	6.663491E-16
1.840000E+03	1.244688E-15	6.719503E-16
1.880000E+03	1.282900E-15	6.776644E-16
1.920000E+03	1.323637E-15	6.834307E-16
1.960000E+03	1.367000E-15	6.891756E-16
2.000000E+03	1.412877E-15	6.947135E-16
2.040000E+03	1.461363E-15	6.999576E-16
2.080000E+03	1.512442E-15	7.047641E-16
2.120000E+03	1.565803E-15	7.088521E-16
2.160000E+03	1.621146E-15	7.119600E-16
2.200000E+03	1.677892E-15	7.137232E-16
2.240000E+03	1.735394E-15	7.137807E-16
2.280000E+03	1.793421E-15	7.119750E-16
2.320000E+03	1.851955E-15	7.082455E-16
2.360000E+03	1.911931E-15	7.028875E-16
2.400000E+03	1.974179E-15	6.961061E-16
2.440000E+03	2.039428E-15	6.880269E-16
2.480000E+03	2.108595E-15	6.787937E-16
2.520000E+03	2.182329E-15	6.684171E-16
2.560000E+03	2.261132E-15	6.568279E-16
2.600000E+03	2.345816E-15	6.440178E-16
2.640000E+03	2.436810E-15	6.298373E-16
2.680000E+03	2.534806E-15	6.141853E-16
2.720000E+03	2.640264E-15	5.968797E-16
2.760000E+03	2.754045E-15	5.778155E-16
2.800000E+03	2.876848E-15	5.568292E-16
2.840000E+03	3.009766E-15	5.338195E-16
2.880000E+03	3.154245E-15	5.087211E-16
2.920000E+03	3.312229E-15	4.815119E-16
2.960000E+03	3.486311E-15	4.522156E-16
3.000000E+03	3.679821E-15	4.208896E-16
3.010000E+03	3.731662E-15	4.127460E-16
3.020000E+03	3.785074E-15	4.044856E-16
3.030000E+03	3.840028E-15	3.960991E-16
3.040000E+03	3.896752E-15	3.876038E-16
3.050000E+03	3.955224E-15	3.789906E-16
3.060000E+03	4.015505E-15	3.702601E-16
3.070000E+03	4.077664E-15	3.614132E-16
3.080000E+03	4.141941E-15	3.524661E-16
3.090000E+03	4.208237E-15	3.434053E-16
3.100000E+03	4.276798E-15	3.342471E-16
3.110000E+03	4.347618E-15	3.249873E-16
3.120000E+03	4.420861E-15	3.156359E-16
3.130000E+03	4.496609E-15	3.061973E-16
3.140000E+03	4.574948E-15	2.966771E-16
3.150000E+03	4.655960E-15	2.870825E-16
3.160000E+03	4.739819E-15	2.774278E-16
3.170000E+03	4.826520E-15	2.677184E-16
3.180000E+03	4.916236E-15	2.579731E-16
3.190000E+03	5.009046E-15	2.482081E-16
3.200000E+03	5.105026E-15	2.384434E-16
3.210000E+03	5.204337E-15	2.287073E-16
3.220000E+03	5.306857E-15	2.190214E-16
3.230000E+03	5.412909E-15	2.094326E-16
3.240000E+03	5.522254E-15	1.999719E-16
3.250000E+03	5.635181E-15	1.906998E-16
3.260000E+03	5.751495E-15	1.816672E-16
3.270000E+03	5.871247E-15	1.729430E-16
3.280000E+03	5.994354E-15	1.645995E-16
3.290000E+03	6.120588E-15	1.567103E-16
3.300000E+03	6.249945E-15	1.493559E-16
3.310000E+03	6.381964E-15	1.426002E-16
3.320000E+03	6.516297E-15	1.364987E-16
3.330000E+03	6.652704E-15	1.310908E-16
3.340000E+03	6.790466E-15	1.263831E-16
3.350000E+03	6.928977E-15	1.223586E-16
3.360000E+03	7.067549E-15	1.189735E-16
3.370000E+03	7.205521E-15	1.161627E-16
3.380000E+03	7.341859E-15	1.138390E-16
3.390000E+03	7.475665E-15	1.119109E-16
3.400000E+03	7.606082E-15	1.102881E-16
3.410000E+03	7.731992E-15	1.088851E-16
3.420000E+03	7.852335E-15	1.076313E-16
3.430000E+03	7.965813E-15	1.064694E-16
3.440000E+03	8.071430E-15	1.053641E-16
3.450000E+03	8.168108E-15	1.042943E-16
3.460000E+03	8.254617E-15	1.032495E-16
3.470000E+03	8.330016E-15	1.022301E-16
3.480000E+03	8.393374E-15	1.012388E-16
3.490000E+03	8.444102E-15	1.002798E-16
3.500000E+03	8.481401E-15	9.935014E-17
3.510000E+03	8.505127E-15	9.845061E-17
3.520000E+03	8.515162E-15	9.758172E-17
3.530000E+03	8.511874E-15	9.675248E-17
3.540000E+03	8.496055E-15	9.598182E-17
3.550000E+03	8.468820E-15	9.529720E-17
3.560000E+03	8.431874E-15	9.473413E-17
3.570000E+03	8.386998E-15	9.432474E-17
3.580000E+03	8.336453E-15	9.409656E-17
3.590000E+03	8.282834E-15	9.406688E-17
3.600000E+03	8.228748E-15	9.423890E-17
3.610000E+03	8.177053E-15	9.460717E-17
3.620000E+03	8.130653E-15	9.515971E-17
3.630000E+03	8.092559E-15	9.588375E-17
3.640000E+03	8.065941E-15	9.677055E-17
3.650000E+03	8.053851E-15	9.781502E-17
3.660000E+03	8.059578E-15	9.902147E-17
3.670000E+03	8.086125E-15	1.003975E-16
3.680000E+03	8.136560E-15	1.019581E-16
3.690000E+03	8.213891E-15	1.037228E-16
3.700000E+03	8.320718E-15	1.057102E-16
3.710000E+03	8.459569E-15	1.079402E-16
3.720000E+03	8.632851E-15	1.104296E-16
3.730000E+03	8.842386E-15	1.131827E-16
3.740000E+03	9.089637E-15	1.161904E-16
3.750000E+03	9.375713E-15	1.194272E-16
3.760000E+03	9.700852E-15	1.228434E-16
3.770000E+03	1.006471E-14	1.263696E-16
3.780000E+03	1.046613E-14	1.299182E-16
3.790000E+03	1.090274E-14	1.333851E-16
3.800000E+03	1.137099E-14	1.366599E-16
3.810000E+03	1.186596E-14	1.396345E-16
3.820000E+03	1.238113E-14	1.422128E-16
3.830000E+03	1.290852E-14	1.443231E-16
3.840000E+03	1.343832E-14	1.459252E-16
3.850000E+03	1.395955E-14	1.470227E-16
3.860000E+03	1.446020E-14	1.476640E-16
3.870000E+03	1.492752E-14	1.479355E-16
3.880000E+03	1.534911E-14	1.479517E-16
3.890000E+03	1.571389E-14	1.478347E-16
3.900000E+03	1.601246E-14	1.476831E-16
3.910000E+03	1.623792E-14	1.475504E-16
3.920000E+03	1.638692E-14	1.474380E-16
3.930000E+03	1.645938E-14	1.472948E-16
3.940000E+03	1.645804E-14	1.470336E-16
3.950000E+03	1.638901E-14	1.465632E-16
3.960000E+03	1.626046E-14	1.458049E-16
3.970000E+03	1.608185E-14	1.447077E-16
3.980000E+03	1.586325E-14	1.432546E-16
3.990000E+03	1.561522E-14	1.414680E-16
4.000000E+03	1.534727E-14	1.393935E-16
4.010000E+03	1.506804E-14	1.370976E-16
4.020000E+03	1.478521E-14	1.346578E-16
4.030000E+03	1.450476E-14	1.321480E-16
4.040000E+03	1.423175E-14	1.296373E-16
4.050000E+03	1.396961E-14	1.271773E-16
4.060000E+03	1.372133E-14	1.248089E-16
4.070000E+03	1.348863E-14	1.225531E-16
4.080000E+03	1.327257E-14	1.204182E-16
4.090000E+03	1.307379E-14	1.184050E-16
4.100000E+03	1.289187E-14	1.165056E-16
4.110000E+03	1.272636E-14	1.147181E-16
4.120000E+03	1.257583E-14	1.130414E-16
4.130000E+03	1.243878E-14	1.114853E-16
4.140000E+03	1.231349E-14	1.100662E-16
4.150000E+03	1.219797E-14	1.088013E-16
4.160000E+03	1.209057E-14	1.077046E-16
4.170000E+03	1.198982E-14	1.067761E-16
4.180000E+03	1.189457E-14	1.059965E-16
4.190000E+03	1.180444E-14	1.053302E-16
4.200000E+03	1.171917E-14	1.047264E-16
4.210000E+03	1.163933E-14	1.041371E-16
4.220000E+03	1.156549E-14	1.035221E-16
4.230000E+03	1.149884E-14	1.028643E-16
4.240000E+03	1.144078E-14	1.021717E-16
4.250000E+03	1.139279E-14	1.014774E-16
4.260000E+03	1.135702E-14	1.008428E-16
4.270000E+03	1.133566E-14	1.003462E-16
4.280000E+03	1.133118E-14	1.000783E-16
4.290000E+03	1.134634E-14	1.001340E-16
4.300000E+03	1.138430E-14	1.006046E-16
4.310000E+03	1.144827E-14	1.015674E-16
4.320000E+03	1.154124E-14	1.030763E-16
4.330000E+03	1.166655E-14	1.051652E-16
4.340000E+03	1.182688E-14	1.078387E-16
4.350000E+03	1.202503E-14	1.110846E-16
4.360000E+03	1.226294E-14	1.148705E-16
4.370000E+03	1.254221E-14	1.191545E-16
4.380000E+03	1.286361E-14	1.238839E-16
4.390000E+03	1.322693E-14	1.289940E-16
4.400000E+03	1.363079E-14	1.344038E-16
4.410000E+03	1.407253E-14	1.400127E-16
4.420000E+03	1.454799E-14	1.456965E-16
4.430000E+03	1.505131E-14	1.513064E-16
4.440000E+03	1.557506E-14	1.566775E-16
4.450000E+03	1.611002E-14	1.616363E-16
4.460000E+03	1.664591E-14	1.660212E-16
4.470000E+03	1.717092E-14	1.696904E-16
4.480000E+03	1.767252E-14	1.725399E-16
4.490000E+03	1.813786E-14	1.745117E-16
4.500000E+03	1.855426E-14	1.755973E-16
4.510000E+03	1.890984E-14	1.758345E-16
4.520000E+03	1.919412E-14	1.752994E-16
4.530000E+03	1.939829E-14	1.740906E-16
4.540000E+03	1.951667E-14	1.723242E-16
4.550000E+03	1.954580E-14	1.701071E-16
4.560000E+03	1.948558E-14	1.675342E-16
4.570000E+03	1.933879E-14	1.646784E-16
4.580000E+03	1.911139E-14	1.615956E-16
4.590000E+03	1.881138E-14	1.583277E-16
4.600000E+03	1.844853E-14	1.549140E-16
4.610000E+03	1.803454E-14	1.514061E-16
4.620000E+03	1.758119E-14	1.478579E-16
4.630000E+03	1.710059E-14	1.443290E-16
4.640000E+03	1.660483E-14	1.408796E-16
4.650000E+03	1.610512E-14	1.375608E-16
4.660000E+03	1.561114E-14	1.344079E-16
4.670000E+03	1.513201E-14	1.314477E-16
4.680000E+03	1.467489E-14	1.286886E-16
4.690000E+03	1.424542E-14	1.261248E-16
4.700000E+03	1.384779E-14	1.237397E-16
4.710000E+03	1.348461E-14	1.215076E-16
4.720000E+03	1.315726E-14	1.194009E-16
4.730000E+03	1.286560E-14	1.173919E-16
4.740000E+03	1.260894E-14	1.154670E-16
4.750000E+03	1.238579E-14	1.136301E-16
4.760000E+03	1.219369E-14	1.119032E-16
4.770000E+03	1.203033E-14	1.103360E-16
4.780000E+03	1.189289E-14	1.089928E-16
4.790000E+03	1.177842E-14	1.079434E-16
4.800000E+03	1.168436E-14	1.072496E-16
4.810000E+03	1.160773E-14	1.069377E-16
4.820000E+03	1.154646E-14	1.069950E-16
4.830000E+03	1.149811E-14	1.073525E-16
4.840000E+03	1.146119E-14	1.079006E-16
4.850000E+03	1.143414E-14	1.084936E-16
4.860000E+03	1.141632E-14	1.089775E-16
4.870000E+03	1.140709E-14	1.092010E-16
4.880000E+03	1.140659E-14	1.090402E-16
4.890000E+03	1.141529E-14	1.084057E-16
4.900000E+03	1.143392E-14	1.072488E-16
4.910000E+03	1.146366E-14	1.055660E-16
4.920000E+03	1.150593E-14	1.033977E-16
4.930000E+03	1.156242E-14	1.008276E-16
4.940000E+03	1.163455E-14	9.797583E-17
4.950000E+03	1.172418E-14	9.500176E-17
4.960000E+03	1.183252E-14	9.208801E-17
4.970000E+03	1.196092E-14	8.943318E-17
4.980000E+03	1.211013E-14	8.722615E-17
4.990000E+03	1.228061E-14	8.562380E-17
5.000000E+03	1.247239E-14	8.472859E-17
5.010000E+03	1.268525E-14	8.457879E-17
5.020000E+03	1.291824E-14	8.514651E-17
5.030000E+03	1.317057E-14	8.635316E-17
5.040000E+03	1.344100E-14	8.808033E-17
5.050000E+03	1.372836E-14	9.018871E-17
5.060000E+03	1.403112E-14	9.252958E-17
5.070000E+03	1.434753E-14	9.496136E-17
5.080000E+03	1.467594E-14	9.736368E-17
5.090000E+03	1.501432E-14	9.964033E-17
5.100000E+03	1.536015E-14	1.017169E-16
5.110000E+03	1.571048E-14	1.035349E-16
5.120000E+03	1.606230E-14	1.050486E-16
5.130000E+03	1.641144E-14	1.062184E-16
5.140000E+03	1.675352E-14	1.070222E-16
5.150000E+03	1.708377E-14	1.074624E-16
5.160000E+03	1.739723E-14	1.075722E-16
5.170000E+03	1.768889E-14	1.074147E-16
5.180000E+03	1.795459E-14	1.070781E-16
5.190000E+03	1.819059E-14	1.066543E-16
5.200000E+03	1.839499E-14	1.062279E-16
5.210000E+03	1.856696E-14	1.058609E-16
5.220000E+03	1.870810E-14	1.056041E-16
5.230000E+03	1.882093E-14	1.054960E-16
5.240000E+03	1.890983E-14	1.055702E-16
5.250000E+03	1.897946E-14	1.058399E-16
5.260000E+03	1.903520E-14	1.062899E-16
5.270000E+03	1.908185E-14	1.068686E-16
5.280000E+03	1.912279E-14	1.074996E-16
5.290000E+03	1.916028E-14	1.081082E-16
5.300000E+03	1.919499E-14	1.086373E-16
5.310000E+03	1.922521E-14	1.090479E-16
5.320000E+03	1.924734E-14	1.093145E-16
5.330000E+03	1.925636E-14	1.094140E-16
5.340000E+03	1.924632E-14	1.093167E-16
5.350000E+03	1.921111E-14	1.089835E-16
5.360000E+03	1.914521E-14	1.083690E-16
5.370000E+03	1.904518E-14	1.074364E-16
5.380000E+03	1.890954E-14	1.061663E-16
5.390000E+03	1.874001E-14	1.045705E-16
5.400000E+03	1.854077E-14	1.026924E-16
5.410000E+03	1.831901E-14	1.006099E-16
5.420000E+03	1.808345E-14	9.842667E-17
5.430000E+03	1.784312E-14	9.626595E-17
5.440000E+03	1.760732E-14	9.426683E-17
5.450000E+03	1.738331E-14	9.256263E-17
5.460000E+03	1.717535E-14	9.125973E-17
5.470000E+03	1.698616E-14	9.042421E-17
5.480000E+03	1.681477E-14	9.005299E-17
5.490000E+03	1.665770E-14	9.007608E-17
5.500000E+03	1.650975E-14	9.037188E-17
5.510000E+03	1.636447E-14	9.079549E-17
5.520000E+03	1.621516E-14	9.122059E-17
5.530000E+03	1.605602E-14	9.157530E-17
5.540000E+03	1.588233E-14	9.184556E-17
5.550000E+03	1.569180E-14	9.205524E-17
5.560000E+03	1.548438E-14	9.222235E-17
5.570000E+03	1.526229E-14	9.233216E-17
5.580000E+03	1.503026E-14	9.234410E-17
5.590000E+03	1.479454E-14	9.221482E-17
5.600000E+03	1.456240E-14	9.192476E-17
5.610000E+03	1.434164E-14	9.149011E-17
5.620000E+03	1.413962E-14	9.095542E-17
5.630000E+03	1.396288E-14	9.037877E-17
5.640000E+03	1.381678E-14	8.981454E-17
5.650000E+03	1.370485E-14	8.929658E-17
5.660000E+03	1.362885E-14	8.883224E-17
5.670000E+03	1.358842E-14	8.840052E-17
5.680000E+03	1.358128E-14	8.795772E-17
5.690000E+03	1.360359E-14	8.744552E-17
5.700000E+03	1.364998E-14	8.679813E-17
5.710000E+03	1.371414E-14	8.595361E-17
5.720000E+03	1.378939E-14	8.486712E-17
5.730000E+03	1.386891E-14	8.352340E-17
5.740000E+03	1.394642E-14	8.195082E-17
5.750000E+03	1.401614E-14	8.022350E-17
5.760000E+03	1.407376E-14	7.845905E-17
5.770000E+03	1.411578E-14	7.679539E-17
5.780000E+03	1.414008E-14	7.537057E-17
5.790000E+03	1.414603E-14	7.430215E-17
5.800000E+03	1.413335E-14	7.366884E-17
5.810000E+03	1.410313E-14	7.351571E-17
5.820000E+03	1.405659E-14	7.385821E-17
5.830000E+03	1.399515E-14	7.469146E-17
5.840000E+03	1.392017E-14	7.598878E-17
5.850000E+03	1.383343E-14	7.769803E-17
5.860000E+03	1.373628E-14	7.972691E-17
5.870000E+03	1.363038E-14	8.194098E-17
5.880000E+03	1.351715E-14	8.416587E-17
5.890000E+03	1.339771E-14	8.620328E-17
5.900000E+03	1.327326E-14	8.785903E-17
5.910000E+03	1.314472E-14	8.897285E-17
5.920000E+03	1.301238E-14	8.944607E-17
5.930000E+03	1.287677E-14	8.926717E-17
5.940000E+03	1.273812E-14	8.850931E-17
5.950000E+03	1.259669E-14	8.731332E-17
5.960000E+03	1.245215E-14	8.584701E-17
5.970000E+03	1.230459E-14	8.426627E-17
5.980000E+03	1.215336E-14	8.266927E-17
5.990000E+03	1.199815E-14	8.109183E-17
6.000000E+03	1.183845E-14	7.952388E-17
6.010000E+03	1.167366E-14	7.794646E-17
6.020000E+03	1.150369E-14	7.636492E-17
6.030000E+03	1.132836E-14	7.481476E-17
6.040000E+03	1.114846E-14	7.335778E-17
6.050000E+03	1.096478E-14	7.205242E-17
6.060000E+03	1.077945E-14	7.093917E-17
6.070000E+03	1.059489E-14	7.001713E-17
6.080000E+03	1.041461E-14	6.924857E-17
6.090000E+03	1.024234E-14	6.856837E-17
6.100000E+03	1.008238E-14	6.790998E-17
6.110000E+03	9.938919E-15	6.722245E-17
6.120000E+03	9.816078E-15	6.648455E-17
6.130000E+03	9.717305E-15	6.570791E-17
6.140000E+03	9.645612E-15	6.493998E-17
6.150000E+03	9.603475E-15	6.426063E-17
6.160000E+03	9.592539E-15	6.377220E-17
6.170000E+03	9.613415E-15	6.358363E-17
6.180000E+03	9.666168E-15	6.379261E-17
6.190000E+03	9.749743E-15	6.445955E-17
6.200000E+03	9.862165E-15	6.559420E-17
6.210000E+03	1.000060E-14	6.715486E-17
6.220000E+03	1.016138E-14	6.905758E-17
6.230000E+03	1.034032E-14	7.119009E-17
6.240000E+03	1.053304E-14	7.342458E-17
6.250000E+03	1.073452E-14	7.562270E-17
6.260000E+03	1.093951E-14	7.764680E-17
6.270000E+03	1.114340E-14	7.937715E-17
6.280000E+03	1.134140E-14	8.071925E-17
6.290000E+03	1.152886E-14	8.161761E-17
6.300000E+03	1.170242E-14	8.207202E-17
6.310000E+03	1.185861E-14	8.212733E-17
6.320000E+03	1.199560E-14	8.187772E-17
6.330000E+03	1.211195E-14	8.144019E-17
6.340000E+03	1.220759E-14	8.093798E-17
6.350000E+03	1.228329E-14	8.047393E-17
6.360000E+03	1.234072E-14	8.011436E-17
6.370000E+03	1.238224E-14	7.988162E-17
6.380000E+03	1.241044E-14	7.975828E-17
6.390000E+03	1.242805E-14	7.970611E-17
6.400000E+03	1.243795E-14	7.969153E-17
6.410000E+03	1.244208E-14	7.969836E-17
6.420000E+03	1.244234E-14	7.974249E-17
6.430000E+03	1.243964E-14	7.986232E-17
6.440000E+03	1.243443E-14	8.011023E-17
6.450000E+03	1.242683E-14	8.053743E-17
6.460000E+03	1.241676E-14	8.117968E-17
6.470000E+03	1.240351E-14	8.204472E-17
6.480000E+03	1.238648E-14	8.311442E-17
6.490000E+03	1.236506E-14	8.434797E-17
6.500000E+03	1.233844E-14	8.568604E-17
6.510000E+03	1.230649E-14	8.706401E-17
6.520000E+03	1.226888E-14	8.841011E-17
6.530000E+03	1.222518E-14	8.964737E-17
6.540000E+03	1.217563E-14	9.069800E-17
6.550000E+03	1.211991E-14	9.147438E-17
6.560000E+03	1.205770E-14	9.188598E-17
6.570000E+03	1.198923E-14	9.185223E-17
6.580000E+03	1.191424E-14	9.130638E-17
6.590000E+03	1.183269E-14	9.021497E-17
6.600000E+03	1.174489E-14	8.858979E-17
6.610000E+03	1.165068E-14	8.648948E-17
6.620000E+03	1.155051E-14	8.402739E-17
6.630000E+03	1.144534E-14	8.136335E-17
6.640000E+03	1.133553E-14	7.867816E-17
6.650000E+03	1.122193E-14	7.615640E-17
6.660000E+03	1.110567E-14	7.395522E-17
6.670000E+03	1.098752E-14	7.217585E-17
6.680000E+03	1.086846E-14	7.085910E-17
6.690000E+03	1.074963E-14	6.999599E-17
6.700000E+03	1.063162E-14	6.954216E-17
6.710000E+03	1.051532E-14	6.943813E-17
6.720000E+03	1.040192E-14	6.961395E-17
6.730000E+03	1.029171E-14	6.998109E-17
6.740000E+03	1.018522E-14	7.044143E-17
6.750000E+03	1.008297E-14	7.089664E-17
6.760000E+03	9.985041E-15	7.126116E-17
6.770000E+03	9.891647E-15	7.148183E-17
6.780000E+03	9.802984E-15	7.154649E-17
6.790000E+03	9.719271E-15	7.148457E-17
6.800000E+03	9.640556E-15	7.135634E-17
6.810000E+03	9.567203E-15	7.123837E-17
6.820000E+03	9.499306E-15	7.119673E-17
6.830000E+03	9.436627E-15	7.126604E-17
6.840000E+03	9.379069E-15	7.144087E-17
6.850000E+03	9.325963E-15	7.167035E-17
6.860000E+03	9.276616E-15	7.187477E-17
6.870000E+03	9.230199E-15	7.196732E-17
6.880000E+03	9.185668E-15	7.187803E-17
6.890000E+03	9.142546E-15	7.157718E-17
6.900000E+03	9.099973E-15	7.107274E-17
6.910000E+03	9.057272E-15	7.040635E-17
6.920000E+03	9.014326E-15	6.963796E-17
6.930000E+03	8.970900E-15	6.881830E-17
6.940000E+03	8.927155E-15	6.797445E-17
6.950000E+03	8.883633E-15	6.710374E-17
6.960000E+03	8.840734E-15	6.617961E-17
6.970000E+03	8.799215E-15	6.517585E-17
6.980000E+03	8.759993E-15	6.408714E-17
6.990000E+03	8.724115E-15	6.294369E-17
7.000000E+03	8.692545E-15	6.181170E-17
7.010000E+03	8.666761E-15	6.078454E-17
7.020000E+03	8.647478E-15	5.994876E-17
7.030000E+03	8.635538E-15	5.936488E-17
7.040000E+03	8.631626E-15	5.905214E-17
7.050000E+03	8.635655E-15	5.898873E-17
7.060000E+03	8.647195E-15	5.912956E-17
7.070000E+03	8.665274E-15	5.942058E-17
7.080000E+03	8.688409E-15	5.981049E-17
7.090000E+03	8.714867E-15	6.025891E-17
7.100000E+03	8.742111E-15	6.073499E-17
7.110000E+03	8.767854E-15	6.122491E-17
7.120000E+03	8.790089E-15	6.173000E-17
7.130000E+03	8.806925E-15	6.225987E-17
7.140000E+03	8.816724E-15	6.282407E-17
7.150000E+03	8.818730E-15	6.342503E-17
7.160000E+03	8.812197E-15	6.404205E-17
7.170000E+03	8.797633E-15	6.463606E-17
7.180000E+03	8.775470E-15	6.514431E-17
7.190000E+03	8.746692E-15	6.549826E-17
7.200000E+03	8.712367E-15	6.564048E-17
7.210000E+03	8.674239E-15	6.554973E-17
7.220000E+03	8.633328E-15	6.524250E-17
7.230000E+03	8.591039E-15	6.478073E-17
7.240000E+03	8.548106E-15	6.425077E-17
7.250000E+03	8.505169E-15	6.374651E-17
7.260000E+03	8.461956E-15	6.333944E-17
7.270000E+03	8.417779E-15	6.306269E-17
7.280000E+03	8.371570E-15	6.290388E-17
7.290000E+03	8.321496E-15	6.281053E-17
7.300000E+03	8.265866E-15	6.271602E-17
7.310000E+03	8.202478E-15	6.255475E-17
7.320000E+03	8.129894E-15	6.228567E-17
7.330000E+03	8.047088E-15	6.189460E-17
7.340000E+03	7.953081E-15	6.138798E-17
7.350000E+03	7.848080E-15	6.079300E-17
7.360000E+03	7.732665E-15	6.014064E-17
7.370000E+03	7.608450E-15	5.946225E-17
7.380000E+03	7.477330E-15	5.877957E-17
7.390000E+03	7.341847E-15	5.810811E-17
7.400000E+03	7.204863E-15	5.745805E-17
7.410000E+03	7.069233E-15	5.683662E-17
7.420000E+03	6.937961E-15	5.625393E-17
7.430000E+03	6.813895E-15	5.572307E-17
7.440000E+03	6.699618E-15	5.525971E-17
7.450000E+03	6.597522E-15	5.488182E-17
7.460000E+03	6.509323E-15	5.460523E-17
7.470000E+03	6.436804E-15	5.445061E-17
7.480000E+03	6.381102E-15	5.443936E-17
7.490000E+03	6.343045E-15	5.459807E-17
7.500000E+03	6.323178E-15	5.495934E-17
7.510000E+03	6.321800E-15	5.556029E-17
7.520000E+03	6.339258E-15	5.644075E-17
7.530000E+03	6.375095E-15	5.762821E-17
7.540000E+03	6.429045E-15	5.913775E-17
7.550000E+03	6.500438E-15	6.095827E-17
7.560000E+03	6.588469E-15	6.304971E-17
7.570000E+03	6.691568E-15	6.533671E-17
7.580000E+03	6.808290E-15	6.772271E-17
7.590000E+03	6.936720E-15	7.009581E-17
7.600000E+03	7.074807E-15	7.234692E-17
7.610000E+03	7.219735E-15	7.437799E-17
7.620000E+03	7.369133E-15	7.612560E-17
7.630000E+03	7.519952E-15	7.755605E-17
7.640000E+03	7.669024E-15	7.867176E-17
7.650000E+03	7.813707E-15	7.951262E-17
7.660000E+03	7.950882E-15	8.013553E-17
7.670000E+03	8.077748E-15	8.060966E-17
7.680000E+03	8.191688E-15	8.100222E-17
7.690000E+03	8.290300E-15	8.136788E-17
7.700000E+03	8.371412E-15	8.174226E-17
7.710000E+03	8.433320E-15	8.214231E-17
7.720000E+03	8.474003E-15	8.256114E-17
7.730000E+03	8.492608E-15	8.298691E-17
7.740000E+03	8.488067E-15	8.339427E-17
7.750000E+03	8.459981E-15	8.375661E-17
7.760000E+03	8.408455E-15	8.404650E-17
