#wls	flux	fluxerr
1.600000E+03	1.322709E-16	8.257932E-17
1.640000E+03	1.329344E-16	8.178644E-17
1.680000E+03	1.335800E-16	8.094113E-17
1.720000E+03	1.342297E-16	8.005633E-17
1.760000E+03	1.348812E-16	7.913017E-17
1.800000E+03	1.355571E-16	7.817504E-17
1.840000E+03	1.362556E-16	7.718878E-17
1.880000E+03	1.369997E-16	7.618307E-17
1.920000E+03	1.377882E-16	7.515540E-17
1.960000E+03	1.386447E-16	7.411664E-17
2.000000E+03	1.395684E-16	7.306389E-17
2.040000E+03	1.406083E-16	7.201979E-17
2.080000E+03	1.417399E-16	7.096781E-17
2.120000E+03	1.430377E-16	6.994117E-17
2.160000E+03	1.444783E-16	6.892259E-17
2.200000E+03	1.461130E-16	6.793075E-17
2.240000E+03	1.479198E-16	6.694863E-17
2.280000E+03	1.499029E-16	6.597171E-17
2.320000E+03	1.520682E-16	6.499600E-17
2.360000E+03	1.544235E-16	6.401808E-17
2.400000E+03	1.569792E-16	6.303520E-17
2.440000E+03	1.596999E-16	6.202635E-17
2.480000E+03	1.626518E-16	6.101068E-17
2.520000E+03	1.658076E-16	5.997011E-17
2.560000E+03	1.691937E-16	5.890704E-17
2.600000E+03	1.728667E-16	5.783269E-17
2.640000E+03	1.768165E-16	5.673410E-17
2.680000E+03	1.811373E-16	5.563133E-17
2.720000E+03	1.858827E-16	5.452769E-17
2.760000E+03	1.910907E-16	5.341956E-17
2.800000E+03	1.968324E-16	5.231069E-17
2.840000E+03	2.031887E-16	5.120390E-17
2.880000E+03	2.101994E-16	5.008862E-17
2.920000E+03	2.179617E-16	4.896584E-17
2.960000E+03	2.265794E-16	4.783373E-17
3.000000E+03	2.362123E-16	4.669729E-17
3.010000E+03	2.387961E-16	4.641212E-17
3.020000E+03	2.414405E-16	4.612355E-17
3.030000E+03	2.441733E-16	4.583645E-17
3.040000E+03	2.469699E-16	4.554552E-17
3.050000E+03	2.498852E-16	4.526030E-17
3.060000E+03	2.528403E-16	4.496580E-17
3.070000E+03	2.559177E-16	4.467621E-17
3.080000E+03	2.590647E-16	4.438155E-17
3.090000E+03	2.623099E-16	4.408618E-17
3.100000E+03	2.656546E-16	4.378962E-17
3.110000E+03	2.691003E-16	4.349141E-17
3.120000E+03	2.726481E-16	4.319104E-17
3.130000E+03	2.762991E-16	4.288801E-17
3.140000E+03	2.800257E-16	4.257748E-17
3.150000E+03	2.839139E-16	4.227187E-17
3.160000E+03	2.878791E-16	4.195769E-17
3.170000E+03	2.919787E-16	4.164286E-17
3.180000E+03	2.961844E-16	4.132256E-17
3.190000E+03	3.004958E-16	4.099627E-17
3.200000E+03	3.049717E-16	4.067137E-17
3.210000E+03	3.095529E-16	4.033917E-17
3.220000E+03	3.142681E-16	4.000301E-17
3.230000E+03	3.190861E-16	3.965846E-17
3.240000E+03	3.240659E-16	3.931251E-17
3.250000E+03	3.291758E-16	3.896073E-17
3.260000E+03	3.344443E-16	3.860617E-17
3.270000E+03	3.398382E-16	3.824465E-17
3.280000E+03	3.453539E-16	3.787577E-17
3.290000E+03	3.510511E-16	3.750599E-17
3.300000E+03	3.568624E-16	3.712805E-17
3.310000E+03	3.628471E-16	3.674837E-17
3.320000E+03	3.689354E-16	3.636018E-17
3.330000E+03	3.752187E-16	3.597304E-17
3.340000E+03	3.816253E-16	3.558054E-17
3.350000E+03	3.881807E-16	3.518598E-17
3.360000E+03	3.948767E-16	3.478961E-17
3.370000E+03	4.017382E-16	3.439478E-17
3.380000E+03	4.087562E-16	3.400196E-17
3.390000E+03	4.158866E-16	3.360903E-17
3.400000E+03	4.231873E-16	3.322240E-17
3.410000E+03	4.306134E-16	3.284025E-17
3.420000E+03	4.381538E-16	3.246373E-17
3.430000E+03	4.458672E-16	3.209914E-17
3.440000E+03	4.537435E-16	3.174753E-17
3.450000E+03	4.617373E-16	3.140763E-17
3.460000E+03	4.698386E-16	3.108084E-17
3.470000E+03	4.781443E-16	3.077540E-17
3.480000E+03	4.865401E-16	3.048554E-17
3.490000E+03	4.951255E-16	3.021913E-17
3.500000E+03	5.038595E-16	2.997482E-17
3.510000E+03	5.127380E-16	2.975341E-17
3.520000E+03	5.217949E-16	2.955756E-17
3.530000E+03	5.310298E-16	2.938760E-17
3.540000E+03	5.404441E-16	2.924366E-17
3.550000E+03	5.500772E-16	2.912758E-17
3.560000E+03	5.598975E-16	2.903714E-17
3.570000E+03	5.699474E-16	2.897378E-17
3.580000E+03	5.802343E-16	2.893683E-17
3.590000E+03	5.908029E-16	2.892725E-17
3.600000E+03	6.015905E-16	2.894053E-17
3.610000E+03	6.126438E-16	2.897741E-17
3.620000E+03	6.240105E-16	2.903838E-17
3.630000E+03	6.356664E-16	2.912037E-17
3.640000E+03	6.476240E-16	2.922194E-17
3.650000E+03	6.599322E-16	2.934309E-17
3.660000E+03	6.725677E-16	2.948041E-17
3.670000E+03	6.855428E-16	2.963198E-17
3.680000E+03	6.988693E-16	2.979572E-17
3.690000E+03	7.125937E-16	2.997089E-17
3.700000E+03	7.266891E-16	3.015357E-17
3.710000E+03	7.411621E-16	3.034124E-17
3.720000E+03	7.560170E-16	3.053128E-17
3.730000E+03	7.712903E-16	3.072242E-17
3.740000E+03	7.868710E-16	3.090765E-17
3.750000E+03	8.028588E-16	3.108852E-17
3.760000E+03	8.191684E-16	3.125956E-17
3.770000E+03	8.358160E-16	3.141961E-17
3.780000E+03	8.527396E-16	3.156494E-17
3.790000E+03	8.699412E-16	3.169474E-17
3.800000E+03	8.873077E-16	3.180455E-17
3.810000E+03	9.048606E-16	3.189546E-17
3.820000E+03	9.224340E-16	3.196259E-17
3.830000E+03	9.400676E-16	3.200905E-17
3.840000E+03	9.576135E-16	3.203218E-17
3.850000E+03	9.749512E-16	3.203114E-17
3.860000E+03	9.920588E-16	3.200909E-17
3.870000E+03	1.008765E-15	3.196492E-17
3.880000E+03	1.024964E-15	3.190021E-17
3.890000E+03	1.040581E-15	3.181787E-17
3.900000E+03	1.055470E-15	3.171877E-17
3.910000E+03	1.069448E-15	3.160286E-17
3.920000E+03	1.082515E-15	3.147528E-17
3.930000E+03	1.094465E-15	3.133489E-17
3.940000E+03	1.105244E-15	3.118455E-17
3.950000E+03	1.114739E-15	3.102497E-17
3.960000E+03	1.122921E-15	3.085859E-17
3.970000E+03	1.129680E-15	3.068491E-17
3.980000E+03	1.135021E-15	3.050597E-17
3.990000E+03	1.138906E-15	3.032175E-17
4.000000E+03	1.141350E-15	3.013294E-17
4.010000E+03	1.142359E-15	2.993915E-17
4.020000E+03	1.142022E-15	2.974155E-17
4.030000E+03	1.140353E-15	2.953891E-17
4.040000E+03	1.137476E-15	2.933244E-17
4.050000E+03	1.133472E-15	2.912194E-17
4.060000E+03	1.128465E-15	2.890810E-17
4.070000E+03	1.122587E-15	2.869173E-17
4.080000E+03	1.115953E-15	2.847305E-17
4.090000E+03	1.108736E-15	2.825384E-17
4.100000E+03	1.101006E-15	2.803329E-17
4.110000E+03	1.092989E-15	2.781475E-17
4.120000E+03	1.084751E-15	2.759776E-17
4.130000E+03	1.076480E-15	2.738512E-17
4.140000E+03	1.068256E-15	2.717718E-17
4.150000E+03	1.060224E-15	2.697613E-17
4.160000E+03	1.052469E-15	2.678285E-17
4.170000E+03	1.045072E-15	2.659810E-17
4.180000E+03	1.038166E-15	2.642409E-17
4.190000E+03	1.031810E-15	2.626108E-17
4.200000E+03	1.026055E-15	2.610917E-17
4.210000E+03	1.020990E-15	2.596949E-17
4.220000E+03	1.016653E-15	2.584212E-17
4.230000E+03	1.013101E-15	2.572783E-17
4.240000E+03	1.010408E-15	2.562804E-17
4.250000E+03	1.008585E-15	2.554286E-17
4.260000E+03	1.007721E-15	2.547447E-17
4.270000E+03	1.007863E-15	2.542405E-17
4.280000E+03	1.009024E-15	2.539180E-17
4.290000E+03	1.011290E-15	2.537963E-17
4.300000E+03	1.014709E-15	2.538831E-17
4.310000E+03	1.019313E-15	2.541793E-17
4.320000E+03	1.025152E-15	2.546881E-17
4.330000E+03	1.032293E-15	2.554141E-17
4.340000E+03	1.040783E-15	2.563547E-17
4.350000E+03	1.050647E-15	2.574990E-17
4.360000E+03	1.061955E-15	2.588462E-17
4.370000E+03	1.074701E-15	2.603738E-17
4.380000E+03	1.088916E-15	2.620683E-17
4.390000E+03	1.104585E-15	2.639038E-17
4.400000E+03	1.121724E-15	2.658634E-17
4.410000E+03	1.140263E-15	2.679103E-17
4.420000E+03	1.160139E-15	2.700143E-17
4.430000E+03	1.181266E-15	2.721446E-17
4.440000E+03	1.203532E-15	2.742707E-17
4.450000E+03	1.226795E-15	2.763632E-17
4.460000E+03	1.250862E-15	2.783895E-17
4.470000E+03	1.275548E-15	2.803254E-17
4.480000E+03	1.300597E-15	2.821370E-17
4.490000E+03	1.325762E-15	2.837955E-17
4.500000E+03	1.350746E-15	2.852635E-17
4.510000E+03	1.375193E-15	2.864902E-17
4.520000E+03	1.398807E-15	2.874375E-17
4.530000E+03	1.421228E-15	2.880520E-17
4.540000E+03	1.442114E-15	2.882849E-17
4.550000E+03	1.461141E-15	2.880916E-17
4.560000E+03	1.478006E-15	2.874358E-17
4.570000E+03	1.492420E-15	2.862894E-17
4.580000E+03	1.504164E-15	2.846429E-17
4.590000E+03	1.513073E-15	2.825032E-17
4.600000E+03	1.519024E-15	2.798892E-17
4.610000E+03	1.522006E-15	2.768422E-17
4.620000E+03	1.522037E-15	2.734082E-17
4.630000E+03	1.519226E-15	2.696472E-17
4.640000E+03	1.513725E-15	2.656232E-17
4.650000E+03	1.505781E-15	2.614134E-17
4.660000E+03	1.495627E-15	2.570876E-17
4.670000E+03	1.483607E-15	2.527303E-17
4.680000E+03	1.470009E-15	2.484097E-17
4.690000E+03	1.455188E-15	2.441976E-17
4.700000E+03	1.439459E-15	2.401499E-17
4.710000E+03	1.423149E-15	2.363148E-17
4.720000E+03	1.406562E-15	2.327286E-17
4.730000E+03	1.389994E-15	2.294204E-17
4.740000E+03	1.373661E-15	2.264032E-17
4.750000E+03	1.357794E-15	2.236939E-17
4.760000E+03	1.342557E-15	2.213019E-17
4.770000E+03	1.328095E-15	2.192392E-17
4.780000E+03	1.314523E-15	2.175177E-17
4.790000E+03	1.301922E-15	2.161473E-17
4.800000E+03	1.290330E-15	2.151313E-17
4.810000E+03	1.279793E-15	2.144700E-17
4.820000E+03	1.270301E-15	2.141484E-17
4.830000E+03	1.261857E-15	2.141461E-17
4.840000E+03	1.254429E-15	2.144313E-17
4.850000E+03	1.247972E-15	2.149662E-17
4.860000E+03	1.242444E-15	2.157141E-17
4.870000E+03	1.237748E-15	2.166326E-17
4.880000E+03	1.233841E-15	2.176942E-17
4.890000E+03	1.230652E-15	2.188736E-17
4.900000E+03	1.228095E-15	2.201504E-17
4.910000E+03	1.226125E-15	2.215164E-17
4.920000E+03	1.224694E-15	2.229658E-17
4.930000E+03	1.223788E-15	2.244983E-17
4.940000E+03	1.223386E-15	2.261093E-17
4.950000E+03	1.223504E-15	2.277970E-17
4.960000E+03	1.224194E-15	2.295617E-17
4.970000E+03	1.225518E-15	2.314014E-17
4.980000E+03	1.227535E-15	2.333114E-17
4.990000E+03	1.230362E-15	2.352950E-17
5.000000E+03	1.234076E-15	2.373481E-17
5.010000E+03	1.238771E-15	2.394700E-17
5.020000E+03	1.244550E-15	2.416644E-17
5.030000E+03	1.251489E-15	2.439347E-17
5.040000E+03	1.259642E-15	2.462849E-17
5.050000E+03	1.269070E-15	2.487271E-17
5.060000E+03	1.279806E-15	2.512735E-17
5.070000E+03	1.291878E-15	2.539404E-17
5.080000E+03	1.305267E-15	2.567379E-17
5.090000E+03	1.319953E-15	2.596761E-17
5.100000E+03	1.335912E-15	2.627622E-17
5.110000E+03	1.353078E-15	2.659905E-17
5.120000E+03	1.371414E-15	2.693541E-17
5.130000E+03	1.390814E-15	2.728250E-17
5.140000E+03	1.411200E-15	2.763743E-17
5.150000E+03	1.432472E-15	2.799622E-17
5.160000E+03	1.454529E-15	2.835460E-17
5.170000E+03	1.477226E-15	2.870742E-17
5.180000E+03	1.500419E-15	2.904987E-17
5.190000E+03	1.523949E-15	2.937748E-17
5.200000E+03	1.547671E-15	2.968708E-17
5.210000E+03	1.571345E-15	2.997489E-17
5.220000E+03	1.594794E-15	3.023978E-17
5.230000E+03	1.617797E-15	3.048129E-17
5.240000E+03	1.640121E-15	3.070015E-17
5.250000E+03	1.661521E-15	3.089823E-17
5.260000E+03	1.681732E-15	3.107790E-17
5.270000E+03	1.700520E-15	3.124269E-17
5.280000E+03	1.717640E-15	3.139590E-17
5.290000E+03	1.732835E-15	3.154017E-17
5.300000E+03	1.745914E-15	3.167845E-17
5.310000E+03	1.756651E-15	3.181189E-17
5.320000E+03	1.764841E-15	3.194069E-17
5.330000E+03	1.770356E-15	3.206507E-17
5.340000E+03	1.773024E-15	3.218297E-17
5.350000E+03	1.772760E-15	3.229231E-17
5.360000E+03	1.769508E-15	3.239012E-17
5.370000E+03	1.763195E-15	3.247163E-17
5.380000E+03	1.753833E-15	3.253254E-17
5.390000E+03	1.741472E-15	3.256829E-17
5.400000E+03	1.726140E-15	3.257341E-17
5.410000E+03	1.707950E-15	3.254388E-17
5.420000E+03	1.687034E-15	3.247610E-17
5.430000E+03	1.663567E-15	3.236780E-17
5.440000E+03	1.637706E-15	3.221696E-17
5.450000E+03	1.609703E-15	3.202420E-17
5.460000E+03	1.579789E-15	3.179051E-17
5.470000E+03	1.548249E-15	3.151878E-17
5.480000E+03	1.515364E-15	3.121238E-17
5.490000E+03	1.481451E-15	3.087582E-17
5.500000E+03	1.446856E-15	3.051444E-17
5.510000E+03	1.411922E-15	3.013343E-17
5.520000E+03	1.376996E-15	2.973788E-17
5.530000E+03	1.342409E-15	2.933225E-17
5.540000E+03	1.308511E-15	2.892116E-17
5.550000E+03	1.275609E-15	2.850815E-17
5.560000E+03	1.244041E-15	2.809752E-17
5.570000E+03	1.214042E-15	2.769150E-17
5.580000E+03	1.185886E-15	2.729357E-17
5.590000E+03	1.159765E-15	2.690598E-17
5.600000E+03	1.135905E-15	2.653232E-17
5.610000E+03	1.114431E-15	2.617457E-17
5.620000E+03	1.095501E-15	2.583604E-17
5.630000E+03	1.079221E-15	2.551945E-17
5.640000E+03	1.065656E-15	2.522693E-17
5.650000E+03	1.054889E-15	2.496147E-17
5.660000E+03	1.046962E-15	2.472540E-17
5.670000E+03	1.041890E-15	2.452062E-17
5.680000E+03	1.039680E-15	2.434915E-17
5.690000E+03	1.040334E-15	2.421308E-17
5.700000E+03	1.043829E-15	2.411405E-17
5.710000E+03	1.050111E-15	2.405318E-17
5.720000E+03	1.059117E-15	2.403138E-17
5.730000E+03	1.070769E-15	2.404926E-17
5.740000E+03	1.084950E-15	2.410658E-17
5.750000E+03	1.101502E-15	2.420211E-17
5.760000E+03	1.120251E-15	2.433442E-17
5.770000E+03	1.140978E-15	2.450113E-17
5.780000E+03	1.163410E-15	2.469895E-17
5.790000E+03	1.187251E-15	2.492413E-17
5.800000E+03	1.212176E-15	2.517244E-17
5.810000E+03	1.237806E-15	2.543840E-17
5.820000E+03	1.263761E-15	2.571620E-17
5.830000E+03	1.289628E-15	2.599901E-17
5.840000E+03	1.314976E-15	2.627900E-17
5.850000E+03	1.339389E-15	2.654803E-17
5.860000E+03	1.362470E-15	2.679761E-17
5.870000E+03	1.383851E-15	2.701919E-17
5.880000E+03	1.403220E-15	2.720478E-17
5.890000E+03	1.420289E-15	2.734649E-17
5.900000E+03	1.434831E-15	2.743749E-17
5.910000E+03	1.446727E-15	2.747317E-17
5.920000E+03	1.455871E-15	2.744967E-17
5.930000E+03	1.462272E-15	2.736603E-17
5.940000E+03	1.465990E-15	2.722328E-17
5.950000E+03	1.467125E-15	2.702431E-17
5.960000E+03	1.465888E-15	2.677524E-17
5.970000E+03	1.462517E-15	2.648362E-17
5.980000E+03	1.457262E-15	2.615795E-17
5.990000E+03	1.450434E-15	2.580827E-17
6.000000E+03	1.442401E-15	2.544549E-17
6.010000E+03	1.433469E-15	2.507919E-17
6.020000E+03	1.424006E-15	2.471935E-17
6.030000E+03	1.414361E-15	2.437465E-17
6.040000E+03	1.404850E-15	2.405221E-17
6.050000E+03	1.395781E-15	2.375782E-17
6.060000E+03	1.387427E-15	2.349565E-17
6.070000E+03	1.379999E-15	2.326776E-17
6.080000E+03	1.373705E-15	2.307537E-17
6.090000E+03	1.368663E-15	2.291752E-17
6.100000E+03	1.364986E-15	2.279255E-17
6.110000E+03	1.362681E-15	2.269668E-17
6.120000E+03	1.361748E-15	2.262579E-17
6.130000E+03	1.362139E-15	2.257497E-17
6.140000E+03	1.363727E-15	2.253816E-17
6.150000E+03	1.366374E-15	2.250952E-17
6.160000E+03	1.369927E-15	2.248347E-17
6.170000E+03	1.374172E-15	2.245407E-17
6.180000E+03	1.378911E-15	2.241626E-17
6.190000E+03	1.383953E-15	2.236589E-17
6.200000E+03	1.389108E-15	2.229966E-17
6.210000E+03	1.394197E-15	2.221533E-17
6.220000E+03	1.399105E-15	2.211265E-17
6.230000E+03	1.403666E-15	2.199139E-17
6.240000E+03	1.407770E-15	2.185272E-17
6.250000E+03	1.411324E-15	2.169812E-17
6.260000E+03	1.414229E-15	2.152843E-17
6.270000E+03	1.416416E-15	2.134406E-17
6.280000E+03	1.417847E-15	2.114475E-17
6.290000E+03	1.418478E-15	2.092885E-17
6.300000E+03	1.418283E-15	2.069396E-17
6.310000E+03	1.417287E-15	2.043778E-17
6.320000E+03	1.415505E-15	2.015783E-17
6.330000E+03	1.412986E-15	1.985284E-17
6.340000E+03	1.409769E-15	1.952278E-17
6.350000E+03	1.405948E-15	1.917050E-17
6.360000E+03	1.401600E-15	1.880104E-17
6.370000E+03	1.396822E-15	1.842229E-17
6.380000E+03	1.391688E-15	1.804419E-17
6.390000E+03	1.386312E-15	1.767909E-17
6.400000E+03	1.380760E-15	1.733989E-17
6.410000E+03	1.375130E-15	1.704022E-17
6.420000E+03	1.369457E-15	1.679223E-17
6.430000E+03	1.363778E-15	1.660639E-17
6.440000E+03	1.358079E-15	1.648976E-17
6.450000E+03	1.352334E-15	1.644569E-17
6.460000E+03	1.346420E-15	1.647273E-17
6.470000E+03	1.340239E-15	1.656664E-17
6.480000E+03	1.333637E-15	1.672040E-17
6.490000E+03	1.326455E-15	1.692542E-17
6.500000E+03	1.318530E-15	1.717200E-17
6.510000E+03	1.309743E-15	1.744980E-17
6.520000E+03	1.299939E-15	1.774673E-17
6.530000E+03	1.289035E-15	1.805034E-17
6.540000E+03	1.276967E-15	1.834751E-17
6.550000E+03	1.263709E-15	1.862532E-17
6.560000E+03	1.249268E-15	1.887176E-17
6.570000E+03	1.233702E-15	1.907673E-17
6.580000E+03	1.217055E-15	1.923170E-17
6.590000E+03	1.199438E-15	1.933140E-17
6.600000E+03	1.180985E-15	1.937335E-17
6.610000E+03	1.161814E-15	1.935734E-17
6.620000E+03	1.142071E-15	1.928586E-17
6.630000E+03	1.121920E-15	1.916356E-17
6.640000E+03	1.101517E-15	1.899631E-17
6.650000E+03	1.081005E-15	1.879061E-17
6.660000E+03	1.060564E-15	1.855389E-17
6.670000E+03	1.040323E-15	1.829266E-17
6.680000E+03	1.020451E-15	1.801384E-17
6.690000E+03	1.001078E-15	1.772317E-17
6.700000E+03	9.823457E-16	1.742618E-17
6.710000E+03	9.643638E-16	1.712741E-17
6.720000E+03	9.472645E-16	1.683144E-17
6.730000E+03	9.311226E-16	1.654169E-17
6.740000E+03	9.160442E-16	1.626204E-17
6.750000E+03	9.020887E-16	1.599562E-17
6.760000E+03	8.893240E-16	1.574583E-17
6.770000E+03	8.777827E-16	1.551551E-17
6.780000E+03	8.675058E-16	1.530764E-17
6.790000E+03	8.585000E-16	1.512432E-17
6.800000E+03	8.507903E-16	1.496747E-17
6.810000E+03	8.443580E-16	1.483761E-17
6.820000E+03	8.391827E-16	1.473439E-17
6.830000E+03	8.352317E-16	1.465652E-17
6.840000E+03	8.324706E-16	1.460205E-17
6.850000E+03	8.308332E-16	1.456817E-17
6.860000E+03	8.302524E-16	1.455207E-17
6.870000E+03	8.306717E-16	1.455152E-17
6.880000E+03	8.319754E-16	1.456398E-17
6.890000E+03	8.341029E-16	1.458875E-17
6.900000E+03	8.369387E-16	1.462513E-17
6.910000E+03	8.403977E-16	1.467378E-17
6.920000E+03	8.443876E-16	1.473566E-17
6.930000E+03	8.488227E-16	1.481186E-17
6.940000E+03	8.536280E-16	1.490303E-17
6.950000E+03	8.587313E-16	1.500882E-17
6.960000E+03	8.641090E-16	1.512837E-17
6.970000E+03	8.697113E-16	1.525899E-17
6.980000E+03	8.755386E-16	1.539769E-17
6.990000E+03	8.815960E-16	1.554082E-17
7.000000E+03	8.879025E-16	1.568471E-17
7.010000E+03	8.944768E-16	1.582591E-17
7.020000E+03	9.013684E-16	1.596207E-17
7.030000E+03	9.086214E-16	1.609150E-17
7.040000E+03	9.162723E-16	1.621318E-17
7.050000E+03	9.243820E-16	1.632727E-17
7.060000E+03	9.329991E-16	1.643438E-17
7.070000E+03	9.421457E-16	1.653517E-17
7.080000E+03	9.518859E-16	1.663139E-17
7.090000E+03	9.622400E-16	1.672429E-17
7.100000E+03	9.732292E-16	1.681525E-17
7.110000E+03	9.848605E-16	1.690551E-17
7.120000E+03	9.971101E-16	1.699581E-17
7.130000E+03	1.009958E-15	1.708700E-17
7.140000E+03	1.023347E-15	1.717933E-17
7.150000E+03	1.037178E-15	1.727242E-17
7.160000E+03	1.051323E-15	1.736551E-17
7.170000E+03	1.065647E-15	1.745804E-17
7.180000E+03	1.079973E-15	1.754908E-17
7.190000E+03	1.094080E-15	1.763755E-17
7.200000E+03	1.107736E-15	1.772276E-17
7.210000E+03	1.120689E-15	1.780431E-17
7.220000E+03	1.132658E-15	1.788177E-17
7.230000E+03	1.143388E-15	1.795513E-17
7.240000E+03	1.152587E-15	1.802345E-17
7.250000E+03	1.160009E-15	1.808581E-17
7.260000E+03	1.165442E-15	1.814085E-17
7.270000E+03	1.168714E-15	1.818697E-17
7.280000E+03	1.169677E-15	1.822201E-17
7.290000E+03	1.168302E-15	1.824483E-17
7.300000E+03	1.164550E-15	1.825334E-17
7.310000E+03	1.158508E-15	1.824657E-17
7.320000E+03	1.150293E-15	1.822334E-17
7.330000E+03	1.140073E-15	1.818261E-17
7.340000E+03	1.128077E-15	1.812364E-17
7.350000E+03	1.114547E-15	1.804544E-17
7.360000E+03	1.099758E-15	1.794723E-17
7.370000E+03	1.083979E-15	1.782820E-17
7.380000E+03	1.067476E-15	1.768803E-17
7.390000E+03	1.050507E-15	1.752746E-17
7.400000E+03	1.033324E-15	1.734872E-17
7.410000E+03	1.016165E-15	1.715550E-17
7.420000E+03	9.992144E-16	1.695228E-17
7.430000E+03	9.826656E-16	1.674497E-17
7.440000E+03	9.666884E-16	1.653993E-17
7.450000E+03	9.514330E-16	1.634349E-17
7.460000E+03	9.370439E-16	1.616183E-17
7.470000E+03	9.236373E-16	1.600016E-17
7.480000E+03	9.113163E-16	1.586292E-17
7.490000E+03	9.001972E-16	1.575403E-17
7.500000E+03	8.903618E-16	1.567607E-17
7.510000E+03	8.818828E-16	1.563066E-17
7.520000E+03	8.748462E-16	1.561879E-17
7.530000E+03	8.693028E-16	1.563982E-17
7.540000E+03	8.652904E-16	1.569181E-17
7.550000E+03	8.628431E-16	1.577169E-17
7.560000E+03	8.619674E-16	1.587497E-17
7.570000E+03	8.626760E-16	1.599661E-17
7.580000E+03	8.649181E-16	1.613020E-17
7.590000E+03	8.686850E-16	1.627032E-17
7.600000E+03	8.739060E-16	1.641116E-17
7.610000E+03	8.805070E-16	1.654803E-17
7.620000E+03	8.884109E-16	1.667764E-17
7.630000E+03	8.975009E-16	1.679762E-17
7.640000E+03	9.076919E-16	1.690780E-17
7.650000E+03	9.188062E-16	1.700778E-17
7.660000E+03	9.307075E-16	1.709919E-17
7.670000E+03	9.432264E-16	1.718401E-17
7.680000E+03	9.561204E-16	1.726361E-17
7.690000E+03	9.692056E-16	1.734089E-17
7.700000E+03	9.822436E-16	1.741793E-17
7.710000E+03	9.949560E-16	1.749588E-17
7.720000E+03	1.007098E-15	1.757582E-17
7.730000E+03	1.018425E-15	1.765780E-17
7.740000E+03	1.028669E-15	1.774003E-17
7.750000E+03	1.037589E-15	1.781965E-17
7.760000E+03	1.044962E-15	1.789267E-17
