#wls	flux	fluxerr
1.600000E+03	1.248187E-16	7.836187E-17
1.640000E+03	1.255363E-16	7.769094E-17
1.680000E+03	1.262479E-16	7.697622E-17
1.720000E+03	1.269989E-16	7.624466E-17
1.760000E+03	1.277416E-16	7.546636E-17
1.800000E+03	1.285223E-16	7.466794E-17
1.840000E+03	1.293409E-16	7.384766E-17
1.880000E+03	1.301972E-16	7.300387E-17
1.920000E+03	1.311397E-16	7.216158E-17
1.960000E+03	1.321211E-16	7.129222E-17
2.000000E+03	1.332151E-16	7.043312E-17
2.040000E+03	1.344239E-16	6.958138E-17
2.080000E+03	1.357260E-16	6.872191E-17
2.120000E+03	1.371980E-16	6.788916E-17
2.160000E+03	1.388200E-16	6.706744E-17
2.200000E+03	1.406222E-16	6.626546E-17
2.240000E+03	1.426117E-16	6.547983E-17
2.280000E+03	1.447725E-16	6.469647E-17
2.320000E+03	1.471645E-16	6.393504E-17
2.360000E+03	1.497511E-16	6.317156E-17
2.400000E+03	1.525727E-16	6.241536E-17
2.440000E+03	1.556234E-16	6.165536E-17
2.480000E+03	1.589256E-16	6.089185E-17
2.520000E+03	1.624812E-16	6.011635E-17
2.560000E+03	1.663469E-16	5.934004E-17
2.600000E+03	1.705602E-16	5.856466E-17
2.640000E+03	1.751394E-16	5.778386E-17
2.680000E+03	1.801604E-16	5.700879E-17
2.720000E+03	1.856557E-16	5.623367E-17
2.760000E+03	1.916908E-16	5.546100E-17
2.800000E+03	1.983400E-16	5.469247E-17
2.840000E+03	2.056852E-16	5.392854E-17
2.880000E+03	2.137619E-16	5.315431E-17
2.920000E+03	2.226914E-16	5.237412E-17
2.960000E+03	2.325723E-16	5.158194E-17
3.000000E+03	2.435612E-16	5.078020E-17
3.010000E+03	2.464978E-16	5.057751E-17
3.020000E+03	2.495278E-16	5.037632E-17
3.030000E+03	2.526530E-16	5.017624E-17
3.040000E+03	2.558452E-16	4.997103E-17
3.050000E+03	2.591055E-16	4.976044E-17
3.060000E+03	2.624951E-16	4.955558E-17
3.070000E+03	2.659553E-16	4.934453E-17
3.080000E+03	2.695479E-16	4.913813E-17
3.090000E+03	2.732132E-16	4.892468E-17
3.100000E+03	2.769827E-16	4.870929E-17
3.110000E+03	2.808572E-16	4.849142E-17
3.120000E+03	2.848376E-16	4.827055E-17
3.130000E+03	2.889244E-16	4.804611E-17
3.140000E+03	2.931499E-16	4.782276E-17
3.150000E+03	2.974507E-16	4.758944E-17
3.160000E+03	3.018908E-16	4.735596E-17
3.170000E+03	3.064707E-16	4.712157E-17
3.180000E+03	3.111574E-16	4.688054E-17
3.190000E+03	3.159833E-16	4.663724E-17
3.200000E+03	3.209142E-16	4.638607E-17
3.210000E+03	3.260162E-16	4.613612E-17
3.220000E+03	3.312205E-16	4.587705E-17
3.230000E+03	3.365589E-16	4.561306E-17
3.240000E+03	3.420291E-16	4.534354E-17
3.250000E+03	3.476636E-16	4.507246E-17
3.260000E+03	3.534245E-16	4.479466E-17
3.270000E+03	3.593080E-16	4.450967E-17
3.280000E+03	3.653456E-16	4.422149E-17
3.290000E+03	3.715329E-16	4.392963E-17
3.300000E+03	3.778651E-16	4.363370E-17
3.310000E+03	3.843366E-16	4.333343E-17
3.320000E+03	3.909779E-16	4.303272E-17
3.330000E+03	3.977456E-16	4.272733E-17
3.340000E+03	4.046317E-16	4.241735E-17
3.350000E+03	4.116655E-16	4.210690E-17
3.360000E+03	4.188765E-16	4.179996E-17
3.370000E+03	4.261797E-16	4.148921E-17
3.380000E+03	4.336416E-16	4.118265E-17
3.390000E+03	4.412136E-16	4.087714E-17
3.400000E+03	4.489630E-16	4.058051E-17
3.410000E+03	4.568012E-16	4.028634E-17
3.420000E+03	4.647956E-16	4.000248E-17
3.430000E+03	4.728962E-16	3.972633E-17
3.440000E+03	4.811318E-16	3.946220E-17
3.450000E+03	4.894920E-16	3.921099E-17
3.460000E+03	4.979667E-16	3.897366E-17
3.470000E+03	5.065868E-16	3.875427E-17
3.480000E+03	5.153031E-16	3.855057E-17
3.490000E+03	5.241482E-16	3.836647E-17
3.500000E+03	5.331149E-16	3.820265E-17
3.510000E+03	5.422383E-16	3.806259E-17
3.520000E+03	5.514728E-16	3.794383E-17
3.530000E+03	5.608559E-16	3.784953E-17
3.540000E+03	5.703851E-16	3.777979E-17
3.550000E+03	5.800596E-16	3.773459E-17
3.560000E+03	5.899202E-16	3.771638E-17
3.570000E+03	5.999274E-16	3.772216E-17
3.580000E+03	6.101242E-16	3.775400E-17
3.590000E+03	6.204731E-16	3.780872E-17
3.600000E+03	6.310596E-16	3.789048E-17
3.610000E+03	6.418474E-16	3.799580E-17
3.620000E+03	6.528417E-16	3.812358E-17
3.630000E+03	6.640479E-16	3.827263E-17
3.640000E+03	6.755119E-16	3.844389E-17
3.650000E+03	6.871986E-16	3.863356E-17
3.660000E+03	6.991131E-16	3.884006E-17
3.670000E+03	7.113400E-16	3.906612E-17
3.680000E+03	7.238019E-16	3.930542E-17
3.690000E+03	7.365008E-16	3.955605E-17
3.700000E+03	7.495167E-16	3.982027E-17
3.710000E+03	7.627675E-16	4.009164E-17
3.720000E+03	7.762884E-16	4.037009E-17
3.730000E+03	7.900317E-16	4.065130E-17
3.740000E+03	8.040261E-16	4.093504E-17
3.750000E+03	8.182560E-16	4.121901E-17
3.760000E+03	8.327018E-16	4.150089E-17
3.770000E+03	8.472998E-16	4.177649E-17
3.780000E+03	8.620597E-16	4.204560E-17
3.790000E+03	8.769074E-16	4.230423E-17
3.800000E+03	8.918411E-16	4.255232E-17
3.810000E+03	9.067756E-16	4.278622E-17
3.820000E+03	9.216588E-16	4.300431E-17
3.830000E+03	9.364328E-16	4.320517E-17
3.840000E+03	9.510344E-16	4.338755E-17
3.850000E+03	9.653956E-16	4.355041E-17
3.860000E+03	9.794062E-16	4.369120E-17
3.870000E+03	9.930661E-16	4.381261E-17
3.880000E+03	1.006185E-15	4.390917E-17
3.890000E+03	1.018759E-15	4.398385E-17
3.900000E+03	1.030674E-15	4.403486E-17
3.910000E+03	1.041818E-15	4.406061E-17
3.920000E+03	1.052193E-15	4.406427E-17
3.930000E+03	1.061625E-15	4.404150E-17
3.940000E+03	1.070130E-15	4.399562E-17
3.950000E+03	1.077623E-15	4.392559E-17
3.960000E+03	1.084068E-15	4.383195E-17
3.970000E+03	1.089408E-15	4.371401E-17
3.980000E+03	1.093631E-15	4.357263E-17
3.990000E+03	1.096773E-15	4.341011E-17
4.000000E+03	1.098788E-15	4.322494E-17
4.010000E+03	1.099706E-15	4.301849E-17
4.020000E+03	1.099608E-15	4.279349E-17
4.030000E+03	1.098519E-15	4.255037E-17
4.040000E+03	1.096511E-15	4.229098E-17
4.050000E+03	1.093637E-15	4.201619E-17
4.060000E+03	1.089988E-15	4.172825E-17
4.070000E+03	1.085665E-15	4.142953E-17
4.080000E+03	1.080772E-15	4.112248E-17
4.090000E+03	1.075391E-15	4.080864E-17
4.100000E+03	1.069632E-15	4.049066E-17
4.110000E+03	1.063608E-15	4.017118E-17
4.120000E+03	1.057402E-15	3.985189E-17
4.130000E+03	1.051149E-15	3.953633E-17
4.140000E+03	1.044926E-15	3.922605E-17
4.150000E+03	1.038807E-15	3.892255E-17
4.160000E+03	1.032913E-15	3.862900E-17
4.170000E+03	1.027305E-15	3.834661E-17
4.180000E+03	1.022090E-15	3.807816E-17
4.190000E+03	1.017299E-15	3.782373E-17
4.200000E+03	1.013025E-15	3.758579E-17
4.210000E+03	1.009313E-15	3.736503E-17
4.220000E+03	1.006244E-15	3.716359E-17
4.230000E+03	1.003835E-15	3.698121E-17
4.240000E+03	1.002180E-15	3.682059E-17
4.250000E+03	1.001289E-15	3.668135E-17
4.260000E+03	1.001230E-15	3.656521E-17
4.270000E+03	1.002049E-15	3.647307E-17
4.280000E+03	1.003750E-15	3.640432E-17
4.290000E+03	1.006413E-15	3.636097E-17
4.300000E+03	1.010075E-15	3.634346E-17
4.310000E+03	1.014736E-15	3.635070E-17
4.320000E+03	1.020448E-15	3.638338E-17
4.330000E+03	1.027240E-15	3.644126E-17
4.340000E+03	1.035117E-15	3.652314E-17
4.350000E+03	1.044117E-15	3.662880E-17
4.360000E+03	1.054250E-15	3.675701E-17
4.370000E+03	1.065500E-15	3.690555E-17
4.380000E+03	1.077861E-15	3.707240E-17
4.390000E+03	1.091293E-15	3.725455E-17
4.400000E+03	1.105799E-15	3.745040E-17
4.410000E+03	1.121294E-15	3.765548E-17
4.420000E+03	1.137713E-15	3.786614E-17
4.430000E+03	1.154971E-15	3.807834E-17
4.440000E+03	1.172965E-15	3.828769E-17
4.450000E+03	1.191575E-15	3.848942E-17
4.460000E+03	1.210619E-15	3.867727E-17
4.470000E+03	1.229954E-15	3.884649E-17
4.480000E+03	1.249420E-15	3.899206E-17
4.490000E+03	1.268783E-15	3.910702E-17
4.500000E+03	1.287869E-15	3.918666E-17
4.510000E+03	1.306422E-15	3.922396E-17
4.520000E+03	1.324234E-15	3.921379E-17
4.530000E+03	1.341082E-15	3.915082E-17
4.540000E+03	1.356724E-15	3.902967E-17
4.550000E+03	1.370955E-15	3.884632E-17
4.560000E+03	1.383583E-15	3.859772E-17
4.570000E+03	1.394446E-15	3.828197E-17
4.580000E+03	1.403389E-15	3.789796E-17
4.590000E+03	1.410332E-15	3.744710E-17
4.600000E+03	1.415177E-15	3.693069E-17
4.610000E+03	1.417943E-15	3.635354E-17
4.620000E+03	1.418596E-15	3.571939E-17
4.630000E+03	1.417256E-15	3.503617E-17
4.640000E+03	1.413970E-15	3.431007E-17
4.650000E+03	1.408874E-15	3.354965E-17
4.660000E+03	1.402171E-15	3.276505E-17
4.670000E+03	1.393995E-15	3.196471E-17
4.680000E+03	1.384572E-15	3.115911E-17
4.690000E+03	1.374136E-15	3.035874E-17
4.700000E+03	1.362871E-15	2.957280E-17
4.710000E+03	1.350998E-15	2.881107E-17
4.720000E+03	1.338745E-15	2.808329E-17
4.730000E+03	1.326295E-15	2.739806E-17
4.740000E+03	1.313849E-15	2.676414E-17
4.750000E+03	1.301573E-15	2.618939E-17
4.760000E+03	1.289613E-15	2.568101E-17
4.770000E+03	1.278093E-15	2.524550E-17
4.780000E+03	1.267150E-15	2.488911E-17
4.790000E+03	1.256866E-15	2.461643E-17
4.800000E+03	1.247303E-15	2.443086E-17
4.810000E+03	1.238492E-15	2.433397E-17
4.820000E+03	1.230463E-15	2.432331E-17
4.830000E+03	1.223205E-15	2.439191E-17
4.840000E+03	1.216754E-15	2.453300E-17
4.850000E+03	1.211074E-15	2.473821E-17
4.860000E+03	1.206151E-15	2.499970E-17
4.870000E+03	1.201995E-15	2.531043E-17
4.880000E+03	1.198552E-15	2.566262E-17
4.890000E+03	1.195798E-15	2.604969E-17
4.900000E+03	1.193736E-15	2.646633E-17
4.910000E+03	1.192333E-15	2.690707E-17
4.920000E+03	1.191572E-15	2.736744E-17
4.930000E+03	1.191461E-15	2.784400E-17
4.940000E+03	1.191999E-15	2.833366E-17
4.950000E+03	1.193183E-15	2.883360E-17
4.960000E+03	1.195057E-15	2.934255E-17
4.970000E+03	1.197648E-15	2.985912E-17
4.980000E+03	1.200976E-15	3.038205E-17
4.990000E+03	1.205090E-15	3.091118E-17
5.000000E+03	1.210032E-15	3.144639E-17
5.010000E+03	1.215855E-15	3.198822E-17
5.020000E+03	1.222600E-15	3.253716E-17
5.030000E+03	1.230287E-15	3.309351E-17
5.040000E+03	1.238974E-15	3.365877E-17
5.050000E+03	1.248655E-15	3.423305E-17
5.060000E+03	1.259369E-15	3.481789E-17
5.070000E+03	1.271119E-15	3.541395E-17
5.080000E+03	1.283882E-15	3.602128E-17
5.090000E+03	1.297653E-15	3.664039E-17
5.100000E+03	1.312412E-15	3.727139E-17
5.110000E+03	1.328088E-15	3.791275E-17
5.120000E+03	1.344652E-15	3.856403E-17
5.130000E+03	1.362022E-15	3.922307E-17
5.140000E+03	1.380130E-15	3.988805E-17
5.150000E+03	1.398868E-15	4.055583E-17
5.160000E+03	1.418146E-15	4.122378E-17
5.170000E+03	1.437843E-15	4.188854E-17
5.180000E+03	1.457830E-15	4.254659E-17
5.190000E+03	1.477961E-15	4.319430E-17
5.200000E+03	1.498082E-15	4.382812E-17
5.210000E+03	1.518025E-15	4.444459E-17
5.220000E+03	1.537613E-15	4.504049E-17
5.230000E+03	1.556676E-15	4.561327E-17
5.240000E+03	1.574988E-15	4.615926E-17
5.250000E+03	1.592385E-15	4.667693E-17
5.260000E+03	1.608668E-15	4.716399E-17
5.270000E+03	1.623605E-15	4.761735E-17
5.280000E+03	1.637034E-15	4.803594E-17
5.290000E+03	1.648770E-15	4.841773E-17
5.300000E+03	1.658618E-15	4.876013E-17
5.310000E+03	1.666418E-15	4.906100E-17
5.320000E+03	1.672041E-15	4.931855E-17
5.330000E+03	1.675347E-15	4.952993E-17
5.340000E+03	1.676250E-15	4.969320E-17
5.350000E+03	1.674658E-15	4.980540E-17
5.360000E+03	1.670539E-15	4.986467E-17
5.370000E+03	1.663853E-15	4.986827E-17
5.380000E+03	1.654627E-15	4.981476E-17
5.390000E+03	1.642880E-15	4.970209E-17
5.400000E+03	1.628696E-15	4.952974E-17
5.410000E+03	1.612171E-15	4.929732E-17
5.420000E+03	1.593412E-15	4.900469E-17
5.430000E+03	1.572585E-15	4.865354E-17
5.440000E+03	1.549850E-15	4.824545E-17
5.450000E+03	1.525435E-15	4.778436E-17
5.460000E+03	1.499526E-15	4.727309E-17
5.470000E+03	1.472359E-15	4.671630E-17
5.480000E+03	1.444214E-15	4.612024E-17
5.490000E+03	1.415320E-15	4.548987E-17
5.500000E+03	1.385958E-15	4.483198E-17
5.510000E+03	1.356396E-15	4.415315E-17
5.520000E+03	1.326903E-15	4.346011E-17
5.530000E+03	1.297725E-15	4.275911E-17
5.540000E+03	1.269129E-15	4.205716E-17
5.550000E+03	1.241342E-15	4.136014E-17
5.560000E+03	1.214623E-15	4.067532E-17
5.570000E+03	1.189141E-15	4.000709E-17
5.580000E+03	1.165106E-15	3.936152E-17
5.590000E+03	1.142670E-15	3.874304E-17
5.600000E+03	1.121988E-15	3.815645E-17
5.610000E+03	1.103172E-15	3.760536E-17
5.620000E+03	1.086334E-15	3.709370E-17
5.630000E+03	1.071546E-15	3.662422E-17
5.640000E+03	1.058881E-15	3.619999E-17
5.650000E+03	1.048372E-15	3.582291E-17
5.660000E+03	1.040059E-15	3.549518E-17
5.670000E+03	1.033941E-15	3.521785E-17
5.680000E+03	1.030025E-15	3.499221E-17
5.690000E+03	1.028288E-15	3.481876E-17
5.700000E+03	1.028675E-15	3.469681E-17
5.710000E+03	1.031162E-15	3.462688E-17
5.720000E+03	1.035649E-15	3.460687E-17
5.730000E+03	1.042067E-15	3.463582E-17
5.740000E+03	1.050308E-15	3.471144E-17
5.750000E+03	1.060236E-15	3.483046E-17
5.760000E+03	1.071702E-15	3.498929E-17
5.770000E+03	1.084538E-15	3.518365E-17
5.780000E+03	1.098564E-15	3.540894E-17
5.790000E+03	1.113551E-15	3.565887E-17
5.800000E+03	1.129295E-15	3.592797E-17
5.810000E+03	1.145545E-15	3.620917E-17
5.820000E+03	1.162040E-15	3.649499E-17
5.830000E+03	1.178544E-15	3.677868E-17
5.840000E+03	1.194779E-15	3.705195E-17
5.850000E+03	1.210503E-15	3.730757E-17
5.860000E+03	1.225476E-15	3.753824E-17
5.870000E+03	1.239467E-15	3.773670E-17
5.880000E+03	1.252275E-15	3.789674E-17
5.890000E+03	1.263746E-15	3.801342E-17
5.900000E+03	1.273733E-15	3.808215E-17
5.910000E+03	1.282139E-15	3.809997E-17
5.920000E+03	1.288908E-15	3.806529E-17
5.930000E+03	1.294023E-15	3.797800E-17
5.940000E+03	1.297508E-15	3.783941E-17
5.950000E+03	1.299399E-15	3.765156E-17
5.960000E+03	1.299831E-15	3.741958E-17
5.970000E+03	1.298895E-15	3.714752E-17
5.980000E+03	1.296758E-15	3.684178E-17
5.990000E+03	1.293597E-15	3.650902E-17
6.000000E+03	1.289602E-15	3.615624E-17
6.010000E+03	1.284949E-15	3.578979E-17
6.020000E+03	1.279868E-15	3.541723E-17
6.030000E+03	1.274548E-15	3.504461E-17
6.040000E+03	1.269171E-15	3.467735E-17
6.050000E+03	1.263919E-15	3.432036E-17
6.060000E+03	1.258955E-15	3.397763E-17
6.070000E+03	1.254413E-15	3.365179E-17
6.080000E+03	1.250424E-15	3.334506E-17
6.090000E+03	1.247062E-15	3.305764E-17
6.100000E+03	1.244395E-15	3.278938E-17
6.110000E+03	1.242464E-15	3.253918E-17
6.120000E+03	1.241276E-15	3.230475E-17
6.130000E+03	1.240808E-15	3.208313E-17
6.140000E+03	1.241028E-15	3.187105E-17
6.150000E+03	1.241871E-15	3.166451E-17
6.160000E+03	1.243254E-15	3.145921E-17
6.170000E+03	1.245068E-15	3.125045E-17
6.180000E+03	1.247204E-15	3.103384E-17
6.190000E+03	1.249545E-15	3.080515E-17
6.200000E+03	1.251995E-15	3.056102E-17
6.210000E+03	1.254445E-15	3.029813E-17
6.220000E+03	1.256811E-15	3.001414E-17
6.230000E+03	1.259004E-15	2.970682E-17
6.240000E+03	1.260926E-15	2.937407E-17
6.250000E+03	1.262503E-15	2.901446E-17
6.260000E+03	1.263669E-15	2.862692E-17
6.270000E+03	1.264370E-15	2.821071E-17
6.280000E+03	1.264538E-15	2.776489E-17
6.290000E+03	1.264168E-15	2.729007E-17
6.300000E+03	1.263218E-15	2.678626E-17
6.310000E+03	1.261670E-15	2.625446E-17
6.320000E+03	1.259545E-15	2.569709E-17
6.330000E+03	1.256835E-15	2.511688E-17
6.340000E+03	1.253584E-15	2.451874E-17
6.350000E+03	1.249804E-15	2.390842E-17
6.360000E+03	1.245543E-15	2.329405E-17
6.370000E+03	1.240853E-15	2.268579E-17
6.380000E+03	1.235767E-15	2.209549E-17
6.390000E+03	1.230344E-15	2.153768E-17
6.400000E+03	1.224647E-15	2.102892E-17
6.410000E+03	1.218724E-15	2.058722E-17
6.420000E+03	1.212623E-15	2.023160E-17
6.430000E+03	1.206401E-15	1.998118E-17
6.440000E+03	1.200100E-15	1.985315E-17
6.450000E+03	1.193732E-15	1.985202E-17
6.460000E+03	1.187193E-15	1.996222E-17
6.470000E+03	1.180385E-15	2.016488E-17
6.480000E+03	1.173215E-15	2.044063E-17
6.490000E+03	1.165612E-15	2.077086E-17
6.500000E+03	1.157486E-15	2.113778E-17
6.510000E+03	1.148736E-15	2.152467E-17
6.520000E+03	1.139289E-15	2.191673E-17
6.530000E+03	1.129111E-15	2.230137E-17
6.540000E+03	1.118163E-15	2.266723E-17
6.550000E+03	1.106426E-15	2.300465E-17
6.560000E+03	1.093936E-15	2.330643E-17
6.570000E+03	1.080710E-15	2.356629E-17
6.580000E+03	1.066795E-15	2.377991E-17
6.590000E+03	1.052253E-15	2.394456E-17
6.600000E+03	1.037174E-15	2.405938E-17
6.610000E+03	1.021643E-15	2.412467E-17
6.620000E+03	1.005756E-15	2.414202E-17
6.630000E+03	9.896270E-16	2.411439E-17
6.640000E+03	9.733392E-16	2.404483E-17
6.650000E+03	9.570335E-16	2.393840E-17
6.660000E+03	9.407958E-16	2.379929E-17
6.670000E+03	9.247425E-16	2.363277E-17
6.680000E+03	9.089862E-16	2.344421E-17
6.690000E+03	8.936135E-16	2.323844E-17
6.700000E+03	8.787256E-16	2.302067E-17
6.710000E+03	8.643965E-16	2.279540E-17
6.720000E+03	8.507219E-16	2.256765E-17
6.730000E+03	8.377594E-16	2.234132E-17
6.740000E+03	8.255675E-16	2.212029E-17
6.750000E+03	8.141958E-16	2.190807E-17
6.760000E+03	8.036939E-16	2.170802E-17
6.770000E+03	7.940924E-16	2.152288E-17
6.780000E+03	7.854037E-16	2.135467E-17
6.790000E+03	7.776590E-16	2.120573E-17
6.800000E+03	7.708529E-16	2.107717E-17
6.810000E+03	7.649720E-16	2.096962E-17
6.820000E+03	7.600309E-16	2.088425E-17
6.830000E+03	7.559824E-16	2.082034E-17
6.840000E+03	7.528176E-16	2.077802E-17
6.850000E+03	7.504940E-16	2.075640E-17
6.860000E+03	7.489903E-16	2.075513E-17
6.870000E+03	7.482358E-16	2.077249E-17
6.880000E+03	7.482101E-16	2.080822E-17
6.890000E+03	7.488450E-16	2.086081E-17
6.900000E+03	7.500987E-16	2.092953E-17
6.910000E+03	7.519202E-16	2.101345E-17
6.920000E+03	7.542515E-16	2.111142E-17
6.930000E+03	7.570651E-16	2.122303E-17
6.940000E+03	7.603013E-16	2.134679E-17
6.950000E+03	7.639336E-16	2.148194E-17
6.960000E+03	7.679330E-16	2.162733E-17
6.970000E+03	7.722772E-16	2.178176E-17
6.980000E+03	7.769512E-16	2.194396E-17
6.990000E+03	7.819371E-16	2.211241E-17
7.000000E+03	7.872428E-16	2.228619E-17
7.010000E+03	7.928719E-16	2.246425E-17
7.020000E+03	7.988325E-16	2.264573E-17
7.030000E+03	8.051261E-16	2.282971E-17
7.040000E+03	8.117655E-16	2.301576E-17
7.050000E+03	8.187741E-16	2.320399E-17
7.060000E+03	8.261538E-16	2.339412E-17
7.070000E+03	8.339137E-16	2.358627E-17
7.080000E+03	8.420580E-16	2.378067E-17
7.090000E+03	8.505849E-16	2.397754E-17
7.100000E+03	8.594842E-16	2.417703E-17
7.110000E+03	8.687359E-16	2.437918E-17
7.120000E+03	8.782977E-16	2.458352E-17
7.130000E+03	8.881246E-16	2.478964E-17
7.140000E+03	8.981578E-16	2.499687E-17
7.150000E+03	9.083349E-16	2.520454E-17
7.160000E+03	9.185325E-16	2.541044E-17
7.170000E+03	9.286808E-16	2.561398E-17
7.180000E+03	9.386269E-16	2.581238E-17
7.190000E+03	9.482517E-16	2.600395E-17
7.200000E+03	9.574150E-16	2.618652E-17
7.210000E+03	9.659585E-16	2.635746E-17
7.220000E+03	9.737336E-16	2.651442E-17
7.230000E+03	9.805943E-16	2.665505E-17
7.240000E+03	9.863906E-16	2.677673E-17
7.250000E+03	9.909977E-16	2.687731E-17
7.260000E+03	9.942972E-16	2.695450E-17
7.270000E+03	9.962192E-16	2.700698E-17
7.280000E+03	9.966835E-16	2.703274E-17
7.290000E+03	9.956653E-16	2.703090E-17
7.300000E+03	9.931719E-16	2.700103E-17
7.310000E+03	9.892423E-16	2.694319E-17
7.320000E+03	9.839213E-16	2.685724E-17
7.330000E+03	9.773064E-16	2.674423E-17
7.340000E+03	9.695194E-16	2.660565E-17
7.350000E+03	9.606894E-16	2.644309E-17
7.360000E+03	9.509722E-16	2.625890E-17
7.370000E+03	9.405212E-16	2.605546E-17
7.380000E+03	9.294948E-16	2.583555E-17
7.390000E+03	9.180638E-16	2.560261E-17
7.400000E+03	9.063956E-16	2.536039E-17
7.410000E+03	8.946284E-16	2.511225E-17
7.420000E+03	8.829261E-16	2.486268E-17
7.430000E+03	8.714089E-16	2.461531E-17
7.440000E+03	8.602192E-16	2.437467E-17
7.450000E+03	8.494766E-16	2.414482E-17
7.460000E+03	8.392994E-16	2.392984E-17
7.470000E+03	8.297728E-16	2.373287E-17
7.480000E+03	8.209919E-16	2.355717E-17
7.490000E+03	8.130407E-16	2.340552E-17
7.500000E+03	8.059819E-16	2.327982E-17
7.510000E+03	7.998780E-16	2.318167E-17
7.520000E+03	7.947708E-16	2.311175E-17
7.530000E+03	7.906916E-16	2.307014E-17
7.540000E+03	7.876817E-16	2.305689E-17
7.550000E+03	7.857509E-16	2.307091E-17
7.560000E+03	7.848881E-16	2.311028E-17
7.570000E+03	7.851014E-16	2.317357E-17
7.580000E+03	7.863572E-16	2.325812E-17
7.590000E+03	7.886408E-16	2.336199E-17
7.600000E+03	7.918953E-16	2.348221E-17
7.610000E+03	7.960726E-16	2.361643E-17
7.620000E+03	8.010915E-16	2.376180E-17
7.630000E+03	8.068906E-16	2.391650E-17
7.640000E+03	8.133750E-16	2.407828E-17
7.650000E+03	8.204266E-16	2.424471E-17
7.660000E+03	8.279258E-16	2.441378E-17
7.670000E+03	8.357637E-16	2.458420E-17
7.680000E+03	8.437878E-16	2.475372E-17
7.690000E+03	8.518469E-16	2.492032E-17
7.700000E+03	8.597829E-16	2.508186E-17
7.710000E+03	8.674437E-16	2.523636E-17
7.720000E+03	8.746520E-16	2.538093E-17
7.730000E+03	8.812428E-16	2.551279E-17
7.740000E+03	8.870672E-16	2.562932E-17
7.750000E+03	8.919601E-16	2.572706E-17
7.760000E+03	8.957794E-16	2.580284E-17
