#wls	flux	fluxerr
1.600000E+03	1.184616E-16	7.526385E-17
1.640000E+03	1.194154E-16	7.484048E-17
1.680000E+03	1.204090E-16	7.440064E-17
1.720000E+03	1.214202E-16	7.392909E-17
1.760000E+03	1.224731E-16	7.343908E-17
1.800000E+03	1.235927E-16	7.294361E-17
1.840000E+03	1.247816E-16	7.244156E-17
1.880000E+03	1.260186E-16	7.191826E-17
1.920000E+03	1.273549E-16	7.140030E-17
1.960000E+03	1.287950E-16	7.088658E-17
2.000000E+03	1.303442E-16	7.037610E-17
2.040000E+03	1.320085E-16	6.986801E-17
2.080000E+03	1.338448E-16	6.938758E-17
2.120000E+03	1.358372E-16	6.892052E-17
2.160000E+03	1.380210E-16	6.847868E-17
2.200000E+03	1.403828E-16	6.804850E-17
2.240000E+03	1.429876E-16	6.765415E-17
2.280000E+03	1.458260E-16	6.728236E-17
2.320000E+03	1.489164E-16	6.693278E-17
2.360000E+03	1.522801E-16	6.660534E-17
2.400000E+03	1.559416E-16	6.630030E-17
2.440000E+03	1.599291E-16	6.601821E-17
2.480000E+03	1.643023E-16	6.577094E-17
2.520000E+03	1.690434E-16	6.553726E-17
2.560000E+03	1.742218E-16	6.532965E-17
2.600000E+03	1.798851E-16	6.514933E-17
2.640000E+03	1.860582E-16	6.498725E-17
2.680000E+03	1.928592E-16	6.486480E-17
2.720000E+03	2.002963E-16	6.476195E-17
2.760000E+03	2.084724E-16	6.468814E-17
2.800000E+03	2.174360E-16	6.463185E-17
2.840000E+03	2.273024E-16	6.459894E-17
2.880000E+03	2.381938E-16	6.459212E-17
2.920000E+03	2.501685E-16	6.459277E-17
2.960000E+03	2.634189E-16	6.461413E-17
3.000000E+03	2.780690E-16	6.464629E-17
3.010000E+03	2.819389E-16	6.464866E-17
3.020000E+03	2.859526E-16	6.466142E-17
3.030000E+03	2.900376E-16	6.466733E-17
3.040000E+03	2.942318E-16	6.467429E-17
3.050000E+03	2.985360E-16	6.468180E-17
3.060000E+03	3.029510E-16	6.468933E-17
3.070000E+03	3.074776E-16	6.469633E-17
3.080000E+03	3.121551E-16	6.471032E-17
3.090000E+03	3.169063E-16	6.471456E-17
3.100000E+03	3.217698E-16	6.471658E-17
3.110000E+03	3.267855E-16	6.472368E-17
3.120000E+03	3.319136E-16	6.472727E-17
3.130000E+03	3.371536E-16	6.472674E-17
3.140000E+03	3.425454E-16	6.472923E-17
3.150000E+03	3.480474E-16	6.472629E-17
3.160000E+03	3.536998E-16	6.472494E-17
3.170000E+03	3.594597E-16	6.471684E-17
3.180000E+03	3.654094E-16	6.471645E-17
3.190000E+03	3.714628E-16	6.470792E-17
3.200000E+03	3.776168E-16	6.469071E-17
3.210000E+03	3.839548E-16	6.467896E-17
3.220000E+03	3.904309E-16	6.466453E-17
3.230000E+03	3.970417E-16	6.464678E-17
3.240000E+03	4.037830E-16	6.462509E-17
3.250000E+03	4.106953E-16	6.460598E-17
3.260000E+03	4.177292E-16	6.458171E-17
3.270000E+03	4.249247E-16	6.455876E-17
3.280000E+03	4.322303E-16	6.452964E-17
3.290000E+03	4.397322E-16	6.450763E-17
3.300000E+03	4.473311E-16	6.447856E-17
3.310000E+03	4.550662E-16	6.444890E-17
3.320000E+03	4.629297E-16	6.441832E-17
3.330000E+03	4.709610E-16	6.439309E-17
3.340000E+03	4.791040E-16	6.436638E-17
3.350000E+03	4.873977E-16	6.434446E-17
3.360000E+03	4.957841E-16	6.432082E-17
3.370000E+03	5.043017E-16	6.430175E-17
3.380000E+03	5.129404E-16	6.428721E-17
3.390000E+03	5.217389E-16	6.428329E-17
3.400000E+03	5.306374E-16	6.428383E-17
3.410000E+03	5.396246E-16	6.428899E-17
3.420000E+03	5.487390E-16	6.430483E-17
3.430000E+03	5.579194E-16	6.432560E-17
3.440000E+03	5.672549E-16	6.436303E-17
3.450000E+03	5.766842E-16	6.441136E-17
3.460000E+03	5.861961E-16	6.447071E-17
3.470000E+03	5.957796E-16	6.454121E-17
3.480000E+03	6.055257E-16	6.463385E-17
3.490000E+03	6.153223E-16	6.473758E-17
3.500000E+03	6.252104E-16	6.485780E-17
3.510000E+03	6.351802E-16	6.499433E-17
3.520000E+03	6.452226E-16	6.514698E-17
3.530000E+03	6.553796E-16	6.532057E-17
3.540000E+03	6.656431E-16	6.551459E-17
3.550000E+03	6.759538E-16	6.572348E-17
3.560000E+03	6.864061E-16	6.595659E-17
3.570000E+03	6.968910E-16	6.620333E-17
3.580000E+03	7.075032E-16	6.647261E-17
3.590000E+03	7.182356E-16	6.676337E-17
3.600000E+03	7.290309E-16	6.706980E-17
3.610000E+03	7.399331E-16	6.739542E-17
3.620000E+03	7.509352E-16	6.773893E-17
3.630000E+03	7.619801E-16	6.809444E-17
3.640000E+03	7.732106E-16	6.847387E-17
3.650000E+03	7.844688E-16	6.886226E-17
3.660000E+03	7.958457E-16	6.926671E-17
3.670000E+03	8.073315E-16	6.968533E-17
3.680000E+03	8.188664E-16	7.011195E-17
3.690000E+03	8.305365E-16	7.055296E-17
3.700000E+03	8.422311E-16	7.099791E-17
3.710000E+03	8.539843E-16	7.144880E-17
3.720000E+03	8.658276E-16	7.190736E-17
3.730000E+03	8.776945E-16	7.236720E-17
3.740000E+03	8.895649E-16	7.282595E-17
3.750000E+03	9.014636E-16	7.328504E-17
3.760000E+03	9.133192E-16	7.373810E-17
3.770000E+03	9.251515E-16	7.418638E-17
3.780000E+03	9.368852E-16	7.462360E-17
3.790000E+03	9.485356E-16	7.505088E-17
3.800000E+03	9.600692E-16	7.546560E-17
3.810000E+03	9.714505E-16	7.586518E-17
3.820000E+03	9.825984E-16	7.624362E-17
3.830000E+03	9.935636E-16	7.660539E-17
3.840000E+03	1.004218E-15	7.694125E-17
3.850000E+03	1.014568E-15	7.725235E-17
3.860000E+03	1.024571E-15	7.753651E-17
3.870000E+03	1.034146E-15	7.778854E-17
3.880000E+03	1.043340E-15	7.801296E-17
3.890000E+03	1.052030E-15	7.820180E-17
3.900000E+03	1.060226E-15	7.835678E-17
3.910000E+03	1.067893E-15	7.847665E-17
3.920000E+03	1.074963E-15	7.855752E-17
3.930000E+03	1.081454E-15	7.860170E-17
3.940000E+03	1.087305E-15	7.860596E-17
3.950000E+03	1.092541E-15	7.857304E-17
3.960000E+03	1.097116E-15	7.850047E-17
3.970000E+03	1.101027E-15	7.838889E-17
3.980000E+03	1.104280E-15	7.823927E-17
3.990000E+03	1.106885E-15	7.805289E-17
4.000000E+03	1.108858E-15	7.783134E-17
4.010000E+03	1.110189E-15	7.757411E-17
4.020000E+03	1.110944E-15	7.728585E-17
4.030000E+03	1.111091E-15	7.696443E-17
4.040000E+03	1.110739E-15	7.661724E-17
4.050000E+03	1.109902E-15	7.624495E-17
4.060000E+03	1.108602E-15	7.584862E-17
4.070000E+03	1.106925E-15	7.543374E-17
4.080000E+03	1.104900E-15	7.500170E-17
4.090000E+03	1.102590E-15	7.455607E-17
4.100000E+03	1.100058E-15	7.410047E-17
4.110000E+03	1.097343E-15	7.363660E-17
4.120000E+03	1.094511E-15	7.316811E-17
4.130000E+03	1.091630E-15	7.269859E-17
4.140000E+03	1.088738E-15	7.222974E-17
4.150000E+03	1.085927E-15	7.176667E-17
4.160000E+03	1.083236E-15	7.131085E-17
4.170000E+03	1.080702E-15	7.086370E-17
4.180000E+03	1.078409E-15	7.042974E-17
4.190000E+03	1.076391E-15	7.001002E-17
4.200000E+03	1.074679E-15	6.960547E-17
4.210000E+03	1.073351E-15	6.921987E-17
4.220000E+03	1.072408E-15	6.885225E-17
4.230000E+03	1.071920E-15	6.850586E-17
4.240000E+03	1.071910E-15	6.818076E-17
4.250000E+03	1.072394E-15	6.787681E-17
4.260000E+03	1.073433E-15	6.759639E-17
4.270000E+03	1.075036E-15	6.733878E-17
4.280000E+03	1.077234E-15	6.710433E-17
4.290000E+03	1.080011E-15	6.689053E-17
4.300000E+03	1.083409E-15	6.669841E-17
4.310000E+03	1.087425E-15	6.652611E-17
4.320000E+03	1.092071E-15	6.637263E-17
4.330000E+03	1.097335E-15	6.623543E-17
4.340000E+03	1.103239E-15	6.611393E-17
4.350000E+03	1.109721E-15	6.600245E-17
4.360000E+03	1.116810E-15	6.590077E-17
4.370000E+03	1.124470E-15	6.580471E-17
4.380000E+03	1.132641E-15	6.570862E-17
4.390000E+03	1.141331E-15	6.561088E-17
4.400000E+03	1.150483E-15	6.550609E-17
4.410000E+03	1.160035E-15	6.538848E-17
4.420000E+03	1.169934E-15	6.525302E-17
4.430000E+03	1.180122E-15	6.509431E-17
4.440000E+03	1.190531E-15	6.490665E-17
4.450000E+03	1.201071E-15	6.468307E-17
4.460000E+03	1.211700E-15	6.441945E-17
4.470000E+03	1.222277E-15	6.410661E-17
4.480000E+03	1.232733E-15	6.373932E-17
4.490000E+03	1.242959E-15	6.331053E-17
4.500000E+03	1.252880E-15	6.281527E-17
4.510000E+03	1.262367E-15	6.224612E-17
4.520000E+03	1.271329E-15	6.159797E-17
4.530000E+03	1.279696E-15	6.086713E-17
4.540000E+03	1.287351E-15	6.004794E-17
4.550000E+03	1.294255E-15	5.913898E-17
4.560000E+03	1.300324E-15	5.813706E-17
4.570000E+03	1.305484E-15	5.704005E-17
4.580000E+03	1.309692E-15	5.584762E-17
4.590000E+03	1.312935E-15	5.456127E-17
4.600000E+03	1.315177E-15	5.318204E-17
4.610000E+03	1.316417E-15	5.171286E-17
4.620000E+03	1.316664E-15	5.015775E-17
4.630000E+03	1.315946E-15	4.852186E-17
4.640000E+03	1.314300E-15	4.681147E-17
4.650000E+03	1.311778E-15	4.503395E-17
4.660000E+03	1.308408E-15	4.319680E-17
4.670000E+03	1.304296E-15	4.131109E-17
4.680000E+03	1.299506E-15	3.938759E-17
4.690000E+03	1.294108E-15	3.743886E-17
4.700000E+03	1.288211E-15	3.548042E-17
4.710000E+03	1.281893E-15	3.352935E-17
4.720000E+03	1.275249E-15	3.160631E-17
4.730000E+03	1.268376E-15	2.973586E-17
4.740000E+03	1.261351E-15	2.794695E-17
4.750000E+03	1.254266E-15	2.627454E-17
4.760000E+03	1.247206E-15	2.475952E-17
4.770000E+03	1.240269E-15	2.344841E-17
4.780000E+03	1.233515E-15	2.238984E-17
4.790000E+03	1.227011E-15	2.163019E-17
4.800000E+03	1.220832E-15	2.120564E-17
4.810000E+03	1.215016E-15	2.113304E-17
4.820000E+03	1.209620E-15	2.140588E-17
4.830000E+03	1.204692E-15	2.199507E-17
4.840000E+03	1.200246E-15	2.285541E-17
4.850000E+03	1.196316E-15	2.393577E-17
4.860000E+03	1.192945E-15	2.518651E-17
4.870000E+03	1.190132E-15	2.656289E-17
4.880000E+03	1.187898E-15	2.802833E-17
4.890000E+03	1.186250E-15	2.955346E-17
4.900000E+03	1.185219E-15	3.111630E-17
4.910000E+03	1.184781E-15	3.269905E-17
4.920000E+03	1.184965E-15	3.428974E-17
4.930000E+03	1.185788E-15	3.587960E-17
4.940000E+03	1.187236E-15	3.746176E-17
4.950000E+03	1.189312E-15	3.903177E-17
4.960000E+03	1.192044E-15	4.058766E-17
4.970000E+03	1.195419E-15	4.212738E-17
4.980000E+03	1.199452E-15	4.365067E-17
4.990000E+03	1.204141E-15	4.515749E-17
5.000000E+03	1.209487E-15	4.664829E-17
5.010000E+03	1.215486E-15	4.812382E-17
5.020000E+03	1.222146E-15	4.958560E-17
5.030000E+03	1.229461E-15	5.103469E-17
5.040000E+03	1.237419E-15	5.247217E-17
5.050000E+03	1.246007E-15	5.389904E-17
5.060000E+03	1.255205E-15	5.531613E-17
5.070000E+03	1.265005E-15	5.672467E-17
5.080000E+03	1.275379E-15	5.812504E-17
5.090000E+03	1.286277E-15	5.951666E-17
5.100000E+03	1.297675E-15	6.089987E-17
5.110000E+03	1.309526E-15	6.227399E-17
5.120000E+03	1.321777E-15	6.363793E-17
5.130000E+03	1.334368E-15	6.499020E-17
5.140000E+03	1.347234E-15	6.632888E-17
5.150000E+03	1.360315E-15	6.765234E-17
5.160000E+03	1.373502E-15	6.895638E-17
5.170000E+03	1.386755E-15	7.024006E-17
5.180000E+03	1.399936E-15	7.149764E-17
5.190000E+03	1.412977E-15	7.272676E-17
5.200000E+03	1.425776E-15	7.392329E-17
5.210000E+03	1.438212E-15	7.508204E-17
5.220000E+03	1.450176E-15	7.619837E-17
5.230000E+03	1.461569E-15	7.726830E-17
5.240000E+03	1.472266E-15	7.828615E-17
5.250000E+03	1.482170E-15	7.924782E-17
5.260000E+03	1.491170E-15	8.014842E-17
5.270000E+03	1.499129E-15	8.098146E-17
5.280000E+03	1.505992E-15	8.174483E-17
5.290000E+03	1.511633E-15	8.243241E-17
5.300000E+03	1.515966E-15	8.304008E-17
5.310000E+03	1.518912E-15	8.356407E-17
5.320000E+03	1.520422E-15	8.400194E-17
5.330000E+03	1.520443E-15	8.435089E-17
5.340000E+03	1.518903E-15	8.460693E-17
5.350000E+03	1.515809E-15	8.477019E-17
5.360000E+03	1.511134E-15	8.483889E-17
5.370000E+03	1.504886E-15	8.481282E-17
5.380000E+03	1.497102E-15	8.469342E-17
5.390000E+03	1.487805E-15	8.448118E-17
5.400000E+03	1.477035E-15	8.417739E-17
5.410000E+03	1.464891E-15	8.378672E-17
5.420000E+03	1.451443E-15	8.331204E-17
5.430000E+03	1.436787E-15	8.275784E-17
5.440000E+03	1.421035E-15	8.212929E-17
5.450000E+03	1.404305E-15	8.143225E-17
5.460000E+03	1.386728E-15	8.067311E-17
5.470000E+03	1.368440E-15	7.985878E-17
5.480000E+03	1.349595E-15	7.899736E-17
5.490000E+03	1.330313E-15	7.809485E-17
5.500000E+03	1.310765E-15	7.716066E-17
5.510000E+03	1.291099E-15	7.620265E-17
5.520000E+03	1.271431E-15	7.522720E-17
5.530000E+03	1.251902E-15	7.424214E-17
5.540000E+03	1.232660E-15	7.325585E-17
5.550000E+03	1.213832E-15	7.227566E-17
5.560000E+03	1.195551E-15	7.130925E-17
5.570000E+03	1.177916E-15	7.036245E-17
5.580000E+03	1.161038E-15	6.944201E-17
5.590000E+03	1.145009E-15	6.855346E-17
5.600000E+03	1.129897E-15	6.770106E-17
5.610000E+03	1.115772E-15	6.688923E-17
5.620000E+03	1.102702E-15	6.612240E-17
5.630000E+03	1.090725E-15	6.540307E-17
5.640000E+03	1.079875E-15	6.473376E-17
5.650000E+03	1.070189E-15	6.411703E-17
5.660000E+03	1.061661E-15	6.355290E-17
5.670000E+03	1.054315E-15	6.304329E-17
5.680000E+03	1.048125E-15	6.258703E-17
5.690000E+03	1.043097E-15	6.218483E-17
5.700000E+03	1.039185E-15	6.183436E-17
5.710000E+03	1.036365E-15	6.153456E-17
5.720000E+03	1.034583E-15	6.128262E-17
5.730000E+03	1.033799E-15	6.107644E-17
5.740000E+03	1.033952E-15	6.091278E-17
5.750000E+03	1.034966E-15	6.078738E-17
5.760000E+03	1.036766E-15	6.069614E-17
5.770000E+03	1.039283E-15	6.063519E-17
5.780000E+03	1.042410E-15	6.059857E-17
5.790000E+03	1.046078E-15	6.058237E-17
5.800000E+03	1.050171E-15	6.058019E-17
5.810000E+03	1.054595E-15	6.058665E-17
5.820000E+03	1.059273E-15	6.059749E-17
5.830000E+03	1.064078E-15	6.060560E-17
5.840000E+03	1.068935E-15	6.060691E-17
5.850000E+03	1.073745E-15	6.059583E-17
5.860000E+03	1.078410E-15	6.056708E-17
5.870000E+03	1.082862E-15	6.051694E-17
5.880000E+03	1.087029E-15	6.044160E-17
5.890000E+03	1.090840E-15	6.033721E-17
5.900000E+03	1.094242E-15	6.020108E-17
5.910000E+03	1.097194E-15	6.003118E-17
5.920000E+03	1.099656E-15	5.982553E-17
5.930000E+03	1.101621E-15	5.958398E-17
5.940000E+03	1.103071E-15	5.930587E-17
5.950000E+03	1.104022E-15	5.899228E-17
5.960000E+03	1.104468E-15	5.864313E-17
5.970000E+03	1.104445E-15	5.826054E-17
5.980000E+03	1.103975E-15	5.784589E-17
5.990000E+03	1.103110E-15	5.740200E-17
6.000000E+03	1.101886E-15	5.693079E-17
6.010000E+03	1.100353E-15	5.643485E-17
6.020000E+03	1.098565E-15	5.591678E-17
6.030000E+03	1.096586E-15	5.537966E-17
6.040000E+03	1.094448E-15	5.482477E-17
6.050000E+03	1.092215E-15	5.425478E-17
6.060000E+03	1.089935E-15	5.367149E-17
6.070000E+03	1.087652E-15	5.307637E-17
6.080000E+03	1.085405E-15	5.247046E-17
6.090000E+03	1.083249E-15	5.185542E-17
6.100000E+03	1.081189E-15	5.123041E-17
6.110000E+03	1.079265E-15	5.059621E-17
6.120000E+03	1.077491E-15	4.995215E-17
6.130000E+03	1.075881E-15	4.929768E-17
6.140000E+03	1.074426E-15	4.863093E-17
6.150000E+03	1.073127E-15	4.795073E-17
6.160000E+03	1.071982E-15	4.725562E-17
6.170000E+03	1.070941E-15	4.654219E-17
6.180000E+03	1.069990E-15	4.580875E-17
6.190000E+03	1.069083E-15	4.505228E-17
6.200000E+03	1.068199E-15	4.427119E-17
6.210000E+03	1.067328E-15	4.346441E-17
6.220000E+03	1.066425E-15	4.262980E-17
6.230000E+03	1.065457E-15	4.176598E-17
6.240000E+03	1.064391E-15	4.087195E-17
6.250000E+03	1.063195E-15	3.994722E-17
6.260000E+03	1.061816E-15	3.899116E-17
6.270000E+03	1.060249E-15	3.800537E-17
6.280000E+03	1.058446E-15	3.699076E-17
6.290000E+03	1.056386E-15	3.594998E-17
6.300000E+03	1.054061E-15	3.488710E-17
6.310000E+03	1.051446E-15	3.380675E-17
6.320000E+03	1.048530E-15	3.271530E-17
6.330000E+03	1.045305E-15	3.162073E-17
6.340000E+03	1.041779E-15	3.053305E-17
6.350000E+03	1.037941E-15	2.946357E-17
6.360000E+03	1.033803E-15	2.842619E-17
6.370000E+03	1.029371E-15	2.743653E-17
6.380000E+03	1.024649E-15	2.651201E-17
6.390000E+03	1.019645E-15	2.567147E-17
6.400000E+03	1.014375E-15	2.493460E-17
6.410000E+03	1.008834E-15	2.431994E-17
6.420000E+03	1.003027E-15	2.384394E-17
6.430000E+03	9.969727E-16	2.351923E-17
6.440000E+03	9.906598E-16	2.335144E-17
6.450000E+03	9.840923E-16	2.333926E-17
6.460000E+03	9.772511E-16	2.347342E-17
6.470000E+03	9.701553E-16	2.373931E-17
6.480000E+03	9.627919E-16	2.411728E-17
6.490000E+03	9.551380E-16	2.458526E-17
6.500000E+03	9.472114E-16	2.512190E-17
6.510000E+03	9.389723E-16	2.570532E-17
6.520000E+03	9.304340E-16	2.631687E-17
6.530000E+03	9.215745E-16	2.693912E-17
6.540000E+03	9.124155E-16	2.755826E-17
6.550000E+03	9.029550E-16	2.816208E-17
6.560000E+03	8.932249E-16	2.874157E-17
6.570000E+03	8.832244E-16	2.928861E-17
6.580000E+03	8.730051E-16	2.979852E-17
6.590000E+03	8.625856E-16	3.026703E-17
6.600000E+03	8.519981E-16	3.069165E-17
6.610000E+03	8.412972E-16	3.107181E-17
6.620000E+03	8.305127E-16	3.140703E-17
6.630000E+03	8.196951E-16	3.169840E-17
6.640000E+03	8.088873E-16	3.194746E-17
6.650000E+03	7.981423E-16	3.215671E-17
6.660000E+03	7.875043E-16	3.232878E-17
6.670000E+03	7.770168E-16	3.246672E-17
6.680000E+03	7.667313E-16	3.257417E-17
6.690000E+03	7.566804E-16	3.265427E-17
6.700000E+03	7.469031E-16	3.271060E-17
6.710000E+03	7.374529E-16	3.274749E-17
6.720000E+03	7.283549E-16	3.276816E-17
6.730000E+03	7.196397E-16	3.277607E-17
6.740000E+03	7.113344E-16	3.277456E-17
6.750000E+03	7.034709E-16	3.276718E-17
6.760000E+03	6.960689E-16	3.275686E-17
6.770000E+03	6.891370E-16	3.274597E-17
6.780000E+03	6.826959E-16	3.273736E-17
6.790000E+03	6.767471E-16	3.273288E-17
6.800000E+03	6.713121E-16	3.273524E-17
6.810000E+03	6.663856E-16	3.274577E-17
6.820000E+03	6.619598E-16	3.276555E-17
6.830000E+03	6.580465E-16	3.279655E-17
6.840000E+03	6.546325E-16	3.283936E-17
6.850000E+03	6.517096E-16	3.289473E-17
6.860000E+03	6.492676E-16	3.296323E-17
6.870000E+03	6.472948E-16	3.304522E-17
6.880000E+03	6.457779E-16	3.314091E-17
6.890000E+03	6.447100E-16	3.325076E-17
6.900000E+03	6.440685E-16	3.337432E-17
6.910000E+03	6.438376E-16	3.351140E-17
6.920000E+03	6.440015E-16	3.366175E-17
6.930000E+03	6.445440E-16	3.382503E-17
6.940000E+03	6.454495E-16	3.400084E-17
6.950000E+03	6.467025E-16	3.418873E-17
6.960000E+03	6.482881E-16	3.438822E-17
6.970000E+03	6.501918E-16	3.459881E-17
6.980000E+03	6.524075E-16	3.482038E-17
6.990000E+03	6.548985E-16	3.505116E-17
7.000000E+03	6.576750E-16	3.529184E-17
7.010000E+03	6.607085E-16	3.554102E-17
7.020000E+03	6.639939E-16	3.579856E-17
7.030000E+03	6.675182E-16	3.606386E-17
7.040000E+03	6.712593E-16	3.633588E-17
7.050000E+03	6.752026E-16	3.661395E-17
7.060000E+03	6.793319E-16	3.689736E-17
7.070000E+03	6.836296E-16	3.718535E-17
7.080000E+03	6.880761E-16	3.747706E-17
7.090000E+03	6.926495E-16	3.777156E-17
7.100000E+03	6.973254E-16	3.806780E-17
7.110000E+03	7.020599E-16	3.836370E-17
7.120000E+03	7.068484E-16	3.865936E-17
7.130000E+03	7.116323E-16	3.895198E-17
7.140000E+03	7.163846E-16	3.924048E-17
7.150000E+03	7.210580E-16	3.952271E-17
7.160000E+03	7.256296E-16	3.979788E-17
7.170000E+03	7.300301E-16	4.006268E-17
7.180000E+03	7.342246E-16	4.031565E-17
7.190000E+03	7.381776E-16	4.055533E-17
7.200000E+03	7.418177E-16	4.077829E-17
7.210000E+03	7.451291E-16	4.098408E-17
7.220000E+03	7.480434E-16	4.116939E-17
7.230000E+03	7.505319E-16	4.133301E-17
7.240000E+03	7.525516E-16	4.147290E-17
7.250000E+03	7.540833E-16	4.158829E-17
7.260000E+03	7.550858E-16	4.167712E-17
7.270000E+03	7.555621E-16	4.173968E-17
7.280000E+03	7.554760E-16	4.177407E-17
7.290000E+03	7.548457E-16	4.178126E-17
7.300000E+03	7.536695E-16	4.176111E-17
7.310000E+03	7.519634E-16	4.171435E-17
7.320000E+03	7.497324E-16	4.164106E-17
7.330000E+03	7.470263E-16	4.154374E-17
7.340000E+03	7.438739E-16	4.142370E-17
7.350000E+03	7.403192E-16	4.128307E-17
7.360000E+03	7.364024E-16	4.112376E-17
7.370000E+03	7.321773E-16	4.094841E-17
7.380000E+03	7.277095E-16	4.076034E-17
7.390000E+03	7.230488E-16	4.056203E-17
7.400000E+03	7.182553E-16	4.035652E-17
7.410000E+03	7.133889E-16	4.014688E-17
7.420000E+03	7.085088E-16	3.993620E-17
7.430000E+03	7.036725E-16	3.972748E-17
7.440000E+03	6.989351E-16	3.952361E-17
7.450000E+03	6.943487E-16	3.932735E-17
7.460000E+03	6.899616E-16	3.914125E-17
7.470000E+03	6.858183E-16	3.896768E-17
7.480000E+03	6.819585E-16	3.880872E-17
7.490000E+03	6.784174E-16	3.866623E-17
7.500000E+03	6.752252E-16	3.854175E-17
7.510000E+03	6.723983E-16	3.843605E-17
7.520000E+03	6.699734E-16	3.835104E-17
7.530000E+03	6.679477E-16	3.828639E-17
7.540000E+03	6.663468E-16	3.824338E-17
7.550000E+03	6.651653E-16	3.822152E-17
7.560000E+03	6.644007E-16	3.822050E-17
7.570000E+03	6.640532E-16	3.824019E-17
7.580000E+03	6.641006E-16	3.827920E-17
7.590000E+03	6.645320E-16	3.833682E-17
7.600000E+03	6.653226E-16	3.841158E-17
7.610000E+03	6.664423E-16	3.850177E-17
7.620000E+03	6.678555E-16	3.860543E-17
7.630000E+03	6.695218E-16	3.872038E-17
7.640000E+03	6.714047E-16	3.884471E-17
7.650000E+03	6.734460E-16	3.897536E-17
7.660000E+03	6.756010E-16	3.911007E-17
7.670000E+03	6.778040E-16	3.924547E-17
7.680000E+03	6.800128E-16	3.937958E-17
7.690000E+03	6.821478E-16	3.950828E-17
7.700000E+03	6.841546E-16	3.962895E-17
7.710000E+03	6.859783E-16	3.973896E-17
7.720000E+03	6.875375E-16	3.983414E-17
7.730000E+03	6.887880E-16	3.991249E-17
7.740000E+03	6.896609E-16	3.997052E-17
7.750000E+03	6.900997E-16	4.000544E-17
7.760000E+03	6.900518E-16	4.001467E-17
