#wls	flux	fluxerr
1.600000E+03	1.118021E-16	7.501908E-17
1.640000E+03	1.141669E-16	7.578287E-17
1.680000E+03	1.166453E-16	7.656885E-17
1.720000E+03	1.192674E-16	7.739289E-17
1.760000E+03	1.220190E-16	7.824141E-17
1.800000E+03	1.249565E-16	7.914602E-17
1.840000E+03	1.280679E-16	8.009354E-17
1.880000E+03	1.313902E-16	8.110136E-17
1.920000E+03	1.349122E-16	8.215624E-17
1.960000E+03	1.387007E-16	8.329200E-17
2.000000E+03	1.427209E-16	8.447984E-17
2.040000E+03	1.470447E-16	8.575448E-17
2.080000E+03	1.516662E-16	8.710306E-17
2.120000E+03	1.566365E-16	8.854519E-17
2.160000E+03	1.620117E-16	9.010124E-17
2.200000E+03	1.677606E-16	9.174173E-17
2.240000E+03	1.739745E-16	9.350397E-17
2.280000E+03	1.806885E-16	9.539217E-17
2.320000E+03	1.879404E-16	9.741040E-17
2.360000E+03	1.957701E-16	9.956250E-17
2.400000E+03	2.042916E-16	1.018875E-16
2.440000E+03	2.134822E-16	1.043534E-16
2.480000E+03	2.234645E-16	1.069988E-16
2.520000E+03	2.343331E-16	1.098442E-16
2.560000E+03	2.461072E-16	1.128724E-16
2.600000E+03	2.588853E-16	1.161013E-16
2.640000E+03	2.727701E-16	1.195474E-16
2.680000E+03	2.878675E-16	1.232252E-16
2.720000E+03	3.042380E-16	1.271270E-16
2.760000E+03	3.220311E-16	1.312805E-16
2.800000E+03	3.412980E-16	1.356701E-16
2.840000E+03	3.622304E-16	1.403346E-16
2.880000E+03	3.848589E-16	1.452472E-16
2.920000E+03	4.092982E-16	1.504139E-16
2.960000E+03	4.357005E-16	1.558536E-16
3.000000E+03	4.640194E-16	1.615144E-16
3.010000E+03	4.714107E-16	1.629648E-16
3.020000E+03	4.789593E-16	1.644396E-16
3.030000E+03	4.866032E-16	1.659169E-16
3.040000E+03	4.944005E-16	1.674164E-16
3.050000E+03	5.023493E-16	1.689367E-16
3.060000E+03	5.103854E-16	1.704559E-16
3.070000E+03	5.185676E-16	1.719933E-16
3.080000E+03	5.268300E-16	1.735270E-16
3.090000E+03	5.352949E-16	1.750968E-16
3.100000E+03	5.438328E-16	1.766599E-16
3.110000E+03	5.525666E-16	1.782561E-16
3.120000E+03	5.613647E-16	1.798426E-16
3.130000E+03	5.703510E-16	1.814589E-16
3.140000E+03	5.793913E-16	1.830621E-16
3.150000E+03	5.886106E-16	1.846917E-16
3.160000E+03	5.979383E-16	1.863253E-16
3.170000E+03	6.073686E-16	1.879611E-16
3.180000E+03	6.168949E-16	1.895971E-16
3.190000E+03	6.265777E-16	1.912519E-16
3.200000E+03	6.364107E-16	1.929233E-16
3.210000E+03	6.463197E-16	1.945889E-16
3.220000E+03	6.563647E-16	1.962668E-16
3.230000E+03	6.664701E-16	1.979346E-16
3.240000E+03	6.766955E-16	1.996104E-16
3.250000E+03	6.870328E-16	2.012916E-16
3.260000E+03	6.974730E-16	2.029761E-16
3.270000E+03	7.080070E-16	2.046612E-16
3.280000E+03	7.186253E-16	2.063445E-16
3.290000E+03	7.293178E-16	2.080235E-16
3.300000E+03	7.401437E-16	2.097153E-16
3.310000E+03	7.509531E-16	2.113779E-16
3.320000E+03	7.619443E-16	2.130674E-16
3.330000E+03	7.728961E-16	2.147224E-16
3.340000E+03	7.840068E-16	2.163985E-16
3.350000E+03	7.951242E-16	2.180539E-16
3.360000E+03	8.063059E-16	2.197050E-16
3.370000E+03	8.175393E-16	2.213489E-16
3.380000E+03	8.288111E-16	2.229824E-16
3.390000E+03	8.401079E-16	2.246026E-16
3.400000E+03	8.514862E-16	2.262249E-16
3.410000E+03	8.628617E-16	2.278273E-16
3.420000E+03	8.742201E-16	2.294069E-16
3.430000E+03	8.856168E-16	2.309788E-16
3.440000E+03	8.969671E-16	2.325213E-16
3.450000E+03	9.083954E-16	2.340674E-16
3.460000E+03	9.197467E-16	2.355776E-16
3.470000E+03	9.311447E-16	2.370841E-16
3.480000E+03	9.425038E-16	2.385656E-16
3.490000E+03	9.538082E-16	2.400188E-16
3.500000E+03	9.651104E-16	2.414574E-16
3.510000E+03	9.763255E-16	2.428606E-16
3.520000E+03	9.875054E-16	2.442421E-16
3.530000E+03	9.986332E-16	2.455981E-16
3.540000E+03	1.009692E-15	2.469249E-16
3.550000E+03	1.020665E-15	2.482190E-16
3.560000E+03	1.031603E-15	2.494930E-16
3.570000E+03	1.042421E-15	2.507269E-16
3.580000E+03	1.053102E-15	2.519174E-16
3.590000E+03	1.063762E-15	2.530924E-16
3.600000E+03	1.074251E-15	2.542167E-16
3.610000E+03	1.084684E-15	2.553177E-16
3.620000E+03	1.094977E-15	2.563763E-16
3.630000E+03	1.105115E-15	2.573890E-16
3.640000E+03	1.115143E-15	2.583672E-16
3.650000E+03	1.124984E-15	2.592928E-16
3.660000E+03	1.134743E-15	2.601910E-16
3.670000E+03	1.144282E-15	2.610298E-16
3.680000E+03	1.153707E-15	2.618341E-16
3.690000E+03	1.162941E-15	2.625865E-16
3.700000E+03	1.171970E-15	2.632841E-16
3.710000E+03	1.180895E-15	2.639501E-16
3.720000E+03	1.189584E-15	2.645550E-16
3.730000E+03	1.198081E-15	2.651090E-16
3.740000E+03	1.206372E-15	2.656093E-16
3.750000E+03	1.214500E-15	2.660653E-16
3.760000E+03	1.222394E-15	2.664619E-16
3.770000E+03	1.230098E-15	2.668088E-16
3.780000E+03	1.237599E-15	2.671032E-16
3.790000E+03	1.244831E-15	2.673313E-16
3.800000E+03	1.251891E-15	2.675139E-16
3.810000E+03	1.258713E-15	2.676374E-16
3.820000E+03	1.265289E-15	2.677000E-16
3.830000E+03	1.271661E-15	2.677108E-16
3.840000E+03	1.277818E-15	2.676678E-16
3.850000E+03	1.283705E-15	2.675593E-16
3.860000E+03	1.289364E-15	2.673943E-16
3.870000E+03	1.294787E-15	2.671717E-16
3.880000E+03	1.299971E-15	2.668905E-16
3.890000E+03	1.304911E-15	2.665500E-16
3.900000E+03	1.309647E-15	2.661589E-16
3.910000E+03	1.314089E-15	2.656983E-16
3.920000E+03	1.318323E-15	2.651864E-16
3.930000E+03	1.322348E-15	2.646227E-16
3.940000E+03	1.326120E-15	2.639986E-16
3.950000E+03	1.329640E-15	2.633146E-16
3.960000E+03	1.332954E-15	2.625797E-16
3.970000E+03	1.336062E-15	2.617940E-16
3.980000E+03	1.338888E-15	2.609429E-16
3.990000E+03	1.341556E-15	2.600505E-16
4.000000E+03	1.343953E-15	2.590952E-16
4.010000E+03	1.346165E-15	2.580934E-16
4.020000E+03	1.348197E-15	2.570461E-16
4.030000E+03	1.349983E-15	2.559409E-16
4.040000E+03	1.351570E-15	2.547868E-16
4.050000E+03	1.353002E-15	2.535922E-16
4.060000E+03	1.354219E-15	2.523457E-16
4.070000E+03	1.355233E-15	2.510499E-16
4.080000E+03	1.356090E-15	2.497132E-16
4.090000E+03	1.356769E-15	2.483317E-16
4.100000E+03	1.357283E-15	2.469079E-16
4.110000E+03	1.357614E-15	2.454386E-16
4.120000E+03	1.357807E-15	2.439320E-16
4.130000E+03	1.357817E-15	2.423799E-16
4.140000E+03	1.357718E-15	2.407957E-16
4.150000E+03	1.357436E-15	2.391664E-16
4.160000E+03	1.357017E-15	2.375001E-16
4.170000E+03	1.356478E-15	2.357998E-16
4.180000E+03	1.355778E-15	2.340585E-16
4.190000E+03	1.354962E-15	2.322841E-16
4.200000E+03	1.354020E-15	2.304750E-16
4.210000E+03	1.352941E-15	2.286296E-16
4.220000E+03	1.351744E-15	2.267511E-16
4.230000E+03	1.350445E-15	2.248424E-16
4.240000E+03	1.349010E-15	2.228981E-16
4.250000E+03	1.347457E-15	2.209216E-16
4.260000E+03	1.345779E-15	2.189119E-16
4.270000E+03	1.343992E-15	2.168721E-16
4.280000E+03	1.342068E-15	2.147980E-16
4.290000E+03	1.340045E-15	2.126963E-16
4.300000E+03	1.337873E-15	2.105595E-16
4.310000E+03	1.335613E-15	2.083978E-16
4.320000E+03	1.333193E-15	2.062008E-16
4.330000E+03	1.330652E-15	2.039752E-16
4.340000E+03	1.327964E-15	2.017179E-16
4.350000E+03	1.325145E-15	1.994325E-16
4.360000E+03	1.322150E-15	1.971130E-16
4.370000E+03	1.318996E-15	1.947635E-16
4.380000E+03	1.315659E-15	1.923818E-16
4.390000E+03	1.312138E-15	1.899692E-16
4.400000E+03	1.308391E-15	1.875213E-16
4.410000E+03	1.304418E-15	1.850401E-16
4.420000E+03	1.300180E-15	1.825222E-16
4.430000E+03	1.295642E-15	1.799651E-16
4.440000E+03	1.290788E-15	1.773692E-16
4.450000E+03	1.285584E-15	1.747329E-16
4.460000E+03	1.280036E-15	1.720598E-16
4.470000E+03	1.274199E-15	1.693606E-16
4.480000E+03	1.268109E-15	1.666432E-16
4.490000E+03	1.261782E-15	1.639127E-16
4.500000E+03	1.255302E-15	1.611831E-16
4.510000E+03	1.248647E-15	1.584546E-16
4.520000E+03	1.241865E-15	1.557361E-16
4.530000E+03	1.234983E-15	1.530340E-16
4.540000E+03	1.228027E-15	1.503547E-16
4.550000E+03	1.221005E-15	1.477023E-16
4.560000E+03	1.213944E-15	1.450830E-16
4.570000E+03	1.206850E-15	1.425007E-16
4.580000E+03	1.199747E-15	1.399615E-16
4.590000E+03	1.192642E-15	1.374693E-16
4.600000E+03	1.185556E-15	1.350300E-16
4.610000E+03	1.178511E-15	1.326492E-16
4.620000E+03	1.171497E-15	1.303292E-16
4.630000E+03	1.164563E-15	1.280788E-16
4.640000E+03	1.157686E-15	1.258984E-16
4.650000E+03	1.150898E-15	1.237951E-16
4.660000E+03	1.144217E-15	1.217740E-16
4.670000E+03	1.137648E-15	1.198385E-16
4.680000E+03	1.131193E-15	1.179920E-16
4.690000E+03	1.124896E-15	1.162419E-16
4.700000E+03	1.118747E-15	1.145898E-16
4.710000E+03	1.112759E-15	1.130398E-16
4.720000E+03	1.106963E-15	1.115969E-16
4.730000E+03	1.101371E-15	1.102646E-16
4.740000E+03	1.095984E-15	1.090445E-16
4.750000E+03	1.090827E-15	1.079407E-16
4.760000E+03	1.085914E-15	1.069554E-16
4.770000E+03	1.081256E-15	1.060904E-16
4.780000E+03	1.076889E-15	1.053495E-16
4.790000E+03	1.072798E-15	1.047311E-16
4.800000E+03	1.068981E-15	1.042345E-16
4.810000E+03	1.065435E-15	1.038585E-16
4.820000E+03	1.062145E-15	1.036003E-16
4.830000E+03	1.059108E-15	1.034580E-16
4.840000E+03	1.056309E-15	1.034278E-16
4.850000E+03	1.053744E-15	1.035070E-16
4.860000E+03	1.051397E-15	1.036912E-16
4.870000E+03	1.049266E-15	1.039770E-16
4.880000E+03	1.047344E-15	1.043605E-16
4.890000E+03	1.045617E-15	1.048366E-16
4.900000E+03	1.044078E-15	1.054010E-16
4.910000E+03	1.042735E-15	1.060504E-16
4.920000E+03	1.041557E-15	1.067779E-16
4.930000E+03	1.040563E-15	1.075813E-16
4.940000E+03	1.039723E-15	1.084532E-16
4.950000E+03	1.039040E-15	1.093903E-16
4.960000E+03	1.038509E-15	1.103876E-16
4.970000E+03	1.038109E-15	1.114392E-16
4.980000E+03	1.037844E-15	1.125415E-16
4.990000E+03	1.037705E-15	1.136899E-16
5.000000E+03	1.037684E-15	1.148797E-16
5.010000E+03	1.037761E-15	1.161052E-16
5.020000E+03	1.037936E-15	1.173629E-16
5.030000E+03	1.038200E-15	1.186487E-16
5.040000E+03	1.038544E-15	1.199582E-16
5.050000E+03	1.038956E-15	1.212871E-16
5.060000E+03	1.039426E-15	1.226314E-16
5.070000E+03	1.039943E-15	1.239871E-16
5.080000E+03	1.040497E-15	1.253502E-16
5.090000E+03	1.041086E-15	1.267183E-16
5.100000E+03	1.041689E-15	1.280862E-16
5.110000E+03	1.042295E-15	1.294504E-16
5.120000E+03	1.042891E-15	1.308073E-16
5.130000E+03	1.043478E-15	1.321548E-16
5.140000E+03	1.044044E-15	1.334896E-16
5.150000E+03	1.044566E-15	1.348070E-16
5.160000E+03	1.045034E-15	1.361039E-16
5.170000E+03	1.045459E-15	1.373800E-16
5.180000E+03	1.045807E-15	1.386294E-16
5.190000E+03	1.046080E-15	1.398509E-16
5.200000E+03	1.046267E-15	1.410416E-16
5.210000E+03	1.046358E-15	1.421989E-16
5.220000E+03	1.046344E-15	1.433202E-16
5.230000E+03	1.046216E-15	1.444032E-16
5.240000E+03	1.045966E-15	1.454457E-16
5.250000E+03	1.045585E-15	1.464454E-16
5.260000E+03	1.045067E-15	1.474004E-16
5.270000E+03	1.044416E-15	1.483103E-16
5.280000E+03	1.043616E-15	1.491719E-16
5.290000E+03	1.042660E-15	1.499837E-16
5.300000E+03	1.041555E-15	1.507459E-16
5.310000E+03	1.040277E-15	1.514540E-16
5.320000E+03	1.038854E-15	1.521117E-16
5.330000E+03	1.037251E-15	1.527134E-16
5.340000E+03	1.035490E-15	1.532615E-16
5.350000E+03	1.033570E-15	1.537556E-16
5.360000E+03	1.031469E-15	1.541919E-16
5.370000E+03	1.029209E-15	1.545735E-16
5.380000E+03	1.026794E-15	1.549004E-16
5.390000E+03	1.024203E-15	1.551694E-16
5.400000E+03	1.021462E-15	1.553841E-16
5.410000E+03	1.018564E-15	1.555432E-16
5.420000E+03	1.015524E-15	1.556489E-16
5.430000E+03	1.012326E-15	1.556989E-16
5.440000E+03	1.008998E-15	1.556970E-16
5.450000E+03	1.005525E-15	1.556412E-16
5.460000E+03	1.001934E-15	1.555357E-16
5.470000E+03	9.982127E-16	1.553785E-16
5.480000E+03	9.943889E-16	1.551741E-16
5.490000E+03	9.904506E-16	1.549207E-16
5.500000E+03	9.864259E-16	1.546230E-16
5.510000E+03	9.823233E-16	1.542824E-16
5.520000E+03	9.781315E-16	1.538974E-16
5.530000E+03	9.738887E-16	1.534743E-16
5.540000E+03	9.695743E-16	1.530100E-16
5.550000E+03	9.652164E-16	1.525092E-16
5.560000E+03	9.608140E-16	1.519722E-16
5.570000E+03	9.563754E-16	1.514005E-16
5.580000E+03	9.519091E-16	1.507958E-16
5.590000E+03	9.474231E-16	1.501596E-16
5.600000E+03	9.429253E-16	1.494936E-16
5.610000E+03	9.384232E-16	1.487992E-16
5.620000E+03	9.339333E-16	1.480794E-16
5.630000E+03	9.294530E-16	1.473342E-16
5.640000E+03	9.249888E-16	1.465649E-16
5.650000E+03	9.205469E-16	1.457728E-16
5.660000E+03	9.161417E-16	1.449606E-16
5.670000E+03	9.117604E-16	1.441264E-16
5.680000E+03	9.074258E-16	1.432742E-16
5.690000E+03	9.031332E-16	1.424036E-16
5.700000E+03	8.988951E-16	1.415169E-16
5.710000E+03	8.946974E-16	1.406121E-16
5.720000E+03	8.905519E-16	1.396912E-16
5.730000E+03	8.864697E-16	1.387564E-16
5.740000E+03	8.824356E-16	1.378055E-16
5.750000E+03	8.784600E-16	1.368404E-16
5.760000E+03	8.745442E-16	1.358615E-16
5.770000E+03	8.706892E-16	1.348691E-16
5.780000E+03	8.668955E-16	1.338636E-16
5.790000E+03	8.631549E-16	1.328440E-16
5.800000E+03	8.594676E-16	1.318103E-16
5.810000E+03	8.558416E-16	1.307641E-16
5.820000E+03	8.522680E-16	1.297042E-16
5.830000E+03	8.487542E-16	1.286320E-16
5.840000E+03	8.452828E-16	1.275449E-16
5.850000E+03	8.418690E-16	1.264454E-16
5.860000E+03	8.384951E-16	1.253311E-16
5.870000E+03	8.351758E-16	1.242044E-16
5.880000E+03	8.318932E-16	1.230628E-16
5.890000E+03	8.286536E-16	1.219074E-16
5.900000E+03	8.254471E-16	1.207371E-16
5.910000E+03	8.222798E-16	1.195530E-16
5.920000E+03	8.191417E-16	1.183538E-16
5.930000E+03	8.160307E-16	1.171395E-16
5.940000E+03	8.129447E-16	1.159101E-16
5.950000E+03	8.098894E-16	1.146669E-16
5.960000E+03	8.068469E-16	1.134075E-16
5.970000E+03	8.038230E-16	1.121331E-16
5.980000E+03	8.008153E-16	1.108439E-16
5.990000E+03	7.978139E-16	1.095390E-16
6.000000E+03	7.948168E-16	1.082185E-16
6.010000E+03	7.918216E-16	1.068827E-16
6.020000E+03	7.888340E-16	1.055330E-16
6.030000E+03	7.858363E-16	1.041677E-16
6.040000E+03	7.828265E-16	1.027872E-16
6.050000E+03	7.798100E-16	1.013931E-16
6.060000E+03	7.767695E-16	9.998394E-17
6.070000E+03	7.737181E-16	9.856242E-17
6.080000E+03	7.706310E-16	9.712642E-17
6.090000E+03	7.675212E-16	9.567872E-17
6.100000E+03	7.643716E-16	9.421845E-17
6.110000E+03	7.611875E-16	9.274762E-17
6.120000E+03	7.579596E-16	9.126655E-17
6.130000E+03	7.546782E-16	8.977571E-17
6.140000E+03	7.513562E-16	8.827833E-17
6.150000E+03	7.479840E-16	8.677512E-17
6.160000E+03	7.445595E-16	8.526780E-17
6.170000E+03	7.410879E-16	8.375907E-17
6.180000E+03	7.375670E-16	8.225090E-17
6.190000E+03	7.340017E-16	8.074620E-17
6.200000E+03	7.303756E-16	7.924567E-17
6.210000E+03	7.266865E-16	7.775179E-17
6.220000E+03	7.229395E-16	7.626795E-17
6.230000E+03	7.191254E-16	7.479620E-17
6.240000E+03	7.152494E-16	7.334022E-17
6.250000E+03	7.113165E-16	7.190384E-17
6.260000E+03	7.073177E-16	7.048956E-17
6.270000E+03	7.032652E-16	6.910214E-17
6.280000E+03	6.991502E-16	6.774434E-17
6.290000E+03	6.949850E-16	6.642110E-17
6.300000E+03	6.907678E-16	6.513600E-17
6.310000E+03	6.864970E-16	6.389271E-17
6.320000E+03	6.821784E-16	6.269553E-17
6.330000E+03	6.778105E-16	6.154808E-17
6.340000E+03	6.733992E-16	6.045453E-17
6.350000E+03	6.689369E-16	5.941765E-17
6.360000E+03	6.644231E-16	5.844068E-17
6.370000E+03	6.598709E-16	5.752775E-17
6.380000E+03	6.552802E-16	5.668146E-17
6.390000E+03	6.506379E-16	5.590288E-17
6.400000E+03	6.459515E-16	5.519436E-17
6.410000E+03	6.412283E-16	5.455770E-17
6.420000E+03	6.364566E-16	5.399246E-17
6.430000E+03	6.316446E-16	5.349923E-17
6.440000E+03	6.267880E-16	5.307685E-17
6.450000E+03	6.218829E-16	5.272349E-17
6.460000E+03	6.169386E-16	5.243777E-17
6.470000E+03	6.119392E-16	5.221553E-17
6.480000E+03	6.068823E-16	5.205315E-17
6.490000E+03	6.017784E-16	5.194766E-17
6.500000E+03	5.966193E-16	5.189407E-17
6.510000E+03	5.914098E-16	5.188821E-17
6.520000E+03	5.861672E-16	5.192678E-17
6.530000E+03	5.809086E-16	5.200642E-17
6.540000E+03	5.756388E-16	5.212264E-17
6.550000E+03	5.703686E-16	5.227157E-17
6.560000E+03	5.651208E-16	5.245055E-17
6.570000E+03	5.598876E-16	5.265434E-17
6.580000E+03	5.546856E-16	5.288012E-17
6.590000E+03	5.495249E-16	5.312477E-17
6.600000E+03	5.444037E-16	5.338428E-17
6.610000E+03	5.393317E-16	5.365606E-17
6.620000E+03	5.343187E-16	5.393781E-17
6.630000E+03	5.293567E-16	5.422574E-17
6.640000E+03	5.244664E-16	5.451928E-17
6.650000E+03	5.196396E-16	5.481519E-17
6.660000E+03	5.148851E-16	5.511223E-17
6.670000E+03	5.102058E-16	5.540882E-17
6.680000E+03	5.055988E-16	5.570299E-17
6.690000E+03	5.010779E-16	5.599482E-17
6.700000E+03	4.966396E-16	5.628274E-17
6.710000E+03	4.922805E-16	5.656533E-17
6.720000E+03	4.880136E-16	5.684321E-17
6.730000E+03	4.838296E-16	5.711464E-17
6.740000E+03	4.797354E-16	5.737990E-17
6.750000E+03	4.757324E-16	5.763872E-17
6.760000E+03	4.718268E-16	5.789164E-17
6.770000E+03	4.680089E-16	5.813727E-17
6.780000E+03	4.642846E-16	5.837629E-17
6.790000E+03	4.606492E-16	5.860810E-17
6.800000E+03	4.571134E-16	5.883416E-17
6.810000E+03	4.536722E-16	5.905399E-17
6.820000E+03	4.503200E-16	5.926711E-17
6.830000E+03	4.470672E-16	5.947513E-17
6.840000E+03	4.439027E-16	5.967691E-17
6.850000E+03	4.408313E-16	5.987342E-17
6.860000E+03	4.378521E-16	6.006493E-17
6.870000E+03	4.349590E-16	6.025102E-17
6.880000E+03	4.321613E-16	6.043338E-17
6.890000E+03	4.294473E-16	6.061086E-17
6.900000E+03	4.268261E-16	6.078517E-17
6.910000E+03	4.242858E-16	6.095510E-17
6.920000E+03	4.218300E-16	6.112164E-17
6.930000E+03	4.194569E-16	6.128500E-17
6.940000E+03	4.171598E-16	6.144465E-17
6.950000E+03	4.149466E-16	6.160226E-17
6.960000E+03	4.128105E-16	6.175728E-17
6.970000E+03	4.107442E-16	6.190910E-17
6.980000E+03	4.087508E-16	6.205860E-17
6.990000E+03	4.068328E-16	6.220666E-17
7.000000E+03	4.049782E-16	6.235187E-17
7.010000E+03	4.031895E-16	6.249505E-17
7.020000E+03	4.014644E-16	6.263628E-17
7.030000E+03	3.998056E-16	6.277636E-17
7.040000E+03	3.982007E-16	6.291378E-17
7.050000E+03	3.966524E-16	6.304934E-17
7.060000E+03	3.951581E-16	6.318302E-17
7.070000E+03	3.937157E-16	6.331481E-17
7.080000E+03	3.923226E-16	6.344471E-17
7.090000E+03	3.909815E-16	6.357346E-17
7.100000E+03	3.896804E-16	6.369945E-17
7.110000E+03	3.884267E-16	6.382422E-17
7.120000E+03	3.872135E-16	6.394694E-17
7.130000E+03	3.860385E-16	6.406754E-17
7.140000E+03	3.848998E-16	6.418599E-17
7.150000E+03	3.837954E-16	6.430223E-17
7.160000E+03	3.827282E-16	6.441703E-17
7.170000E+03	3.816917E-16	6.452954E-17
7.180000E+03	3.806841E-16	6.463972E-17
7.190000E+03	3.797038E-16	6.474753E-17
7.200000E+03	3.787543E-16	6.485379E-17
7.210000E+03	3.778293E-16	6.495766E-17
7.220000E+03	3.769323E-16	6.505997E-17
7.230000E+03	3.760575E-16	6.515990E-17
7.240000E+03	3.752086E-16	6.525832E-17
7.250000E+03	3.743798E-16	6.535441E-17
7.260000E+03	3.735753E-16	6.544909E-17
7.270000E+03	3.727895E-16	6.554155E-17
7.280000E+03	3.720268E-16	6.563275E-17
7.290000E+03	3.712867E-16	6.572277E-17
7.300000E+03	3.705689E-16	6.581173E-17
7.310000E+03	3.698682E-16	6.589887E-17
7.320000E+03	3.691895E-16	6.598522E-17
7.330000E+03	3.685328E-16	6.607090E-17
7.340000E+03	3.678981E-16	6.615609E-17
7.350000E+03	3.672856E-16	6.624095E-17
7.360000E+03	3.667003E-16	6.632656E-17
7.370000E+03	3.661378E-16	6.641222E-17
7.380000E+03	3.655983E-16	6.649813E-17
7.390000E+03	3.650872E-16	6.658539E-17
7.400000E+03	3.646050E-16	6.667421E-17
7.410000E+03	3.641570E-16	6.676571E-17
7.420000E+03	3.637340E-16	6.685832E-17
7.430000E+03	3.633463E-16	6.695406E-17
7.440000E+03	3.629945E-16	6.705317E-17
7.450000E+03	3.626742E-16	6.715495E-17
7.460000E+03	3.623861E-16	6.725964E-17
7.470000E+03	3.621307E-16	6.736744E-17
7.480000E+03	3.619036E-16	6.747764E-17
7.490000E+03	3.617053E-16	6.759045E-17
7.500000E+03	3.615364E-16	6.770605E-17
7.510000E+03	3.613923E-16	6.782370E-17
7.520000E+03	3.612784E-16	6.794449E-17
7.530000E+03	3.611950E-16	6.806858E-17
7.540000E+03	3.611328E-16	6.819427E-17
7.550000E+03	3.611018E-16	6.832355E-17
7.560000E+03	3.610924E-16	6.845469E-17
7.570000E+03	3.611099E-16	6.858874E-17
7.580000E+03	3.611544E-16	6.872582E-17
7.590000E+03	3.612211E-16	6.886510E-17
7.600000E+03	3.613151E-16	6.900762E-17
7.610000E+03	3.614367E-16	6.915348E-17
7.620000E+03	3.615809E-16	6.930182E-17
7.630000E+03	3.617480E-16	6.945274E-17
7.640000E+03	3.619430E-16	6.960728E-17
7.650000E+03	3.621612E-16	6.976458E-17
7.660000E+03	3.624027E-16	6.992474E-17
7.670000E+03	3.626728E-16	7.008884E-17
7.680000E+03	3.629619E-16	7.025506E-17
7.690000E+03	3.632803E-16	7.042546E-17
7.700000E+03	3.636235E-16	7.059923E-17
7.710000E+03	3.639970E-16	7.077750E-17
7.720000E+03	3.643916E-16	7.095851E-17
7.730000E+03	3.648181E-16	7.114441E-17
7.740000E+03	3.652725E-16	7.133447E-17
7.750000E+03	3.657608E-16	7.152995E-17
7.760000E+03	3.662743E-16	7.172914E-17
