#wls	flux	fluxerr
1.600000E+03	7.733036E-17	5.530411E-17
1.640000E+03	7.974665E-17	5.658528E-17
1.680000E+03	8.230167E-17	5.792794E-17
1.720000E+03	8.500341E-17	5.933447E-17
1.760000E+03	8.786023E-17	6.080728E-17
1.800000E+03	9.089719E-17	6.235997E-17
1.840000E+03	9.410812E-17	6.398421E-17
1.880000E+03	9.753722E-17	6.570567E-17
1.920000E+03	1.011619E-16	6.750430E-17
1.960000E+03	1.050110E-16	6.939444E-17
2.000000E+03	1.091157E-16	7.139131E-17
2.040000E+03	1.134905E-16	7.349830E-17
2.080000E+03	1.181300E-16	7.570559E-17
2.120000E+03	1.230891E-16	7.804169E-17
2.160000E+03	1.283633E-16	8.049633E-17
2.200000E+03	1.340122E-16	8.309908E-17
2.240000E+03	1.400090E-16	8.582467E-17
2.280000E+03	1.464154E-16	8.870242E-17
2.320000E+03	1.532743E-16	9.174834E-17
2.360000E+03	1.605795E-16	9.494844E-17
2.400000E+03	1.683730E-16	9.831679E-17
2.440000E+03	1.766706E-16	1.018514E-16
2.480000E+03	1.855419E-16	1.055804E-16
2.520000E+03	1.949729E-16	1.094831E-16
2.560000E+03	2.050618E-16	1.136013E-16
2.600000E+03	2.157583E-16	1.178930E-16
2.640000E+03	2.271571E-16	1.223964E-16
2.680000E+03	2.392586E-16	1.270963E-16
2.720000E+03	2.520876E-16	1.319913E-16
2.760000E+03	2.656969E-16	1.370935E-16
2.800000E+03	2.800629E-16	1.423751E-16
2.840000E+03	2.952209E-16	1.478392E-16
2.880000E+03	3.111597E-16	1.534648E-16
2.920000E+03	3.279300E-16	1.592620E-16
2.960000E+03	3.454546E-16	1.651787E-16
3.000000E+03	3.637535E-16	1.712112E-16
3.010000E+03	3.684461E-16	1.727344E-16
3.020000E+03	3.731979E-16	1.742688E-16
3.030000E+03	3.780071E-16	1.758134E-16
3.040000E+03	3.828313E-16	1.773482E-16
3.050000E+03	3.877083E-16	1.788907E-16
3.060000E+03	3.926359E-16	1.804397E-16
3.070000E+03	3.975709E-16	1.819751E-16
3.080000E+03	4.025924E-16	1.835330E-16
3.090000E+03	4.076159E-16	1.850747E-16
3.100000E+03	4.127208E-16	1.866360E-16
3.110000E+03	4.178221E-16	1.881784E-16
3.120000E+03	4.229992E-16	1.897376E-16
3.130000E+03	4.282079E-16	1.912934E-16
3.140000E+03	4.334037E-16	1.928259E-16
3.150000E+03	4.387078E-16	1.943890E-16
3.160000E+03	4.439922E-16	1.959256E-16
3.170000E+03	4.493369E-16	1.974711E-16
3.180000E+03	4.546966E-16	1.990053E-16
3.190000E+03	4.600677E-16	2.005267E-16
3.200000E+03	4.654883E-16	2.020517E-16
3.210000E+03	4.709547E-16	2.035786E-16
3.220000E+03	4.764212E-16	2.050874E-16
3.230000E+03	4.819255E-16	2.065945E-16
3.240000E+03	4.874219E-16	2.080800E-16
3.250000E+03	4.929898E-16	2.095779E-16
3.260000E+03	4.985412E-16	2.110504E-16
3.270000E+03	5.041137E-16	2.125136E-16
3.280000E+03	5.097027E-16	2.139655E-16
3.290000E+03	5.153038E-16	2.154041E-16
3.300000E+03	5.209124E-16	2.168274E-16
3.310000E+03	5.265653E-16	2.182508E-16
3.320000E+03	5.321745E-16	2.196375E-16
3.330000E+03	5.378183E-16	2.210201E-16
3.340000E+03	5.434502E-16	2.223793E-16
3.350000E+03	5.491066E-16	2.237299E-16
3.360000E+03	5.547410E-16	2.250530E-16
3.370000E+03	5.603894E-16	2.263632E-16
3.380000E+03	5.660466E-16	2.276582E-16
3.390000E+03	5.716661E-16	2.289194E-16
3.400000E+03	5.773244E-16	2.301774E-16
3.410000E+03	5.829342E-16	2.313974E-16
3.420000E+03	5.885310E-16	2.325934E-16
3.430000E+03	5.941091E-16	2.337633E-16
3.440000E+03	5.997032E-16	2.349207E-16
3.450000E+03	6.052672E-16	2.360474E-16
3.460000E+03	6.107955E-16	2.371413E-16
3.470000E+03	6.163223E-16	2.382157E-16
3.480000E+03	6.218019E-16	2.392529E-16
3.490000E+03	6.272681E-16	2.402661E-16
3.500000E+03	6.327149E-16	2.412528E-16
3.510000E+03	6.381362E-16	2.422107E-16
3.520000E+03	6.435261E-16	2.431376E-16
3.530000E+03	6.488401E-16	2.440167E-16
3.540000E+03	6.541495E-16	2.448750E-16
3.550000E+03	6.594477E-16	2.457099E-16
3.560000E+03	6.646529E-16	2.464909E-16
3.570000E+03	6.698351E-16	2.472441E-16
3.580000E+03	6.749879E-16	2.479672E-16
3.590000E+03	6.801052E-16	2.486578E-16
3.600000E+03	6.851442E-16	2.493005E-16
3.610000E+03	6.901361E-16	2.499065E-16
3.620000E+03	6.951110E-16	2.504869E-16
3.630000E+03	7.000267E-16	2.510264E-16
3.640000E+03	7.048774E-16	2.515229E-16
3.650000E+03	7.096578E-16	2.519748E-16
3.660000E+03	7.143975E-16	2.523924E-16
3.670000E+03	7.190559E-16	2.527617E-16
3.680000E+03	7.236964E-16	2.531048E-16
3.690000E+03	7.282448E-16	2.533958E-16
3.700000E+03	7.327635E-16	2.536566E-16
3.710000E+03	7.371799E-16	2.538619E-16
3.720000E+03	7.415556E-16	2.540332E-16
3.730000E+03	7.458524E-16	2.541574E-16
3.740000E+03	7.500976E-16	2.542438E-16
3.750000E+03	7.542540E-16	2.542799E-16
3.760000E+03	7.583805E-16	2.542856E-16
3.770000E+03	7.624087E-16	2.542380E-16
3.780000E+03	7.663658E-16	2.541463E-16
3.790000E+03	7.702473E-16	2.540091E-16
3.800000E+03	7.740790E-16	2.538349E-16
3.810000E+03	7.777965E-16	2.536028E-16
3.820000E+03	7.814852E-16	2.533407E-16
3.830000E+03	7.850817E-16	2.530279E-16
3.840000E+03	7.885826E-16	2.526636E-16
3.850000E+03	7.920417E-16	2.522653E-16
3.860000E+03	7.953984E-16	2.518135E-16
3.870000E+03	7.987056E-16	2.513251E-16
3.880000E+03	8.019044E-16	2.507818E-16
3.890000E+03	8.050470E-16	2.502000E-16
3.900000E+03	8.081032E-16	2.495705E-16
3.910000E+03	8.110969E-16	2.489006E-16
3.920000E+03	8.139990E-16	2.481816E-16
3.930000E+03	8.168080E-16	2.474133E-16
3.940000E+03	8.195725E-16	2.466105E-16
3.950000E+03	8.222150E-16	2.457500E-16
3.960000E+03	8.248089E-16	2.448540E-16
3.970000E+03	8.273031E-16	2.439075E-16
3.980000E+03	8.297450E-16	2.429246E-16
3.990000E+03	8.320853E-16	2.418910E-16
4.000000E+03	8.343473E-16	2.408138E-16
4.010000E+03	8.365302E-16	2.396930E-16
4.020000E+03	8.386112E-16	2.385223E-16
4.030000E+03	8.406354E-16	2.373148E-16
4.040000E+03	8.425581E-16	2.360581E-16
4.050000E+03	8.444020E-16	2.347590E-16
4.060000E+03	8.461677E-16	2.334178E-16
4.070000E+03	8.478558E-16	2.320351E-16
4.080000E+03	8.494466E-16	2.306057E-16
4.090000E+03	8.509623E-16	2.291361E-16
4.100000E+03	8.523642E-16	2.276163E-16
4.110000E+03	8.537145E-16	2.260633E-16
4.120000E+03	8.549558E-16	2.244623E-16
4.130000E+03	8.561107E-16	2.228197E-16
4.140000E+03	8.571629E-16	2.211320E-16
4.150000E+03	8.581347E-16	2.194052E-16
4.160000E+03	8.590291E-16	2.176407E-16
4.170000E+03	8.598132E-16	2.158308E-16
4.180000E+03	8.604916E-16	2.139772E-16
4.190000E+03	8.610866E-16	2.120863E-16
4.200000E+03	8.615678E-16	2.101513E-16
4.210000E+03	8.619580E-16	2.081784E-16
4.220000E+03	8.622451E-16	2.061656E-16
4.230000E+03	8.624184E-16	2.041112E-16
4.240000E+03	8.624844E-16	2.020176E-16
4.250000E+03	8.624492E-16	1.998873E-16
4.260000E+03	8.622877E-16	1.977154E-16
4.270000E+03	8.620229E-16	1.955083E-16
4.280000E+03	8.616160E-16	1.932584E-16
4.290000E+03	8.611056E-16	1.909756E-16
4.300000E+03	8.604694E-16	1.886562E-16
4.310000E+03	8.596867E-16	1.862971E-16
4.320000E+03	8.587814E-16	1.839050E-16
4.330000E+03	8.577479E-16	1.814800E-16
4.340000E+03	8.565675E-16	1.790199E-16
4.350000E+03	8.552503E-16	1.765285E-16
4.360000E+03	8.537924E-16	1.740068E-16
4.370000E+03	8.521774E-16	1.714532E-16
4.380000E+03	8.504294E-16	1.688746E-16
4.390000E+03	8.485196E-16	1.662672E-16
4.400000E+03	8.464594E-16	1.636355E-16
4.410000E+03	8.442598E-16	1.609836E-16
4.420000E+03	8.419068E-16	1.583112E-16
4.430000E+03	8.394117E-16	1.556227E-16
4.440000E+03	8.367613E-16	1.529181E-16
4.450000E+03	8.339791E-16	1.502041E-16
4.460000E+03	8.310640E-16	1.474830E-16
4.470000E+03	8.280152E-16	1.447572E-16
4.480000E+03	8.248549E-16	1.420332E-16
4.490000E+03	8.215706E-16	1.393113E-16
4.500000E+03	8.181726E-16	1.365962E-16
4.510000E+03	8.146820E-16	1.338940E-16
4.520000E+03	8.110971E-16	1.312073E-16
4.530000E+03	8.074379E-16	1.285420E-16
4.540000E+03	8.037127E-16	1.259023E-16
4.550000E+03	7.999089E-16	1.232892E-16
4.560000E+03	7.960658E-16	1.207116E-16
4.570000E+03	7.921702E-16	1.181706E-16
4.580000E+03	7.882394E-16	1.156719E-16
4.590000E+03	7.842903E-16	1.132210E-16
4.600000E+03	7.803092E-16	1.108192E-16
4.610000E+03	7.763221E-16	1.084736E-16
4.620000E+03	7.723249E-16	1.061870E-16
4.630000E+03	7.683327E-16	1.039649E-16
4.640000E+03	7.643411E-16	1.018102E-16
4.650000E+03	7.603645E-16	9.972862E-17
4.660000E+03	7.564074E-16	9.772432E-17
4.670000E+03	7.524650E-16	9.580043E-17
4.680000E+03	7.485505E-16	9.396241E-17
4.690000E+03	7.446590E-16	9.221335E-17
4.700000E+03	7.408029E-16	9.055853E-17
4.710000E+03	7.369858E-16	8.900190E-17
4.720000E+03	7.332019E-16	8.754622E-17
4.730000E+03	7.294544E-16	8.619510E-17
4.740000E+03	7.257461E-16	8.495180E-17
4.750000E+03	7.220879E-16	8.382013E-17
4.760000E+03	7.184817E-16	8.280241E-17
4.770000E+03	7.149127E-16	8.189847E-17
4.780000E+03	7.114071E-16	8.111226E-17
4.790000E+03	7.079574E-16	8.044315E-17
4.800000E+03	7.045561E-16	7.988976E-17
4.810000E+03	7.012272E-16	7.945351E-17
4.820000E+03	6.979542E-16	7.913043E-17
4.830000E+03	6.947520E-16	7.891934E-17
4.840000E+03	6.916110E-16	7.881563E-17
4.850000E+03	6.885451E-16	7.881669E-17
4.860000E+03	6.855519E-16	7.891758E-17
4.870000E+03	6.826287E-16	7.911292E-17
4.880000E+03	6.797880E-16	7.939877E-17
4.890000E+03	6.770189E-16	7.976833E-17
4.900000E+03	6.743260E-16	8.021647E-17
4.910000E+03	6.717131E-16	8.073801E-17
4.920000E+03	6.691769E-16	8.132694E-17
4.930000E+03	6.667137E-16	8.197738E-17
4.940000E+03	6.643274E-16	8.268446E-17
4.950000E+03	6.620217E-16	8.344357E-17
4.960000E+03	6.597928E-16	8.424939E-17
4.970000E+03	6.576298E-16	8.509589E-17
4.980000E+03	6.555507E-16	8.598106E-17
4.990000E+03	6.535304E-16	8.689749E-17
5.000000E+03	6.515867E-16	8.784370E-17
5.010000E+03	6.497160E-16	8.881565E-17
5.020000E+03	6.479077E-16	8.980856E-17
5.030000E+03	6.461652E-16	9.081982E-17
5.040000E+03	6.444783E-16	9.184509E-17
5.050000E+03	6.428574E-16	9.288320E-17
5.060000E+03	6.412992E-16	9.393125E-17
5.070000E+03	6.397934E-16	9.498547E-17
5.080000E+03	6.383437E-16	9.604433E-17
5.090000E+03	6.369468E-16	9.710543E-17
5.100000E+03	6.355998E-16	9.816652E-17
5.110000E+03	6.342994E-16	9.922551E-17
5.120000E+03	6.330427E-16	1.002804E-16
5.130000E+03	6.318335E-16	1.013305E-16
5.140000E+03	6.306622E-16	1.023729E-16
5.150000E+03	6.295326E-16	1.034071E-16
5.160000E+03	6.284421E-16	1.044316E-16
5.170000E+03	6.273812E-16	1.054438E-16
5.180000E+03	6.263540E-16	1.064435E-16
5.190000E+03	6.253513E-16	1.074283E-16
5.200000E+03	6.243838E-16	1.083993E-16
5.210000E+03	6.234360E-16	1.093529E-16
5.220000E+03	6.225121E-16	1.102894E-16
5.230000E+03	6.216033E-16	1.112064E-16
5.240000E+03	6.207204E-16	1.121053E-16
5.250000E+03	6.198418E-16	1.129818E-16
5.260000E+03	6.189784E-16	1.138373E-16
5.270000E+03	6.181284E-16	1.146709E-16
5.280000E+03	6.172833E-16	1.154806E-16
5.290000E+03	6.164348E-16	1.162646E-16
5.300000E+03	6.155942E-16	1.170245E-16
5.310000E+03	6.147470E-16	1.177572E-16
5.320000E+03	6.138980E-16	1.184633E-16
5.330000E+03	6.130329E-16	1.191396E-16
5.340000E+03	6.121631E-16	1.197882E-16
5.350000E+03	6.112683E-16	1.204047E-16
5.360000E+03	6.103599E-16	1.209912E-16
5.370000E+03	6.094241E-16	1.215445E-16
5.380000E+03	6.084663E-16	1.220657E-16
5.390000E+03	6.074666E-16	1.225503E-16
5.400000E+03	6.064368E-16	1.230007E-16
5.410000E+03	6.053573E-16	1.234126E-16
5.420000E+03	6.042338E-16	1.237870E-16
5.430000E+03	6.030533E-16	1.241210E-16
5.440000E+03	6.018216E-16	1.244157E-16
5.450000E+03	6.005197E-16	1.246671E-16
5.460000E+03	5.991537E-16	1.248762E-16
5.470000E+03	5.977234E-16	1.250430E-16
5.480000E+03	5.962164E-16	1.251647E-16
5.490000E+03	5.946328E-16	1.252414E-16
5.500000E+03	5.929850E-16	1.252756E-16
5.510000E+03	5.912608E-16	1.252648E-16
5.520000E+03	5.894786E-16	1.252129E-16
5.530000E+03	5.876266E-16	1.251176E-16
5.540000E+03	5.857229E-16	1.249828E-16
5.550000E+03	5.837619E-16	1.248074E-16
5.560000E+03	5.817618E-16	1.245956E-16
5.570000E+03	5.797167E-16	1.243463E-16
5.580000E+03	5.776328E-16	1.240611E-16
5.590000E+03	5.755222E-16	1.237428E-16
5.600000E+03	5.733851E-16	1.233919E-16
5.610000E+03	5.712276E-16	1.230098E-16
5.620000E+03	5.690497E-16	1.225970E-16
5.630000E+03	5.668517E-16	1.221538E-16
5.640000E+03	5.646454E-16	1.216831E-16
5.650000E+03	5.624252E-16	1.211841E-16
5.660000E+03	5.602028E-16	1.206597E-16
5.670000E+03	5.579668E-16	1.201078E-16
5.680000E+03	5.557345E-16	1.195325E-16
5.690000E+03	5.534947E-16	1.189318E-16
5.700000E+03	5.512532E-16	1.183074E-16
5.710000E+03	5.490158E-16	1.176609E-16
5.720000E+03	5.467769E-16	1.169915E-16
5.730000E+03	5.445367E-16	1.162997E-16
5.740000E+03	5.423066E-16	1.155884E-16
5.750000E+03	5.400753E-16	1.148557E-16
5.760000E+03	5.378486E-16	1.141031E-16
5.770000E+03	5.356210E-16	1.133299E-16
5.780000E+03	5.334038E-16	1.125391E-16
5.790000E+03	5.311915E-16	1.117299E-16
5.800000E+03	5.289841E-16	1.109028E-16
5.810000E+03	5.267762E-16	1.100571E-16
5.820000E+03	5.245789E-16	1.091957E-16
5.830000E+03	5.223868E-16	1.083179E-16
5.840000E+03	5.201945E-16	1.074231E-16
5.850000E+03	5.180129E-16	1.065142E-16
5.860000E+03	5.158314E-16	1.055892E-16
5.870000E+03	5.136552E-16	1.046501E-16
5.880000E+03	5.114847E-16	1.036973E-16
5.890000E+03	5.093143E-16	1.027303E-16
5.900000E+03	5.071443E-16	1.017497E-16
5.910000E+03	5.049748E-16	1.007561E-16
5.920000E+03	5.028111E-16	9.975127E-17
5.930000E+03	5.006429E-16	9.873369E-17
5.940000E+03	4.984754E-16	9.770510E-17
5.950000E+03	4.963037E-16	9.666516E-17
5.960000E+03	4.941330E-16	9.561559E-17
5.970000E+03	4.919584E-16	9.455613E-17
5.980000E+03	4.897749E-16	9.348654E-17
5.990000E+03	4.875826E-16	9.240765E-17
6.000000E+03	4.853871E-16	9.132125E-17
6.010000E+03	4.831782E-16	9.022627E-17
6.020000E+03	4.809615E-16	8.912457E-17
6.030000E+03	4.787322E-16	8.801612E-17
6.040000E+03	4.764905E-16	8.690188E-17
6.050000E+03	4.742319E-16	8.578195E-17
6.060000E+03	4.719569E-16	8.465738E-17
6.070000E+03	4.696658E-16	8.352923E-17
6.080000E+03	4.673543E-16	8.239776E-17
6.090000E+03	4.650228E-16	8.126412E-17
6.100000E+03	4.626670E-16	8.012868E-17
6.110000E+03	4.602925E-16	7.899352E-17
6.120000E+03	4.578950E-16	7.785908E-17
6.130000E+03	4.554703E-16	7.672587E-17
6.140000E+03	4.530241E-16	7.559609E-17
6.150000E+03	4.505474E-16	7.446952E-17
6.160000E+03	4.480507E-16	7.334920E-17
6.170000E+03	4.455299E-16	7.223581E-17
6.180000E+03	4.429813E-16	7.113009E-17
6.190000E+03	4.404104E-16	7.003433E-17
6.200000E+03	4.378180E-16	6.895009E-17
6.210000E+03	4.352052E-16	6.787894E-17
6.220000E+03	4.325682E-16	6.682175E-17
6.230000E+03	4.299126E-16	6.578085E-17
6.240000E+03	4.272393E-16	6.475788E-17
6.250000E+03	4.245494E-16	6.375445E-17
6.260000E+03	4.218439E-16	6.277219E-17
6.270000E+03	4.191282E-16	6.181340E-17
6.280000E+03	4.163989E-16	6.087901E-17
6.290000E+03	4.136615E-16	5.997127E-17
6.300000E+03	4.109170E-16	5.909174E-17
6.310000E+03	4.081620E-16	5.824129E-17
6.320000E+03	4.054107E-16	5.742330E-17
6.330000E+03	4.026510E-16	5.663730E-17
6.340000E+03	3.998926E-16	5.588587E-17
6.350000E+03	3.971321E-16	5.516965E-17
6.360000E+03	3.943793E-16	5.449101E-17
6.370000E+03	3.916221E-16	5.384918E-17
6.380000E+03	3.888743E-16	5.324686E-17
6.390000E+03	3.861282E-16	5.268362E-17
6.400000E+03	3.833932E-16	5.216118E-17
6.410000E+03	3.806573E-16	5.167821E-17
6.420000E+03	3.779339E-16	5.123659E-17
6.430000E+03	3.752193E-16	5.083568E-17
6.440000E+03	3.725098E-16	5.047462E-17
6.450000E+03	3.698100E-16	5.015341E-17
6.460000E+03	3.671242E-16	4.987183E-17
6.470000E+03	3.644402E-16	4.962718E-17
6.480000E+03	3.617705E-16	4.941991E-17
6.490000E+03	3.591109E-16	4.924809E-17
6.500000E+03	3.564613E-16	4.911016E-17
6.510000E+03	3.538257E-16	4.900503E-17
6.520000E+03	3.511999E-16	4.893040E-17
6.530000E+03	3.485838E-16	4.888446E-17
6.540000E+03	3.459852E-16	4.886648E-17
6.550000E+03	3.434000E-16	4.887403E-17
6.560000E+03	3.408279E-16	4.890525E-17
6.570000E+03	3.382766E-16	4.895942E-17
6.580000E+03	3.357421E-16	4.903414E-17
6.590000E+03	3.332242E-16	4.912764E-17
6.600000E+03	3.307305E-16	4.923932E-17
6.610000E+03	3.282569E-16	4.936696E-17
6.620000E+03	3.258071E-16	4.950951E-17
6.630000E+03	3.233810E-16	4.966544E-17
6.640000E+03	3.209822E-16	4.983389E-17
6.650000E+03	3.186068E-16	5.001288E-17
6.660000E+03	3.162621E-16	5.020230E-17
6.670000E+03	3.139443E-16	5.040032E-17
6.680000E+03	3.116606E-16	5.060700E-17
6.690000E+03	3.094036E-16	5.082007E-17
6.700000E+03	3.071804E-16	5.103975E-17
6.710000E+03	3.049909E-16	5.126512E-17
6.720000E+03	3.028312E-16	5.149473E-17
6.730000E+03	3.007087E-16	5.172904E-17
6.740000E+03	2.986230E-16	5.196734E-17
6.750000E+03	2.965705E-16	5.220837E-17
6.760000E+03	2.945545E-16	5.245217E-17
6.770000E+03	2.925750E-16	5.269821E-17
6.780000E+03	2.906318E-16	5.294602E-17
6.790000E+03	2.887283E-16	5.319583E-17
6.800000E+03	2.868607E-16	5.344662E-17
6.810000E+03	2.850326E-16	5.369871E-17
6.820000E+03	2.832436E-16	5.395182E-17
6.830000E+03	2.814937E-16	5.420572E-17
6.840000E+03	2.797792E-16	5.445949E-17
6.850000E+03	2.781104E-16	5.471504E-17
6.860000E+03	2.764766E-16	5.497015E-17
6.870000E+03	2.748812E-16	5.522538E-17
6.880000E+03	2.733275E-16	5.548137E-17
6.890000E+03	2.718154E-16	5.573804E-17
6.900000E+03	2.703411E-16	5.599467E-17
6.910000E+03	2.689045E-16	5.625122E-17
6.920000E+03	2.675123E-16	5.650913E-17
6.930000E+03	2.661541E-16	5.676627E-17
6.940000E+03	2.648400E-16	5.702484E-17
6.950000E+03	2.635629E-16	5.728345E-17
6.960000E+03	2.623261E-16	5.754288E-17
6.970000E+03	2.611260E-16	5.780248E-17
6.980000E+03	2.599659E-16	5.806308E-17
6.990000E+03	2.588457E-16	5.832478E-17
7.000000E+03	2.577617E-16	5.858693E-17
7.010000E+03	2.567173E-16	5.885042E-17
7.020000E+03	2.557088E-16	5.911458E-17
7.030000E+03	2.547396E-16	5.938033E-17
7.040000E+03	2.538095E-16	5.964781E-17
7.050000E+03	2.529116E-16	5.991560E-17
7.060000E+03	2.520526E-16	6.018540E-17
7.070000E+03	2.512323E-16	6.045737E-17
7.080000E+03	2.504440E-16	6.073007E-17
7.090000E+03	2.496941E-16	6.100527E-17
7.100000E+03	2.489761E-16	6.128150E-17
7.110000E+03	2.482931E-16	6.155973E-17
7.120000E+03	2.476451E-16	6.184013E-17
7.130000E+03	2.470319E-16	6.212287E-17
7.140000E+03	2.464503E-16	6.240729E-17
7.150000E+03	2.459002E-16	6.269354E-17
7.160000E+03	2.453816E-16	6.298180E-17
7.170000E+03	2.448977E-16	6.327307E-17
7.180000E+03	2.444421E-16	6.356584E-17
7.190000E+03	2.440146E-16	6.386028E-17
7.200000E+03	2.436186E-16	6.415739E-17
7.210000E+03	2.432508E-16	6.445649E-17
7.220000E+03	2.429113E-16	6.475775E-17
7.230000E+03	2.425969E-16	6.506047E-17
7.240000E+03	2.423076E-16	6.536481E-17
7.250000E+03	2.420468E-16	6.567180E-17
7.260000E+03	2.418080E-16	6.597986E-17
7.270000E+03	2.415914E-16	6.628914E-17
7.280000E+03	2.413971E-16	6.659979E-17
7.290000E+03	2.412220E-16	6.691109E-17
7.300000E+03	2.410693E-16	6.722405E-17
7.310000E+03	2.409328E-16	6.753706E-17
7.320000E+03	2.408159E-16	6.785115E-17
7.330000E+03	2.407122E-16	6.816465E-17
7.340000E+03	2.406253E-16	6.847861E-17
7.350000E+03	2.405486E-16	6.879134E-17
7.360000E+03	2.404858E-16	6.910387E-17
7.370000E+03	2.404337E-16	6.941542E-17
7.380000E+03	2.403893E-16	6.972517E-17
7.390000E+03	2.403560E-16	7.003418E-17
7.400000E+03	2.403307E-16	7.034164E-17
7.410000E+03	2.403105E-16	7.064671E-17
7.420000E+03	2.402955E-16	7.094949E-17
7.430000E+03	2.402923E-16	7.125201E-17
7.440000E+03	2.402915E-16	7.155151E-17
7.450000E+03	2.402997E-16	7.185003E-17
7.460000E+03	2.403139E-16	7.214671E-17
7.470000E+03	2.403375E-16	7.244263E-17
7.480000E+03	2.403675E-16	7.273696E-17
7.490000E+03	2.404105E-16	7.303176E-17
7.500000E+03	2.404668E-16	7.332718E-17
7.510000E+03	2.405333E-16	7.362237E-17
7.520000E+03	2.406168E-16	7.391947E-17
7.530000E+03	2.407143E-16	7.421763E-17
7.540000E+03	2.408293E-16	7.451802E-17
7.550000E+03	2.409620E-16	7.482081E-17
7.560000E+03	2.411161E-16	7.512718E-17
7.570000E+03	2.412917E-16	7.543734E-17
7.580000E+03	2.414893E-16	7.575147E-17
7.590000E+03	2.417125E-16	7.607081E-17
7.600000E+03	2.419616E-16	7.639557E-17
7.610000E+03	2.422370E-16	7.672599E-17
7.620000E+03	2.425391E-16	7.706229E-17
7.630000E+03	2.428716E-16	7.740575E-17
7.640000E+03	2.432317E-16	7.775556E-17
7.650000E+03	2.436231E-16	7.811304E-17
7.660000E+03	2.440497E-16	7.847953E-17
7.670000E+03	2.445052E-16	7.885314E-17
7.680000E+03	2.449970E-16	7.923630E-17
7.690000E+03	2.455221E-16	7.962822E-17
7.700000E+03	2.460845E-16	8.003029E-17
7.710000E+03	2.466815E-16	8.044171E-17
7.720000E+03	2.473171E-16	8.086388E-17
7.730000E+03	2.479918E-16	8.129714E-17
7.740000E+03	2.487030E-16	8.174067E-17
7.750000E+03	2.494512E-16	8.219480E-17
7.760000E+03	2.502441E-16	8.266213E-17
