#wls	flux	fluxerr
1.600000E+03	1.038637E-16	7.326578E-17
1.640000E+03	1.069528E-16	7.480916E-17
1.680000E+03	1.102215E-16	7.642718E-17
1.720000E+03	1.136805E-16	7.812285E-17
1.760000E+03	1.173413E-16	7.989926E-17
1.800000E+03	1.212378E-16	8.177444E-17
1.840000E+03	1.253621E-16	8.373726E-17
1.880000E+03	1.297276E-16	8.579089E-17
1.920000E+03	1.343965E-16	8.797006E-17
1.960000E+03	1.393632E-16	9.026361E-17
2.000000E+03	1.446453E-16	9.267552E-17
2.040000E+03	1.502879E-16	9.522632E-17
2.080000E+03	1.563125E-16	9.792063E-17
2.120000E+03	1.627697E-16	1.007802E-16
2.160000E+03	1.696270E-16	1.037744E-16
2.200000E+03	1.769951E-16	1.069602E-16
2.240000E+03	1.848723E-16	1.103239E-16
2.280000E+03	1.932852E-16	1.138685E-16
2.320000E+03	2.022931E-16	1.176154E-16
2.360000E+03	2.119590E-16	1.215861E-16
2.400000E+03	2.223137E-16	1.257820E-16
2.440000E+03	2.334228E-16	1.302232E-16
2.480000E+03	2.452783E-16	1.348871E-16
2.520000E+03	2.580202E-16	1.398322E-16
2.560000E+03	2.716368E-16	1.450314E-16
2.600000E+03	2.861889E-16	1.504968E-16
2.640000E+03	3.017343E-16	1.562371E-16
2.680000E+03	3.183710E-16	1.622806E-16
2.720000E+03	3.361039E-16	1.686060E-16
2.760000E+03	3.549703E-16	1.752086E-16
2.800000E+03	3.750934E-16	1.821254E-16
2.840000E+03	3.963910E-16	1.892918E-16
2.880000E+03	4.189576E-16	1.967303E-16
2.920000E+03	4.428228E-16	2.044313E-16
2.960000E+03	4.679409E-16	2.123511E-16
3.000000E+03	4.942907E-16	2.204597E-16
3.010000E+03	5.010939E-16	2.225244E-16
3.020000E+03	5.079894E-16	2.246061E-16
3.030000E+03	5.149185E-16	2.266786E-16
3.040000E+03	5.219337E-16	2.287648E-16
3.050000E+03	5.290319E-16	2.308631E-16
3.060000E+03	5.362098E-16	2.329718E-16
3.070000E+03	5.434641E-16	2.350890E-16
3.080000E+03	5.507339E-16	2.371884E-16
3.090000E+03	5.581293E-16	2.393172E-16
3.100000E+03	5.655895E-16	2.414489E-16
3.110000E+03	5.731103E-16	2.435816E-16
3.120000E+03	5.806872E-16	2.457131E-16
3.130000E+03	5.883157E-16	2.478415E-16
3.140000E+03	5.960492E-16	2.499889E-16
3.150000E+03	6.038248E-16	2.521289E-16
3.160000E+03	6.116375E-16	2.542591E-16
3.170000E+03	6.195405E-16	2.564015E-16
3.180000E+03	6.274700E-16	2.585296E-16
3.190000E+03	6.354790E-16	2.606652E-16
3.200000E+03	6.435620E-16	2.628056E-16
3.210000E+03	6.516543E-16	2.649244E-16
3.220000E+03	6.598087E-16	2.670430E-16
3.230000E+03	6.679601E-16	2.691350E-16
3.240000E+03	6.762200E-16	2.712454E-16
3.250000E+03	6.844639E-16	2.733239E-16
3.260000E+03	6.928031E-16	2.754150E-16
3.270000E+03	7.011127E-16	2.774689E-16
3.280000E+03	7.095038E-16	2.795297E-16
3.290000E+03	7.179099E-16	2.815710E-16
3.300000E+03	7.263239E-16	2.835900E-16
3.310000E+03	7.347971E-16	2.856068E-16
3.320000E+03	7.432627E-16	2.875953E-16
3.330000E+03	7.517720E-16	2.895754E-16
3.340000E+03	7.602580E-16	2.915212E-16
3.350000E+03	7.687713E-16	2.934523E-16
3.360000E+03	7.773036E-16	2.953655E-16
3.370000E+03	7.857879E-16	2.972352E-16
3.380000E+03	7.943326E-16	2.991028E-16
3.390000E+03	8.028704E-16	3.009426E-16
3.400000E+03	8.113924E-16	3.027514E-16
3.410000E+03	8.198897E-16	3.045260E-16
3.420000E+03	8.283535E-16	3.062632E-16
3.430000E+03	8.368322E-16	3.079811E-16
3.440000E+03	8.452589E-16	3.096550E-16
3.450000E+03	8.536816E-16	3.113026E-16
3.460000E+03	8.620906E-16	3.129205E-16
3.470000E+03	8.704761E-16	3.145050E-16
3.480000E+03	8.787723E-16	3.160326E-16
3.490000E+03	8.870820E-16	3.175404E-16
3.500000E+03	8.953391E-16	3.190046E-16
3.510000E+03	9.035340E-16	3.204221E-16
3.520000E+03	9.117121E-16	3.218090E-16
3.530000E+03	9.198084E-16	3.231424E-16
3.540000E+03	9.278135E-16	3.244194E-16
3.550000E+03	9.358260E-16	3.256744E-16
3.560000E+03	9.437277E-16	3.268663E-16
3.570000E+03	9.516158E-16	3.280290E-16
3.580000E+03	9.593740E-16	3.291224E-16
3.590000E+03	9.670985E-16	3.301797E-16
3.600000E+03	9.747265E-16	3.311797E-16
3.610000E+03	9.823004E-16	3.321367E-16
3.620000E+03	9.897588E-16	3.330302E-16
3.630000E+03	9.971434E-16	3.338744E-16
3.640000E+03	1.004444E-15	3.346661E-16
3.650000E+03	1.011652E-15	3.354023E-16
3.660000E+03	1.018758E-15	3.360799E-16
3.670000E+03	1.025801E-15	3.367123E-16
3.680000E+03	1.032723E-15	3.372803E-16
3.690000E+03	1.039515E-15	3.377815E-16
3.700000E+03	1.046217E-15	3.382287E-16
3.710000E+03	1.052821E-15	3.386192E-16
3.720000E+03	1.059316E-15	3.389503E-16
3.730000E+03	1.065694E-15	3.392194E-16
3.740000E+03	1.071994E-15	3.394385E-16
3.750000E+03	1.078161E-15	3.395905E-16
3.760000E+03	1.084187E-15	3.396736E-16
3.770000E+03	1.090111E-15	3.396995E-16
3.780000E+03	1.095880E-15	3.396523E-16
3.790000E+03	1.101574E-15	3.395571E-16
3.800000E+03	1.107143E-15	3.393980E-16
3.810000E+03	1.112580E-15	3.391734E-16
3.820000E+03	1.117879E-15	3.388816E-16
3.830000E+03	1.123033E-15	3.385212E-16
3.840000E+03	1.128080E-15	3.381028E-16
3.850000E+03	1.133011E-15	3.376247E-16
3.860000E+03	1.137782E-15	3.370738E-16
3.870000E+03	1.142467E-15	3.364720E-16
3.880000E+03	1.146983E-15	3.357951E-16
3.890000E+03	1.151365E-15	3.350537E-16
3.900000E+03	1.155646E-15	3.342577E-16
3.910000E+03	1.159747E-15	3.333846E-16
3.920000E+03	1.163741E-15	3.324551E-16
3.930000E+03	1.167622E-15	3.314683E-16
3.940000E+03	1.171352E-15	3.304134E-16
3.950000E+03	1.174930E-15	3.292904E-16
3.960000E+03	1.178388E-15	3.281087E-16
3.970000E+03	1.181692E-15	3.268589E-16
3.980000E+03	1.184873E-15	3.255502E-16
3.990000E+03	1.187930E-15	3.241827E-16
4.000000E+03	1.190863E-15	3.227563E-16
4.010000E+03	1.193640E-15	3.212628E-16
4.020000E+03	1.196262E-15	3.197031E-16
4.030000E+03	1.198792E-15	3.180944E-16
4.040000E+03	1.201168E-15	3.164207E-16
4.050000E+03	1.203395E-15	3.146833E-16
4.060000E+03	1.205503E-15	3.128911E-16
4.070000E+03	1.207465E-15	3.110374E-16
4.080000E+03	1.209313E-15	3.091310E-16
4.090000E+03	1.211022E-15	3.071657E-16
4.100000E+03	1.212568E-15	3.051363E-16
4.110000E+03	1.214010E-15	3.030583E-16
4.120000E+03	1.215299E-15	3.009198E-16
4.130000E+03	1.216466E-15	2.987294E-16
4.140000E+03	1.217490E-15	2.964825E-16
4.150000E+03	1.218377E-15	2.941816E-16
4.160000E+03	1.219134E-15	2.918287E-16
4.170000E+03	1.219767E-15	2.894262E-16
4.180000E+03	1.220234E-15	2.869651E-16
4.190000E+03	1.220568E-15	2.844539E-16
4.200000E+03	1.220776E-15	2.818954E-16
4.210000E+03	1.220842E-15	2.792870E-16
4.220000E+03	1.220753E-15	2.766266E-16
4.230000E+03	1.220519E-15	2.739176E-16
4.240000E+03	1.220149E-15	2.711634E-16
4.250000E+03	1.219631E-15	2.683624E-16
4.260000E+03	1.218955E-15	2.655137E-16
4.270000E+03	1.218131E-15	2.626212E-16
4.280000E+03	1.217151E-15	2.596843E-16
4.290000E+03	1.216025E-15	2.567070E-16
4.300000E+03	1.214706E-15	2.536809E-16
4.310000E+03	1.213246E-15	2.506189E-16
4.320000E+03	1.211582E-15	2.475094E-16
4.330000E+03	1.209765E-15	2.443653E-16
4.340000E+03	1.207753E-15	2.411799E-16
4.350000E+03	1.205542E-15	2.379549E-16
4.360000E+03	1.203148E-15	2.346957E-16
4.370000E+03	1.200550E-15	2.314006E-16
4.380000E+03	1.197729E-15	2.280688E-16
4.390000E+03	1.194684E-15	2.247030E-16
4.400000E+03	1.191417E-15	2.213061E-16
4.410000E+03	1.187911E-15	2.178783E-16
4.420000E+03	1.184134E-15	2.144172E-16
4.430000E+03	1.180106E-15	2.109298E-16
4.440000E+03	1.175814E-15	2.074173E-16
4.450000E+03	1.171246E-15	2.038813E-16
4.460000E+03	1.166421E-15	2.003292E-16
4.470000E+03	1.161374E-15	1.967709E-16
4.480000E+03	1.156108E-15	1.932103E-16
4.490000E+03	1.150670E-15	1.896593E-16
4.500000E+03	1.145061E-15	1.861216E-16
4.510000E+03	1.139326E-15	1.826081E-16
4.520000E+03	1.133464E-15	1.791220E-16
4.530000E+03	1.127502E-15	1.756715E-16
4.540000E+03	1.121453E-15	1.722619E-16
4.550000E+03	1.115342E-15	1.689007E-16
4.560000E+03	1.109180E-15	1.655929E-16
4.570000E+03	1.102991E-15	1.623456E-16
4.580000E+03	1.096784E-15	1.591636E-16
4.590000E+03	1.090566E-15	1.560516E-16
4.600000E+03	1.084360E-15	1.530162E-16
4.610000E+03	1.078172E-15	1.500618E-16
4.620000E+03	1.072021E-15	1.471946E-16
4.630000E+03	1.065902E-15	1.444172E-16
4.640000E+03	1.059844E-15	1.417372E-16
4.650000E+03	1.053853E-15	1.391587E-16
4.660000E+03	1.047945E-15	1.366870E-16
4.670000E+03	1.042111E-15	1.343243E-16
4.680000E+03	1.036378E-15	1.320774E-16
4.690000E+03	1.030739E-15	1.299479E-16
4.700000E+03	1.025206E-15	1.279405E-16
4.710000E+03	1.019783E-15	1.260580E-16
4.720000E+03	1.014481E-15	1.243044E-16
4.730000E+03	1.009280E-15	1.226790E-16
4.740000E+03	1.004191E-15	1.211852E-16
4.750000E+03	9.991944E-16	1.198215E-16
4.760000E+03	9.942680E-16	1.185866E-16
4.770000E+03	9.893913E-16	1.174783E-16
4.780000E+03	9.845225E-16	1.164918E-16
4.790000E+03	9.796957E-16	1.156306E-16
4.800000E+03	9.749332E-16	1.148960E-16
4.810000E+03	9.702769E-16	1.142913E-16
4.820000E+03	9.657149E-16	1.138126E-16
4.830000E+03	9.612869E-16	1.134618E-16
4.840000E+03	9.569902E-16	1.132353E-16
4.850000E+03	9.528215E-16	1.131288E-16
4.860000E+03	9.487773E-16	1.131377E-16
4.870000E+03	9.448744E-16	1.132597E-16
4.880000E+03	9.410882E-16	1.134870E-16
4.890000E+03	9.374250E-16	1.138153E-16
4.900000E+03	9.338804E-16	1.142390E-16
4.910000E+03	9.304598E-16	1.147535E-16
4.920000E+03	9.271389E-16	1.153506E-16
4.930000E+03	9.239328E-16	1.160268E-16
4.940000E+03	9.208271E-16	1.167751E-16
4.950000E+03	9.178168E-16	1.175896E-16
4.960000E+03	9.149069E-16	1.184659E-16
4.970000E+03	9.120829E-16	1.193971E-16
4.980000E+03	9.093589E-16	1.203804E-16
4.990000E+03	9.067110E-16	1.214080E-16
5.000000E+03	9.041436E-16	1.224759E-16
5.010000E+03	9.016612E-16	1.235807E-16
5.020000E+03	8.992495E-16	1.247163E-16
5.030000E+03	8.969127E-16	1.258795E-16
5.040000E+03	8.946460E-16	1.270660E-16
5.050000E+03	8.924443E-16	1.282717E-16
5.060000E+03	8.903028E-16	1.294927E-16
5.070000E+03	8.882167E-16	1.307251E-16
5.080000E+03	8.861902E-16	1.319669E-16
5.090000E+03	8.842186E-16	1.332146E-16
5.100000E+03	8.822973E-16	1.344651E-16
5.110000E+03	8.804214E-16	1.357152E-16
5.120000E+03	8.785866E-16	1.369621E-16
5.130000E+03	8.767972E-16	1.382045E-16
5.140000E+03	8.750310E-16	1.394368E-16
5.150000E+03	8.733105E-16	1.406609E-16
5.160000E+03	8.716137E-16	1.418715E-16
5.170000E+03	8.699452E-16	1.430680E-16
5.180000E+03	8.682922E-16	1.442465E-16
5.190000E+03	8.666686E-16	1.454082E-16
5.200000E+03	8.650529E-16	1.465481E-16
5.210000E+03	8.634502E-16	1.476658E-16
5.220000E+03	8.618570E-16	1.487597E-16
5.230000E+03	8.602698E-16	1.498281E-16
5.240000E+03	8.586854E-16	1.508694E-16
5.250000E+03	8.571005E-16	1.518822E-16
5.260000E+03	8.555123E-16	1.528650E-16
5.270000E+03	8.539090E-16	1.538151E-16
5.280000E+03	8.522967E-16	1.547326E-16
5.290000E+03	8.506726E-16	1.556165E-16
5.300000E+03	8.490259E-16	1.564641E-16
5.310000E+03	8.473627E-16	1.572758E-16
5.320000E+03	8.456722E-16	1.580492E-16
5.330000E+03	8.439611E-16	1.587849E-16
5.340000E+03	8.422104E-16	1.594790E-16
5.350000E+03	8.404354E-16	1.601338E-16
5.360000E+03	8.386175E-16	1.607454E-16
5.370000E+03	8.367639E-16	1.613147E-16
5.380000E+03	8.348647E-16	1.618397E-16
5.390000E+03	8.329274E-16	1.623213E-16
5.400000E+03	8.309425E-16	1.627575E-16
5.410000E+03	8.289008E-16	1.631463E-16
5.420000E+03	8.268184E-16	1.634906E-16
5.430000E+03	8.246779E-16	1.637868E-16
5.440000E+03	8.224874E-16	1.640363E-16
5.450000E+03	8.202463E-16	1.642391E-16
5.460000E+03	8.179464E-16	1.643933E-16
5.470000E+03	8.156119E-16	1.645038E-16
5.480000E+03	8.132428E-16	1.645706E-16
5.490000E+03	8.108796E-16	1.646021E-16
5.500000E+03	8.085299E-16	1.645999E-16
5.510000E+03	8.061852E-16	1.645626E-16
5.520000E+03	8.038054E-16	1.644820E-16
5.530000E+03	8.013986E-16	1.643601E-16
5.540000E+03	7.989570E-16	1.641954E-16
5.550000E+03	7.964812E-16	1.639882E-16
5.560000E+03	7.939715E-16	1.637388E-16
5.570000E+03	7.914285E-16	1.634476E-16
5.580000E+03	7.888448E-16	1.631133E-16
5.590000E+03	7.862368E-16	1.627397E-16
5.600000E+03	7.836052E-16	1.623271E-16
5.610000E+03	7.809426E-16	1.618744E-16
5.620000E+03	7.782498E-16	1.613821E-16
5.630000E+03	7.755353E-16	1.608523E-16
5.640000E+03	7.727997E-16	1.602855E-16
5.650000E+03	7.700515E-16	1.596840E-16
5.660000E+03	7.672759E-16	1.590449E-16
5.670000E+03	7.644889E-16	1.583722E-16
5.680000E+03	7.616912E-16	1.576664E-16
5.690000E+03	7.588759E-16	1.569264E-16
5.700000E+03	7.560512E-16	1.561546E-16
5.710000E+03	7.532101E-16	1.553499E-16
5.720000E+03	7.503683E-16	1.545160E-16
5.730000E+03	7.475115E-16	1.536506E-16
5.740000E+03	7.446551E-16	1.527573E-16
5.750000E+03	7.417848E-16	1.518337E-16
5.760000E+03	7.389160E-16	1.508836E-16
5.770000E+03	7.360491E-16	1.499075E-16
5.780000E+03	7.331699E-16	1.489031E-16
5.790000E+03	7.302935E-16	1.478741E-16
5.800000E+03	7.274203E-16	1.468211E-16
5.810000E+03	7.245361E-16	1.457420E-16
5.820000E+03	7.216559E-16	1.446402E-16
5.830000E+03	7.187799E-16	1.435166E-16
5.840000E+03	7.159012E-16	1.423703E-16
5.850000E+03	7.130202E-16	1.412021E-16
5.860000E+03	7.101442E-16	1.400142E-16
5.870000E+03	7.072664E-16	1.388058E-16
5.880000E+03	7.043941E-16	1.375791E-16
5.890000E+03	7.015203E-16	1.363336E-16
5.900000E+03	6.986454E-16	1.350699E-16
5.910000E+03	6.957625E-16	1.337876E-16
5.920000E+03	6.928858E-16	1.324901E-16
5.930000E+03	6.900083E-16	1.311771E-16
5.940000E+03	6.871303E-16	1.298492E-16
5.950000E+03	6.842450E-16	1.285062E-16
5.960000E+03	6.813594E-16	1.271503E-16
5.970000E+03	6.784669E-16	1.257810E-16
5.980000E+03	6.755675E-16	1.243995E-16
5.990000E+03	6.726616E-16	1.230068E-16
6.000000E+03	6.697491E-16	1.216038E-16
6.010000E+03	6.668237E-16	1.201905E-16
6.020000E+03	6.638856E-16	1.187681E-16
6.030000E+03	6.609350E-16	1.173376E-16
6.040000E+03	6.579721E-16	1.159004E-16
6.050000E+03	6.549841E-16	1.144555E-16
6.060000E+03	6.519845E-16	1.130063E-16
6.070000E+03	6.489605E-16	1.115522E-16
6.080000E+03	6.459190E-16	1.100955E-16
6.090000E+03	6.428477E-16	1.086357E-16
6.100000E+03	6.397469E-16	1.071742E-16
6.110000E+03	6.366174E-16	1.057127E-16
6.120000E+03	6.334596E-16	1.042529E-16
6.130000E+03	6.302617E-16	1.027945E-16
6.140000E+03	6.270243E-16	1.013391E-16
6.150000E+03	6.237359E-16	9.988674E-17
6.160000E+03	6.203912E-16	9.843837E-17
6.170000E+03	6.169791E-16	9.699411E-17
6.180000E+03	6.134823E-16	9.555325E-17
6.190000E+03	6.099148E-16	9.411998E-17
6.200000E+03	6.063025E-16	9.270026E-17
6.210000E+03	6.026463E-16	9.129619E-17
6.220000E+03	5.989535E-16	8.991080E-17
6.230000E+03	5.952433E-16	8.854883E-17
6.240000E+03	5.915046E-16	8.721049E-17
6.250000E+03	5.877502E-16	8.589955E-17
6.260000E+03	5.839813E-16	8.461795E-17
6.270000E+03	5.802045E-16	8.336848E-17
6.280000E+03	5.764150E-16	8.215215E-17
6.290000E+03	5.726136E-16	8.097082E-17
6.300000E+03	5.688073E-16	7.982710E-17
6.310000E+03	5.650028E-16	7.872350E-17
6.320000E+03	5.611893E-16	7.766001E-17
6.330000E+03	5.573794E-16	7.663975E-17
6.340000E+03	5.535683E-16	7.566334E-17
6.350000E+03	5.497626E-16	7.473284E-17
6.360000E+03	5.459519E-16	7.384785E-17
6.370000E+03	5.421540E-16	7.301165E-17
6.380000E+03	5.383530E-16	7.222279E-17
6.390000E+03	5.345609E-16	7.148339E-17
6.400000E+03	5.307731E-16	7.079316E-17
6.410000E+03	5.269849E-16	7.015161E-17
6.420000E+03	5.232082E-16	6.956021E-17
6.430000E+03	5.194327E-16	6.901729E-17
6.440000E+03	5.156647E-16	6.852314E-17
6.450000E+03	5.118940E-16	6.807563E-17
6.460000E+03	5.081322E-16	6.767530E-17
6.470000E+03	5.043692E-16	6.731959E-17
6.480000E+03	5.006056E-16	6.700715E-17
6.490000E+03	4.968421E-16	6.673649E-17
6.500000E+03	4.930793E-16	6.650594E-17
6.510000E+03	4.893126E-16	6.631298E-17
6.520000E+03	4.855478E-16	6.615638E-17
6.530000E+03	4.817854E-16	6.603413E-17
6.540000E+03	4.780312E-16	6.594484E-17
6.550000E+03	4.742907E-16	6.588708E-17
6.560000E+03	4.705643E-16	6.585868E-17
6.570000E+03	4.668575E-16	6.585818E-17
6.580000E+03	4.631705E-16	6.588340E-17
6.590000E+03	4.595087E-16	6.593291E-17
6.600000E+03	4.558723E-16	6.600463E-17
6.610000E+03	4.522714E-16	6.609795E-17
6.620000E+03	4.487013E-16	6.621016E-17
6.630000E+03	4.451670E-16	6.634008E-17
6.640000E+03	4.416686E-16	6.648588E-17
6.650000E+03	4.382111E-16	6.664657E-17
6.660000E+03	4.347945E-16	6.682047E-17
6.670000E+03	4.314238E-16	6.700679E-17
6.680000E+03	4.280988E-16	6.720406E-17
6.690000E+03	4.248147E-16	6.741013E-17
6.700000E+03	4.215812E-16	6.762526E-17
6.710000E+03	4.183981E-16	6.784825E-17
6.720000E+03	4.152654E-16	6.807801E-17
6.730000E+03	4.121830E-16	6.831352E-17
6.740000E+03	4.091507E-16	6.855386E-17
6.750000E+03	4.061732E-16	6.879896E-17
6.760000E+03	4.032502E-16	6.904806E-17
6.770000E+03	4.003769E-16	6.929966E-17
6.780000E+03	3.975625E-16	6.955475E-17
6.790000E+03	3.948022E-16	6.981196E-17
6.800000E+03	3.921003E-16	7.007161E-17
6.810000E+03	3.894473E-16	7.033162E-17
6.820000E+03	3.868569E-16	7.059408E-17
6.830000E+03	3.843196E-16	7.085701E-17
6.840000E+03	3.818398E-16	7.112095E-17
6.850000E+03	3.794171E-16	7.138567E-17
6.860000E+03	3.770512E-16	7.165097E-17
6.870000E+03	3.747418E-16	7.191670E-17
6.880000E+03	3.724932E-16	7.218359E-17
6.890000E+03	3.702960E-16	7.244982E-17
6.900000E+03	3.681544E-16	7.271619E-17
6.910000E+03	3.660725E-16	7.298354E-17
6.920000E+03	3.640455E-16	7.325098E-17
6.930000E+03	3.620776E-16	7.351942E-17
6.940000E+03	3.601594E-16	7.378710E-17
6.950000E+03	3.582995E-16	7.405585E-17
6.960000E+03	3.564975E-16	7.432576E-17
6.970000E+03	3.547443E-16	7.459508E-17
6.980000E+03	3.530482E-16	7.486573E-17
6.990000E+03	3.514090E-16	7.513784E-17
7.000000E+03	3.498175E-16	7.540965E-17
7.010000E+03	3.482820E-16	7.568316E-17
7.020000E+03	3.467980E-16	7.595756E-17
7.030000E+03	3.453693E-16	7.623396E-17
7.040000E+03	3.439869E-16	7.651059E-17
7.050000E+03	3.426593E-16	7.678952E-17
7.060000E+03	3.413816E-16	7.706995E-17
7.070000E+03	3.401537E-16	7.735206E-17
7.080000E+03	3.389751E-16	7.763600E-17
7.090000E+03	3.378456E-16	7.792195E-17
7.100000E+03	3.367607E-16	7.820911E-17
7.110000E+03	3.357242E-16	7.849862E-17
7.120000E+03	3.347360E-16	7.879068E-17
7.130000E+03	3.337958E-16	7.908546E-17
7.140000E+03	3.328990E-16	7.938216E-17
7.150000E+03	3.320498E-16	7.968196E-17
7.160000E+03	3.312436E-16	7.998404E-17
7.170000E+03	3.304803E-16	8.028859E-17
7.180000E+03	3.297596E-16	8.059579E-17
7.190000E+03	3.290815E-16	8.090582E-17
7.200000E+03	3.284458E-16	8.121889E-17
7.210000E+03	3.278481E-16	8.153413E-17
7.220000E+03	3.272926E-16	8.185279E-17
7.230000E+03	3.267750E-16	8.217400E-17
7.240000E+03	3.262993E-16	8.249902E-17
7.250000E+03	3.258571E-16	8.282591E-17
7.260000E+03	3.254569E-16	8.315700E-17
7.270000E+03	3.250860E-16	8.348928E-17
7.280000E+03	3.247528E-16	8.382507E-17
7.290000E+03	3.244574E-16	8.416457E-17
7.300000E+03	3.241872E-16	8.450474E-17
7.310000E+03	3.239548E-16	8.484900E-17
7.320000E+03	3.237479E-16	8.519429E-17
7.330000E+03	3.235707E-16	8.554188E-17
7.340000E+03	3.234191E-16	8.589084E-17
7.350000E+03	3.232933E-16	8.624136E-17
7.360000E+03	3.231851E-16	8.659140E-17
7.370000E+03	3.230989E-16	8.694222E-17
7.380000E+03	3.230307E-16	8.729287E-17
7.390000E+03	3.229723E-16	8.764127E-17
7.400000E+03	3.229240E-16	8.798753E-17
7.410000E+03	3.228859E-16	8.833181E-17
7.420000E+03	3.228499E-16	8.867195E-17
7.430000E+03	3.228162E-16	8.900806E-17
7.440000E+03	3.227851E-16	8.934025E-17
7.450000E+03	3.227608E-16	8.966982E-17
7.460000E+03	3.227396E-16	8.999572E-17
7.470000E+03	3.227342E-16	9.032159E-17
7.480000E+03	3.227364E-16	9.064525E-17
7.490000E+03	3.227591E-16	9.097041E-17
7.500000E+03	3.227985E-16	9.129606E-17
7.510000E+03	3.228633E-16	9.162478E-17
7.520000E+03	3.229496E-16	9.195559E-17
7.530000E+03	3.230621E-16	9.228992E-17
7.540000E+03	3.232011E-16	9.262799E-17
7.550000E+03	3.233755E-16	9.297249E-17
7.560000E+03	3.235774E-16	9.332124E-17
7.570000E+03	3.238157E-16	9.367695E-17
7.580000E+03	3.240868E-16	9.403867E-17
7.590000E+03	3.243954E-16	9.440795E-17
7.600000E+03	3.247420E-16	9.478507E-17
7.610000E+03	3.251275E-16	9.517035E-17
7.620000E+03	3.255524E-16	9.556412E-17
7.630000E+03	3.260173E-16	9.596670E-17
7.640000E+03	3.265275E-16	9.637971E-17
7.650000E+03	3.270835E-16	9.680352E-17
7.660000E+03	3.276819E-16	9.723721E-17
7.670000E+03	3.283236E-16	9.768114E-17
7.680000E+03	3.290180E-16	9.813831E-17
7.690000E+03	3.297618E-16	9.860784E-17
7.700000E+03	3.305516E-16	9.908881E-17
7.710000E+03	3.313927E-16	9.958296E-17
7.720000E+03	3.322861E-16	1.000907E-16
7.730000E+03	3.332375E-16	1.006139E-16
7.740000E+03	3.342390E-16	1.011503E-16
7.750000E+03	3.352962E-16	1.017018E-16
7.760000E+03	3.364148E-16	1.022701E-16
