#wls	flux	fluxerr
1.600000E+03	7.788399E-17	5.717569E-17
1.640000E+03	8.046136E-17	5.866785E-17
1.680000E+03	8.316650E-17	6.021895E-17
1.720000E+03	8.603576E-17	6.185245E-17
1.760000E+03	8.906240E-17	6.356023E-17
1.800000E+03	9.225421E-17	6.534454E-17
1.840000E+03	9.563571E-17	6.721917E-17
1.880000E+03	9.919939E-17	6.917496E-17
1.920000E+03	1.029887E-16	7.123810E-17
1.960000E+03	1.069970E-16	7.339933E-17
2.000000E+03	1.112342E-16	7.566073E-17
2.040000E+03	1.157294E-16	7.803714E-17
2.080000E+03	1.204742E-16	8.051737E-17
2.120000E+03	1.255190E-16	8.312957E-17
2.160000E+03	1.308554E-16	8.586171E-17
2.200000E+03	1.365154E-16	8.872843E-17
2.240000E+03	1.425104E-16	9.173011E-17
2.280000E+03	1.488507E-16	9.486613E-17
2.320000E+03	1.555936E-16	9.816520E-17
2.360000E+03	1.627007E-16	1.015948E-16
2.400000E+03	1.702286E-16	1.051820E-16
2.440000E+03	1.781841E-16	1.089220E-16
2.480000E+03	1.865985E-16	1.128246E-16
2.520000E+03	1.955026E-16	1.168984E-16
2.560000E+03	2.048679E-16	1.211162E-16
2.600000E+03	2.147174E-16	1.254816E-16
2.640000E+03	2.251022E-16	1.300139E-16
2.680000E+03	2.360414E-16	1.347126E-16
2.720000E+03	2.474855E-16	1.395383E-16
2.760000E+03	2.594390E-16	1.444828E-16
2.800000E+03	2.719679E-16	1.495717E-16
2.840000E+03	2.850328E-16	1.547715E-16
2.880000E+03	2.986179E-16	1.600624E-16
2.920000E+03	3.126977E-16	1.654201E-16
2.960000E+03	3.273089E-16	1.708529E-16
3.000000E+03	3.423699E-16	1.763073E-16
3.010000E+03	3.461899E-16	1.776652E-16
3.020000E+03	3.500582E-16	1.790340E-16
3.030000E+03	3.539362E-16	1.803938E-16
3.040000E+03	3.578220E-16	1.817436E-16
3.050000E+03	3.617886E-16	1.831203E-16
3.060000E+03	3.657220E-16	1.844659E-16
3.070000E+03	3.696953E-16	1.858173E-16
3.080000E+03	3.737066E-16	1.871734E-16
3.090000E+03	3.777163E-16	1.885141E-16
3.100000E+03	3.817979E-16	1.898760E-16
3.110000E+03	3.858359E-16	1.912015E-16
3.120000E+03	3.899418E-16	1.925458E-16
3.130000E+03	3.940376E-16	1.938702E-16
3.140000E+03	3.981590E-16	1.951922E-16
3.150000E+03	4.022658E-16	1.964919E-16
3.160000E+03	4.064317E-16	1.978053E-16
3.170000E+03	4.106163E-16	1.991125E-16
3.180000E+03	4.147791E-16	2.003937E-16
3.190000E+03	4.189556E-16	2.016661E-16
3.200000E+03	4.231817E-16	2.029468E-16
3.210000E+03	4.273783E-16	2.041977E-16
3.220000E+03	4.316193E-16	2.054541E-16
3.230000E+03	4.358255E-16	2.066781E-16
3.240000E+03	4.400706E-16	2.079047E-16
3.250000E+03	4.443138E-16	2.091144E-16
3.260000E+03	4.485521E-16	2.103058E-16
3.270000E+03	4.528210E-16	2.114954E-16
3.280000E+03	4.570794E-16	2.126637E-16
3.290000E+03	4.613243E-16	2.138096E-16
3.300000E+03	4.655909E-16	2.149491E-16
3.310000E+03	4.698380E-16	2.160631E-16
3.320000E+03	4.740629E-16	2.171504E-16
3.330000E+03	4.783380E-16	2.182442E-16
3.340000E+03	4.825846E-16	2.193082E-16
3.350000E+03	4.867995E-16	2.203410E-16
3.360000E+03	4.910175E-16	2.213585E-16
3.370000E+03	4.952351E-16	2.223589E-16
3.380000E+03	4.994491E-16	2.233407E-16
3.390000E+03	5.036562E-16	2.243024E-16
3.400000E+03	5.078530E-16	2.252423E-16
3.410000E+03	5.119992E-16	2.261426E-16
3.420000E+03	5.161656E-16	2.270345E-16
3.430000E+03	5.203118E-16	2.279002E-16
3.440000E+03	5.244344E-16	2.287382E-16
3.450000E+03	5.285300E-16	2.295469E-16
3.460000E+03	5.325956E-16	2.303251E-16
3.470000E+03	5.366638E-16	2.310868E-16
3.480000E+03	5.406950E-16	2.318149E-16
3.490000E+03	5.447218E-16	2.325233E-16
3.500000E+03	5.487048E-16	2.331953E-16
3.510000E+03	5.526411E-16	2.338295E-16
3.520000E+03	5.565979E-16	2.344545E-16
3.530000E+03	5.605010E-16	2.350388E-16
3.540000E+03	5.643474E-16	2.355813E-16
3.550000E+03	5.682035E-16	2.361098E-16
3.560000E+03	5.719963E-16	2.365938E-16
3.570000E+03	5.757916E-16	2.370605E-16
3.580000E+03	5.795172E-16	2.374803E-16
3.590000E+03	5.832382E-16	2.378797E-16
3.600000E+03	5.868835E-16	2.382299E-16
3.610000E+03	5.905173E-16	2.385569E-16
3.620000E+03	5.941028E-16	2.388459E-16
3.630000E+03	5.976698E-16	2.391089E-16
3.640000E+03	6.011821E-16	2.393313E-16
3.650000E+03	6.046369E-16	2.395120E-16
3.660000E+03	6.080636E-16	2.396630E-16
3.670000E+03	6.114588E-16	2.397827E-16
3.680000E+03	6.147877E-16	2.398575E-16
3.690000E+03	6.180792E-16	2.398988E-16
3.700000E+03	6.213302E-16	2.399055E-16
3.710000E+03	6.245070E-16	2.398646E-16
3.720000E+03	6.276685E-16	2.397988E-16
3.730000E+03	6.307508E-16	2.396837E-16
3.740000E+03	6.338120E-16	2.395415E-16
3.750000E+03	6.368190E-16	2.393596E-16
3.760000E+03	6.397695E-16	2.391374E-16
3.770000E+03	6.426611E-16	2.388740E-16
3.780000E+03	6.454919E-16	2.385688E-16
3.790000E+03	6.482883E-16	2.382317E-16
3.800000E+03	6.510194E-16	2.378514E-16
3.810000E+03	6.536834E-16	2.374275E-16
3.820000E+03	6.563065E-16	2.369695E-16
3.830000E+03	6.588863E-16	2.364766E-16
3.840000E+03	6.613935E-16	2.359384E-16
3.850000E+03	6.638539E-16	2.353644E-16
3.860000E+03	6.662388E-16	2.347444E-16
3.870000E+03	6.685737E-16	2.340877E-16
3.880000E+03	6.708570E-16	2.333938E-16
3.890000E+03	6.730614E-16	2.326535E-16
3.900000E+03	6.752120E-16	2.318755E-16
3.910000E+03	6.773074E-16	2.310596E-16
3.920000E+03	6.793467E-16	2.302056E-16
3.930000E+03	6.813288E-16	2.293135E-16
3.940000E+03	6.832287E-16	2.283749E-16
3.950000E+03	6.850705E-16	2.273982E-16
3.960000E+03	6.868538E-16	2.263836E-16
3.970000E+03	6.885780E-16	2.253311E-16
3.980000E+03	6.902431E-16	2.242408E-16
3.990000E+03	6.918258E-16	2.231055E-16
4.000000E+03	6.933496E-16	2.219332E-16
4.010000E+03	6.947922E-16	2.207171E-16
4.020000E+03	6.961768E-16	2.194648E-16
4.030000E+03	6.975037E-16	2.181768E-16
4.040000E+03	6.987518E-16	2.168467E-16
4.050000E+03	6.999436E-16	2.154821E-16
4.060000E+03	7.010588E-16	2.140770E-16
4.070000E+03	7.020990E-16	2.126323E-16
4.080000E+03	7.030657E-16	2.111490E-16
4.090000E+03	7.039607E-16	2.096281E-16
4.100000E+03	7.047858E-16	2.080705E-16
4.110000E+03	7.055427E-16	2.064774E-16
4.120000E+03	7.062335E-16	2.048497E-16
4.130000E+03	7.068408E-16	2.031831E-16
4.140000E+03	7.073675E-16	2.014788E-16
4.150000E+03	7.078165E-16	1.997385E-16
4.160000E+03	7.082090E-16	1.979686E-16
4.170000E+03	7.085107E-16	1.961603E-16
4.180000E+03	7.087434E-16	1.943201E-16
4.190000E+03	7.088922E-16	1.924448E-16
4.200000E+03	7.089607E-16	1.905362E-16
4.210000E+03	7.089700E-16	1.886005E-16
4.220000E+03	7.088888E-16	1.866302E-16
4.230000E+03	7.087216E-16	1.846274E-16
4.240000E+03	7.084725E-16	1.825942E-16
4.250000E+03	7.081624E-16	1.805366E-16
4.260000E+03	7.077623E-16	1.784481E-16
4.270000E+03	7.072772E-16	1.763312E-16
4.280000E+03	7.067117E-16	1.741879E-16
4.290000E+03	7.060707E-16	1.720204E-16
4.300000E+03	7.053587E-16	1.698310E-16
4.310000E+03	7.045653E-16	1.676180E-16
4.320000E+03	7.036804E-16	1.653804E-16
4.330000E+03	7.027246E-16	1.631242E-16
4.340000E+03	7.016881E-16	1.608483E-16
4.350000E+03	7.005764E-16	1.585551E-16
4.360000E+03	6.993947E-16	1.562473E-16
4.370000E+03	6.981201E-16	1.539210E-16
4.380000E+03	6.967865E-16	1.515851E-16
4.390000E+03	6.953715E-16	1.492361E-16
4.400000E+03	6.938809E-16	1.468768E-16
4.410000E+03	6.923339E-16	1.445128E-16
4.420000E+03	6.907091E-16	1.421410E-16
4.430000E+03	6.890125E-16	1.397645E-16
4.440000E+03	6.872628E-16	1.373886E-16
4.450000E+03	6.854397E-16	1.350110E-16
4.460000E+03	6.835491E-16	1.326348E-16
4.470000E+03	6.816093E-16	1.302652E-16
4.480000E+03	6.796131E-16	1.279029E-16
4.490000E+03	6.775661E-16	1.255507E-16
4.500000E+03	6.754616E-16	1.232095E-16
4.510000E+03	6.733052E-16	1.208824E-16
4.520000E+03	6.711139E-16	1.185748E-16
4.530000E+03	6.688695E-16	1.162855E-16
4.540000E+03	6.665889E-16	1.140199E-16
4.550000E+03	6.642771E-16	1.117812E-16
4.560000E+03	6.619163E-16	1.095690E-16
4.570000E+03	6.595342E-16	1.073905E-16
4.580000E+03	6.571242E-16	1.052474E-16
4.590000E+03	6.546909E-16	1.031430E-16
4.600000E+03	6.522389E-16	1.010812E-16
4.610000E+03	6.497725E-16	9.906536E-17
4.620000E+03	6.472854E-16	9.709780E-17
4.630000E+03	6.447821E-16	9.518234E-17
4.640000E+03	6.422770E-16	9.332443E-17
4.650000E+03	6.397738E-16	9.152789E-17
4.660000E+03	6.372661E-16	8.979522E-17
4.670000E+03	6.347576E-16	8.813040E-17
4.680000E+03	6.322619E-16	8.653880E-17
4.690000E+03	6.297723E-16	8.502296E-17
4.700000E+03	6.273019E-16	8.358807E-17
4.710000E+03	6.248342E-16	8.223531E-17
4.720000E+03	6.224012E-16	8.097210E-17
4.730000E+03	6.199767E-16	7.979808E-17
4.740000E+03	6.175917E-16	7.872004E-17
4.750000E+03	6.152295E-16	7.773833E-17
4.760000E+03	6.128925E-16	7.685534E-17
4.770000E+03	6.105915E-16	7.607412E-17
4.780000E+03	6.083370E-16	7.539707E-17
4.790000E+03	6.061121E-16	7.482261E-17
4.800000E+03	6.039267E-16	7.435186E-17
4.810000E+03	6.017812E-16	7.398411E-17
4.820000E+03	5.996847E-16	7.371898E-17
4.830000E+03	5.976281E-16	7.355322E-17
4.840000E+03	5.956110E-16	7.348402E-17
4.850000E+03	5.936497E-16	7.351009E-17
4.860000E+03	5.917260E-16	7.362535E-17
4.870000E+03	5.898557E-16	7.382758E-17
4.880000E+03	5.880203E-16	7.410996E-17
4.890000E+03	5.862350E-16	7.446969E-17
4.900000E+03	5.844898E-16	7.490063E-17
4.910000E+03	5.827911E-16	7.539869E-17
4.920000E+03	5.811369E-16	7.595870E-17
4.930000E+03	5.795335E-16	7.657664E-17
4.940000E+03	5.779625E-16	7.724531E-17
4.950000E+03	5.764300E-16	7.796091E-17
4.960000E+03	5.749421E-16	7.871978E-17
4.970000E+03	5.734967E-16	7.951737E-17
4.980000E+03	5.720916E-16	8.034935E-17
4.990000E+03	5.707247E-16	8.121155E-17
5.000000E+03	5.693940E-16	8.210004E-17
5.010000E+03	5.680974E-16	8.301108E-17
5.020000E+03	5.668330E-16	8.394112E-17
5.030000E+03	5.656142E-16	8.488917E-17
5.040000E+03	5.644156E-16	8.584861E-17
5.050000E+03	5.632587E-16	8.682003E-17
5.060000E+03	5.621336E-16	8.779950E-17
5.070000E+03	5.610306E-16	8.878324E-17
5.080000E+03	5.599633E-16	8.977122E-17
5.090000E+03	5.589219E-16	9.075999E-17
5.100000E+03	5.579124E-16	9.174865E-17
5.110000E+03	5.569176E-16	9.273272E-17
5.120000E+03	5.559508E-16	9.371283E-17
5.130000E+03	5.550103E-16	9.468724E-17
5.140000E+03	5.540869E-16	9.565303E-17
5.150000E+03	5.531862E-16	9.660995E-17
5.160000E+03	5.522991E-16	9.755525E-17
5.170000E+03	5.514240E-16	9.848755E-17
5.180000E+03	5.505741E-16	9.940820E-17
5.190000E+03	5.497330E-16	1.003134E-16
5.200000E+03	5.488993E-16	1.012019E-16
5.210000E+03	5.480787E-16	1.020740E-16
5.220000E+03	5.472625E-16	1.029273E-16
5.230000E+03	5.464564E-16	1.037623E-16
5.240000E+03	5.456520E-16	1.045767E-16
5.250000E+03	5.448550E-16	1.053709E-16
5.260000E+03	5.440569E-16	1.061428E-16
5.270000E+03	5.432565E-16	1.068916E-16
5.280000E+03	5.424525E-16	1.076165E-16
5.290000E+03	5.416437E-16	1.083169E-16
5.300000E+03	5.408291E-16	1.089921E-16
5.310000E+03	5.400073E-16	1.096415E-16
5.320000E+03	5.391775E-16	1.102644E-16
5.330000E+03	5.383314E-16	1.108590E-16
5.340000E+03	5.374751E-16	1.114260E-16
5.350000E+03	5.366078E-16	1.119650E-16
5.360000E+03	5.357213E-16	1.124742E-16
5.370000E+03	5.348149E-16	1.129530E-16
5.380000E+03	5.338877E-16	1.134010E-16
5.390000E+03	5.329458E-16	1.138194E-16
5.400000E+03	5.319747E-16	1.142048E-16
5.410000E+03	5.309874E-16	1.145600E-16
5.420000E+03	5.299695E-16	1.148815E-16
5.430000E+03	5.289271E-16	1.151707E-16
5.440000E+03	5.278665E-16	1.154288E-16
5.450000E+03	5.267734E-16	1.156527E-16
5.460000E+03	5.256473E-16	1.158420E-16
5.470000E+03	5.245013E-16	1.159998E-16
5.480000E+03	5.233213E-16	1.161229E-16
5.490000E+03	5.221135E-16	1.162126E-16
5.500000E+03	5.208777E-16	1.162689E-16
5.510000E+03	5.196133E-16	1.162918E-16
5.520000E+03	5.183201E-16	1.162812E-16
5.530000E+03	5.169976E-16	1.162372E-16
5.540000E+03	5.156455E-16	1.161598E-16
5.550000E+03	5.142635E-16	1.160491E-16
5.560000E+03	5.128515E-16	1.159050E-16
5.570000E+03	5.114157E-16	1.157294E-16
5.580000E+03	5.099559E-16	1.155222E-16
5.590000E+03	5.084652E-16	1.152821E-16
5.600000E+03	5.069502E-16	1.150109E-16
5.610000E+03	5.054040E-16	1.147071E-16
5.620000E+03	5.038396E-16	1.143741E-16
5.630000E+03	5.022503E-16	1.140104E-16
5.640000E+03	5.006425E-16	1.136180E-16
5.650000E+03	4.990095E-16	1.131955E-16
5.660000E+03	4.973578E-16	1.127448E-16
5.670000E+03	4.956807E-16	1.122646E-16
5.680000E+03	4.939911E-16	1.117582E-16
5.690000E+03	4.922825E-16	1.112245E-16
5.700000E+03	4.905548E-16	1.106639E-16
5.710000E+03	4.888079E-16	1.100766E-16
5.720000E+03	4.870482E-16	1.094646E-16
5.730000E+03	4.852756E-16	1.088281E-16
5.740000E+03	4.834838E-16	1.081663E-16
5.750000E+03	4.816790E-16	1.074808E-16
5.760000E+03	4.798613E-16	1.067722E-16
5.770000E+03	4.780370E-16	1.060423E-16
5.780000E+03	4.761933E-16	1.052888E-16
5.790000E+03	4.743430E-16	1.045148E-16
5.800000E+03	4.724796E-16	1.037196E-16
5.810000E+03	4.706034E-16	1.029035E-16
5.820000E+03	4.687205E-16	1.020685E-16
5.830000E+03	4.668247E-16	1.012138E-16
5.840000E+03	4.649223E-16	1.003411E-16
5.850000E+03	4.630132E-16	9.945113E-17
5.860000E+03	4.610915E-16	9.854300E-17
5.870000E+03	4.591571E-16	9.761734E-17
5.880000E+03	4.572164E-16	9.667605E-17
5.890000E+03	4.552693E-16	9.571972E-17
5.900000E+03	4.533099E-16	9.474770E-17
5.910000E+03	4.513443E-16	9.376190E-17
5.920000E+03	4.493667E-16	9.276173E-17
5.930000E+03	4.473831E-16	9.174910E-17
5.940000E+03	4.453878E-16	9.072348E-17
5.950000E+03	4.433809E-16	8.968560E-17
5.960000E+03	4.413686E-16	8.863741E-17
5.970000E+03	4.393509E-16	8.757963E-17
5.980000E+03	4.373163E-16	8.651071E-17
5.990000E+03	4.352768E-16	8.543378E-17
6.000000E+03	4.332210E-16	8.434738E-17
6.010000E+03	4.311606E-16	8.325464E-17
6.020000E+03	4.290903E-16	8.215530E-17
6.030000E+03	4.270102E-16	8.105027E-17
6.040000E+03	4.249149E-16	7.993940E-17
6.050000E+03	4.228162E-16	7.882582E-17
6.060000E+03	4.207031E-16	7.770835E-17
6.070000E+03	4.185758E-16	7.658806E-17
6.080000E+03	4.164405E-16	7.546705E-17
6.090000E+03	4.142975E-16	7.434638E-17
6.100000E+03	4.121417E-16	7.322615E-17
6.110000E+03	4.099790E-16	7.210851E-17
6.120000E+03	4.077988E-16	7.099268E-17
6.130000E+03	4.056127E-16	6.988184E-17
6.140000E+03	4.034211E-16	6.877721E-17
6.150000E+03	4.012136E-16	6.767819E-17
6.160000E+03	3.989963E-16	6.658705E-17
6.170000E+03	3.967750E-16	6.550606E-17
6.180000E+03	3.945396E-16	6.443478E-17
6.190000E+03	3.922961E-16	6.337556E-17
6.200000E+03	3.900451E-16	6.232984E-17
6.210000E+03	3.877872E-16	6.129910E-17
6.220000E+03	3.855232E-16	6.028485E-17
6.230000E+03	3.832536E-16	5.928862E-17
6.240000E+03	3.809792E-16	5.831197E-17
6.250000E+03	3.786954E-16	5.735566E-17
6.260000E+03	3.764082E-16	5.642212E-17
6.270000E+03	3.741184E-16	5.551292E-17
6.280000E+03	3.718267E-16	5.462967E-17
6.290000E+03	3.695339E-16	5.377397E-17
6.300000E+03	3.672356E-16	5.294664E-17
6.310000E+03	3.649429E-16	5.215073E-17
6.320000E+03	3.626462E-16	5.138629E-17
6.330000E+03	3.603517E-16	5.065553E-17
6.340000E+03	3.580649E-16	4.996057E-17
6.350000E+03	3.557767E-16	4.930131E-17
6.360000E+03	3.534928E-16	4.867969E-17
6.370000E+03	3.512191E-16	4.809754E-17
6.380000E+03	3.489461E-16	4.755445E-17
6.390000E+03	3.466846E-16	4.705262E-17
6.400000E+03	3.444302E-16	4.659204E-17
6.410000E+03	3.421834E-16	4.617316E-17
6.420000E+03	3.399497E-16	4.579691E-17
6.430000E+03	3.377246E-16	4.546264E-17
6.440000E+03	3.355132E-16	4.517080E-17
6.450000E+03	3.333109E-16	4.492030E-17
6.460000E+03	3.311227E-16	4.471109E-17
6.470000E+03	3.289486E-16	4.454228E-17
6.480000E+03	3.267885E-16	4.441276E-17
6.490000E+03	3.246424E-16	4.432125E-17
6.500000E+03	3.225101E-16	4.426630E-17
6.510000E+03	3.203914E-16	4.424634E-17
6.520000E+03	3.182861E-16	4.425969E-17
6.530000E+03	3.161986E-16	4.430526E-17
6.540000E+03	3.141288E-16	4.438125E-17
6.550000E+03	3.120717E-16	4.448515E-17
6.560000E+03	3.100316E-16	4.461577E-17
6.570000E+03	3.080039E-16	4.477061E-17
6.580000E+03	3.059975E-16	4.494916E-17
6.590000E+03	3.040075E-16	4.514896E-17
6.600000E+03	3.020337E-16	4.536825E-17
6.610000E+03	3.000761E-16	4.560533E-17
6.620000E+03	2.981389E-16	4.585923E-17
6.630000E+03	2.962220E-16	4.612838E-17
6.640000E+03	2.943208E-16	4.641059E-17
6.650000E+03	2.924396E-16	4.670509E-17
6.660000E+03	2.905783E-16	4.701054E-17
6.670000E+03	2.887368E-16	4.732565E-17
6.680000E+03	2.869194E-16	4.764992E-17
6.690000E+03	2.851172E-16	4.798078E-17
6.700000E+03	2.833434E-16	4.831935E-17
6.710000E+03	2.815846E-16	4.866243E-17
6.720000E+03	2.798540E-16	4.901134E-17
6.730000E+03	2.781427E-16	4.936373E-17
6.740000E+03	2.764552E-16	4.971957E-17
6.750000E+03	2.747912E-16	5.007815E-17
6.760000E+03	2.731509E-16	5.043881E-17
6.770000E+03	2.715340E-16	5.080094E-17
6.780000E+03	2.699408E-16	5.116401E-17
6.790000E+03	2.683752E-16	5.152831E-17
6.800000E+03	2.668331E-16	5.189261E-17
6.810000E+03	2.653187E-16	5.225732E-17
6.820000E+03	2.638277E-16	5.262127E-17
6.830000E+03	2.623642E-16	5.298498E-17
6.840000E+03	2.609243E-16	5.334735E-17
6.850000E+03	2.595118E-16	5.370896E-17
6.860000E+03	2.581270E-16	5.406963E-17
6.870000E+03	2.567655E-16	5.442833E-17
6.880000E+03	2.554315E-16	5.478577E-17
6.890000E+03	2.541291E-16	5.514271E-17
6.900000E+03	2.528502E-16	5.549734E-17
6.910000E+03	2.515986E-16	5.585045E-17
6.920000E+03	2.503706E-16	5.620111E-17
6.930000E+03	2.491740E-16	5.655108E-17
6.940000E+03	2.480048E-16	5.689949E-17
6.950000E+03	2.468631E-16	5.724633E-17
6.960000E+03	2.457448E-16	5.759071E-17
6.970000E+03	2.446580E-16	5.793454E-17
6.980000E+03	2.435946E-16	5.827600E-17
6.990000E+03	2.425586E-16	5.861609E-17
7.000000E+03	2.415502E-16	5.895491E-17
7.010000E+03	2.405691E-16	5.929254E-17
7.020000E+03	2.396116E-16	5.962812E-17
7.030000E+03	2.386816E-16	5.996273E-17
7.040000E+03	2.377791E-16	6.029647E-17
7.050000E+03	2.369041E-16	6.062949E-17
7.060000E+03	2.360527E-16	6.096092E-17
7.070000E+03	2.352251E-16	6.129090E-17
7.080000E+03	2.344249E-16	6.162055E-17
7.090000E+03	2.336486E-16	6.194902E-17
7.100000E+03	2.328961E-16	6.227645E-17
7.110000E+03	2.321712E-16	6.260402E-17
7.120000E+03	2.314664E-16	6.292983E-17
7.130000E+03	2.307893E-16	6.325609E-17
7.140000E+03	2.301325E-16	6.358089E-17
7.150000E+03	2.294997E-16	6.390544E-17
7.160000E+03	2.288911E-16	6.422989E-17
7.170000E+03	2.283028E-16	6.455335E-17
7.180000E+03	2.277388E-16	6.487705E-17
7.190000E+03	2.271954E-16	6.520008E-17
7.200000E+03	2.266727E-16	6.552261E-17
7.210000E+03	2.261706E-16	6.584480E-17
7.220000E+03	2.256895E-16	6.616682E-17
7.230000E+03	2.252293E-16	6.648882E-17
7.240000E+03	2.247901E-16	6.681098E-17
7.250000E+03	2.243683E-16	6.713237E-17
7.260000E+03	2.239640E-16	6.745313E-17
7.270000E+03	2.235811E-16	6.777454E-17
7.280000E+03	2.232160E-16	6.809566E-17
7.290000E+03	2.228687E-16	6.841664E-17
7.300000E+03	2.225395E-16	6.873764E-17
7.310000E+03	2.222283E-16	6.905883E-17
7.320000E+03	2.219354E-16	6.938038E-17
7.330000E+03	2.216573E-16	6.970128E-17
7.340000E+03	2.213939E-16	7.002170E-17
7.350000E+03	2.211493E-16	7.034294E-17
7.360000E+03	2.209197E-16	7.066401E-17
7.370000E+03	2.207091E-16	7.098623E-17
7.380000E+03	2.205102E-16	7.130741E-17
7.390000E+03	2.203306E-16	7.163006E-17
7.400000E+03	2.201629E-16	7.195197E-17
7.410000E+03	2.200149E-16	7.227567E-17
7.420000E+03	2.198791E-16	7.259893E-17
7.430000E+03	2.197595E-16	7.292310E-17
7.440000E+03	2.196526E-16	7.324712E-17
7.450000E+03	2.195657E-16	7.357358E-17
7.460000E+03	2.194919E-16	7.390020E-17
7.470000E+03	2.194312E-16	7.422711E-17
7.480000E+03	2.193911E-16	7.455695E-17
7.490000E+03	2.193644E-16	7.488741E-17
7.500000E+03	2.193514E-16	7.521861E-17
7.510000E+03	2.193558E-16	7.555197E-17
7.520000E+03	2.193778E-16	7.588765E-17
7.530000E+03	2.194140E-16	7.622455E-17
7.540000E+03	2.194681E-16	7.656409E-17
7.550000E+03	2.195366E-16	7.690514E-17
7.560000E+03	2.196235E-16	7.724915E-17
7.570000E+03	2.197289E-16	7.759629E-17
7.580000E+03	2.198530E-16	7.794672E-17
7.590000E+03	2.199923E-16	7.829929E-17
7.600000E+03	2.201506E-16	7.865548E-17
7.610000E+03	2.203245E-16	7.901412E-17
7.620000E+03	2.205215E-16	7.937805E-17
7.630000E+03	2.207345E-16	7.974474E-17
7.640000E+03	2.209673E-16	8.011572E-17
7.650000E+03	2.212201E-16	8.049115E-17
7.660000E+03	2.214933E-16	8.087121E-17
7.670000E+03	2.217869E-16	8.125605E-17
7.680000E+03	2.220974E-16	8.164447E-17
7.690000E+03	2.224325E-16	8.203942E-17
7.700000E+03	2.227850E-16	8.243826E-17
7.710000E+03	2.231626E-16	8.284399E-17
7.720000E+03	2.235580E-16	8.325394E-17
7.730000E+03	2.239751E-16	8.366971E-17
7.740000E+03	2.244141E-16	8.409146E-17
7.750000E+03	2.248754E-16	8.451936E-17
7.760000E+03	2.253591E-16	8.495359E-17
