#wls	flux	fluxerr
1.600000E+03	7.286244E-17	5.315084E-17
1.640000E+03	7.525127E-17	5.450796E-17
1.680000E+03	7.775978E-17	5.591898E-17
1.720000E+03	8.042232E-17	5.740584E-17
1.760000E+03	8.323279E-17	5.896103E-17
1.800000E+03	8.619877E-17	6.058672E-17
1.840000E+03	8.934363E-17	6.229588E-17
1.880000E+03	9.267679E-17	6.409122E-17
1.920000E+03	9.620788E-17	6.597531E-17
1.960000E+03	9.994670E-17	6.795055E-17
2.000000E+03	1.039208E-16	7.003100E-17
2.040000E+03	1.081236E-16	7.220717E-17
2.080000E+03	1.125837E-16	7.449300E-17
2.120000E+03	1.173125E-16	7.689037E-17
2.160000E+03	1.223412E-16	7.941362E-17
2.200000E+03	1.276616E-16	8.205097E-17
2.240000E+03	1.333264E-16	8.482955E-17
2.280000E+03	1.393265E-16	8.773616E-17
2.320000E+03	1.456946E-16	9.078379E-17
2.360000E+03	1.524645E-16	9.398533E-17
2.400000E+03	1.596227E-16	9.732377E-17
2.440000E+03	1.672252E-16	1.008245E-16
2.480000E+03	1.752541E-16	1.044673E-16
2.520000E+03	1.837643E-16	1.082752E-16
2.560000E+03	1.927859E-16	1.122556E-16
2.600000E+03	2.022904E-16	1.163811E-16
2.640000E+03	2.122986E-16	1.206534E-16
2.680000E+03	2.228876E-16	1.251052E-16
2.720000E+03	2.339831E-16	1.296832E-16
2.760000E+03	2.456528E-16	1.344138E-16
2.800000E+03	2.578676E-16	1.392697E-16
2.840000E+03	2.706860E-16	1.442707E-16
2.880000E+03	2.839952E-16	1.493452E-16
2.920000E+03	2.979033E-16	1.545394E-16
2.960000E+03	3.123085E-16	1.597888E-16
3.000000E+03	3.271971E-16	1.650766E-16
3.010000E+03	3.310182E-16	1.664151E-16
3.020000E+03	3.348510E-16	1.677459E-16
3.030000E+03	3.386937E-16	1.690680E-16
3.040000E+03	3.425801E-16	1.703982E-16
3.050000E+03	3.465087E-16	1.717354E-16
3.060000E+03	3.504418E-16	1.730608E-16
3.070000E+03	3.544132E-16	1.743911E-16
3.080000E+03	3.584213E-16	1.757252E-16
3.090000E+03	3.624278E-16	1.770444E-16
3.100000E+03	3.664668E-16	1.783650E-16
3.110000E+03	3.705362E-16	1.796860E-16
3.120000E+03	3.745976E-16	1.809886E-16
3.130000E+03	3.787213E-16	1.823067E-16
3.140000E+03	3.828324E-16	1.836040E-16
3.150000E+03	3.869649E-16	1.848968E-16
3.160000E+03	3.911529E-16	1.862013E-16
3.170000E+03	3.953209E-16	1.874812E-16
3.180000E+03	3.995029E-16	1.887529E-16
3.190000E+03	4.037330E-16	1.900321E-16
3.200000E+03	4.079353E-16	1.912830E-16
3.210000E+03	4.121804E-16	1.925387E-16
3.220000E+03	4.164288E-16	1.937807E-16
3.230000E+03	4.206779E-16	1.950076E-16
3.240000E+03	4.249613E-16	1.962348E-16
3.250000E+03	4.292396E-16	1.974442E-16
3.260000E+03	4.335098E-16	1.986341E-16
3.270000E+03	4.378055E-16	1.998201E-16
3.280000E+03	4.421236E-16	2.010004E-16
3.290000E+03	4.464244E-16	2.021571E-16
3.300000E+03	4.507049E-16	2.032886E-16
3.310000E+03	4.549984E-16	2.044100E-16
3.320000E+03	4.593015E-16	2.055197E-16
3.330000E+03	4.636110E-16	2.066161E-16
3.340000E+03	4.679234E-16	2.076976E-16
3.350000E+03	4.721993E-16	2.087466E-16
3.360000E+03	4.765075E-16	2.097936E-16
3.370000E+03	4.807724E-16	2.108051E-16
3.380000E+03	4.850626E-16	2.118112E-16
3.390000E+03	4.893027E-16	2.127790E-16
3.400000E+03	4.935608E-16	2.137380E-16
3.410000E+03	4.977976E-16	2.146712E-16
3.420000E+03	5.020450E-16	2.155921E-16
3.430000E+03	5.062638E-16	2.164840E-16
3.440000E+03	5.104505E-16	2.173453E-16
3.450000E+03	5.146367E-16	2.181895E-16
3.460000E+03	5.187836E-16	2.190001E-16
3.470000E+03	5.229225E-16	2.197903E-16
3.480000E+03	5.270495E-16	2.205583E-16
3.490000E+03	5.311607E-16	2.213026E-16
3.500000E+03	5.352182E-16	2.220073E-16
3.510000E+03	5.392526E-16	2.226852E-16
3.520000E+03	5.432940E-16	2.233486E-16
3.530000E+03	5.472710E-16	2.239680E-16
3.540000E+03	5.512471E-16	2.245697E-16
3.550000E+03	5.551850E-16	2.251383E-16
3.560000E+03	5.590812E-16	2.256723E-16
3.570000E+03	5.629648E-16	2.261836E-16
3.580000E+03	5.667993E-16	2.266575E-16
3.590000E+03	5.705813E-16	2.270926E-16
3.600000E+03	5.743397E-16	2.275005E-16
3.610000E+03	5.780704E-16	2.278796E-16
3.620000E+03	5.817699E-16	2.282284E-16
3.630000E+03	5.854029E-16	2.285331E-16
3.640000E+03	5.890289E-16	2.288170E-16
3.650000E+03	5.925817E-16	2.290544E-16
3.660000E+03	5.961200E-16	2.292680E-16
3.670000E+03	5.995790E-16	2.294328E-16
3.680000E+03	6.030164E-16	2.295712E-16
3.690000E+03	6.064284E-16	2.296814E-16
3.700000E+03	6.097815E-16	2.297510E-16
3.710000E+03	6.130730E-16	2.297789E-16
3.720000E+03	6.163292E-16	2.297750E-16
3.730000E+03	6.195178E-16	2.297275E-16
3.740000E+03	6.226649E-16	2.296460E-16
3.750000E+03	6.257673E-16	2.295295E-16
3.760000E+03	6.288221E-16	2.293768E-16
3.770000E+03	6.318264E-16	2.291869E-16
3.780000E+03	6.347773E-16	2.289590E-16
3.790000E+03	6.376725E-16	2.286922E-16
3.800000E+03	6.405093E-16	2.283856E-16
3.810000E+03	6.432855E-16	2.280386E-16
3.820000E+03	6.460252E-16	2.276599E-16
3.830000E+03	6.486996E-16	2.272393E-16
3.840000E+03	6.513326E-16	2.267853E-16
3.850000E+03	6.538708E-16	2.262794E-16
3.860000E+03	6.563889E-16	2.257476E-16
3.870000E+03	6.588341E-16	2.251720E-16
3.880000E+03	6.612299E-16	2.245605E-16
3.890000E+03	6.635500E-16	2.239044E-16
3.900000E+03	6.658175E-16	2.232118E-16
3.910000E+03	6.680308E-16	2.224822E-16
3.920000E+03	6.701885E-16	2.217152E-16
3.930000E+03	6.722662E-16	2.209030E-16
3.940000E+03	6.742865E-16	2.200533E-16
3.950000E+03	6.762483E-16	2.191659E-16
3.960000E+03	6.781510E-16	2.182407E-16
3.970000E+03	6.799937E-16	2.172777E-16
3.980000E+03	6.817543E-16	2.162700E-16
3.990000E+03	6.834546E-16	2.152250E-16
4.000000E+03	6.850945E-16	2.141427E-16
4.010000E+03	6.866738E-16	2.130234E-16
4.020000E+03	6.881926E-16	2.118673E-16
4.030000E+03	6.896306E-16	2.106685E-16
4.040000E+03	6.910092E-16	2.094338E-16
4.050000E+03	6.923087E-16	2.081578E-16
4.060000E+03	6.935306E-16	2.068411E-16
4.070000E+03	6.946957E-16	2.054904E-16
4.080000E+03	6.958047E-16	2.041063E-16
4.090000E+03	6.968207E-16	2.026782E-16
4.100000E+03	6.977649E-16	2.012128E-16
4.110000E+03	6.986391E-16	1.997112E-16
4.120000E+03	6.994451E-16	1.981743E-16
4.130000E+03	7.001671E-16	1.965981E-16
4.140000E+03	7.008255E-16	1.949889E-16
4.150000E+03	7.014049E-16	1.933429E-16
4.160000E+03	7.018911E-16	1.916569E-16
4.170000E+03	7.023215E-16	1.899416E-16
4.180000E+03	7.026650E-16	1.881892E-16
4.190000E+03	7.029252E-16	1.864014E-16
4.200000E+03	7.030895E-16	1.845756E-16
4.210000E+03	7.031944E-16	1.827222E-16
4.220000E+03	7.032112E-16	1.808343E-16
4.230000E+03	7.031442E-16	1.789140E-16
4.240000E+03	7.029978E-16	1.769630E-16
4.250000E+03	7.027610E-16	1.749796E-16
4.260000E+03	7.024387E-16	1.729658E-16
4.270000E+03	7.020209E-16	1.709203E-16
4.280000E+03	7.015275E-16	1.688488E-16
4.290000E+03	7.009488E-16	1.667500E-16
4.300000E+03	7.002901E-16	1.646261E-16
4.310000E+03	6.995284E-16	1.624729E-16
4.320000E+03	6.986975E-16	1.602994E-16
4.330000E+03	6.977616E-16	1.580986E-16
4.340000E+03	6.967539E-16	1.558791E-16
4.350000E+03	6.956533E-16	1.536376E-16
4.360000E+03	6.944659E-16	1.513766E-16
4.370000E+03	6.931978E-16	1.490990E-16
4.380000E+03	6.918423E-16	1.468045E-16
4.390000E+03	6.904056E-16	1.444961E-16
4.400000E+03	6.888814E-16	1.421738E-16
4.410000E+03	6.872763E-16	1.398407E-16
4.420000E+03	6.855965E-16	1.374995E-16
4.430000E+03	6.838362E-16	1.351506E-16
4.440000E+03	6.820136E-16	1.327995E-16
4.450000E+03	6.800996E-16	1.304420E-16
4.460000E+03	6.781241E-16	1.280859E-16
4.470000E+03	6.760816E-16	1.257319E-16
4.480000E+03	6.739782E-16	1.233829E-16
4.490000E+03	6.717977E-16	1.210381E-16
4.500000E+03	6.695685E-16	1.187046E-16
4.510000E+03	6.672854E-16	1.163836E-16
4.520000E+03	6.649435E-16	1.140764E-16
4.530000E+03	6.625486E-16	1.117862E-16
4.540000E+03	6.601170E-16	1.095181E-16
4.550000E+03	6.576333E-16	1.072721E-16
4.560000E+03	6.551133E-16	1.050531E-16
4.570000E+03	6.525623E-16	1.028647E-16
4.580000E+03	6.499753E-16	1.007088E-16
4.590000E+03	6.473574E-16	9.858896E-17
4.600000E+03	6.447137E-16	9.650892E-17
4.610000E+03	6.420585E-16	9.447385E-17
4.620000E+03	6.393866E-16	9.248609E-17
4.630000E+03	6.366932E-16	9.054818E-17
4.640000E+03	6.340013E-16	8.866683E-17
4.650000E+03	6.312964E-16	8.684342E-17
4.660000E+03	6.285919E-16	8.508339E-17
4.670000E+03	6.258916E-16	8.339090E-17
4.680000E+03	6.231992E-16	8.177013E-17
4.690000E+03	6.205093E-16	8.022417E-17
4.700000E+03	6.178432E-16	7.875952E-17
4.710000E+03	6.151865E-16	7.737811E-17
4.720000E+03	6.125597E-16	7.608623E-17
4.730000E+03	6.099486E-16	7.488568E-17
4.740000E+03	6.073732E-16	7.378235E-17
4.750000E+03	6.048274E-16	7.277871E-17
4.760000E+03	6.023139E-16	7.187793E-17
4.770000E+03	5.998350E-16	7.108275E-17
4.780000E+03	5.974091E-16	7.039727E-17
4.790000E+03	5.950212E-16	6.982097E-17
4.800000E+03	5.926808E-16	6.935533E-17
4.810000E+03	5.903884E-16	6.899985E-17
4.820000E+03	5.881440E-16	6.875286E-17
4.830000E+03	5.859547E-16	6.861253E-17
4.840000E+03	5.838116E-16	6.857418E-17
4.850000E+03	5.817209E-16	6.863425E-17
4.860000E+03	5.796885E-16	6.878859E-17
4.870000E+03	5.776967E-16	6.902994E-17
4.880000E+03	5.757590E-16	6.935445E-17
4.890000E+03	5.738730E-16	6.975634E-17
4.900000E+03	5.720363E-16	7.022977E-17
4.910000E+03	5.702466E-16	7.076896E-17
4.920000E+03	5.685091E-16	7.136916E-17
4.930000E+03	5.668139E-16	7.202390E-17
4.940000E+03	5.651661E-16	7.272877E-17
4.950000E+03	5.635707E-16	7.347957E-17
4.960000E+03	5.620106E-16	7.426949E-17
4.970000E+03	5.605053E-16	7.509672E-17
4.980000E+03	5.590380E-16	7.595493E-17
4.990000E+03	5.576135E-16	7.684091E-17
5.000000E+03	5.562297E-16	7.775071E-17
5.010000E+03	5.548912E-16	7.868166E-17
5.020000E+03	5.535887E-16	7.962930E-17
5.030000E+03	5.523342E-16	8.059242E-17
5.040000E+03	5.511111E-16	8.156597E-17
5.050000E+03	5.499245E-16	8.254815E-17
5.060000E+03	5.487722E-16	8.353633E-17
5.070000E+03	5.476589E-16	8.452912E-17
5.080000E+03	5.465825E-16	8.552425E-17
5.090000E+03	5.455340E-16	8.651852E-17
5.100000E+03	5.445115E-16	8.750991E-17
5.110000E+03	5.435266E-16	8.849877E-17
5.120000E+03	5.425637E-16	8.948116E-17
5.130000E+03	5.416345E-16	9.045770E-17
5.140000E+03	5.407234E-16	9.142461E-17
5.150000E+03	5.398355E-16	9.238160E-17
5.160000E+03	5.389755E-16	9.332849E-17
5.170000E+03	5.381285E-16	9.426171E-17
5.180000E+03	5.373058E-16	9.518242E-17
5.190000E+03	5.364993E-16	9.608835E-17
5.200000E+03	5.357006E-16	9.697724E-17
5.210000E+03	5.349214E-16	9.785050E-17
5.220000E+03	5.341468E-16	9.870479E-17
5.230000E+03	5.333886E-16	9.954165E-17
5.240000E+03	5.326321E-16	1.003578E-16
5.250000E+03	5.318759E-16	1.011525E-16
5.260000E+03	5.311316E-16	1.019273E-16
5.270000E+03	5.303785E-16	1.026779E-16
5.280000E+03	5.296282E-16	1.034062E-16
5.290000E+03	5.288729E-16	1.041100E-16
5.300000E+03	5.281180E-16	1.047903E-16
5.310000E+03	5.273493E-16	1.054437E-16
5.320000E+03	5.265658E-16	1.060698E-16
5.330000E+03	5.257792E-16	1.066707E-16
5.340000E+03	5.249694E-16	1.072418E-16
5.350000E+03	5.241481E-16	1.077854E-16
5.360000E+03	5.233080E-16	1.082998E-16
5.370000E+03	5.224483E-16	1.087845E-16
5.380000E+03	5.215618E-16	1.092378E-16
5.390000E+03	5.206604E-16	1.096621E-16
5.400000E+03	5.197243E-16	1.100529E-16
5.410000E+03	5.187655E-16	1.104128E-16
5.420000E+03	5.177771E-16	1.107400E-16
5.430000E+03	5.167584E-16	1.110344E-16
5.440000E+03	5.157089E-16	1.112957E-16
5.450000E+03	5.146280E-16	1.115237E-16
5.460000E+03	5.135152E-16	1.117183E-16
5.470000E+03	5.123640E-16	1.118781E-16
5.480000E+03	5.111862E-16	1.120055E-16
5.490000E+03	5.099691E-16	1.120979E-16
5.500000E+03	5.087185E-16	1.121565E-16
5.510000E+03	5.074341E-16	1.121814E-16
5.520000E+03	5.061157E-16	1.121725E-16
5.530000E+03	5.047628E-16	1.121299E-16
5.540000E+03	5.033815E-16	1.120549E-16
5.550000E+03	5.019653E-16	1.119464E-16
5.560000E+03	5.005142E-16	1.118044E-16
5.570000E+03	4.990339E-16	1.116305E-16
5.580000E+03	4.975244E-16	1.114247E-16
5.590000E+03	4.959914E-16	1.111887E-16
5.600000E+03	4.944230E-16	1.109198E-16
5.610000E+03	4.928368E-16	1.106224E-16
5.620000E+03	4.912208E-16	1.102941E-16
5.630000E+03	4.895811E-16	1.099363E-16
5.640000E+03	4.879174E-16	1.095495E-16
5.650000E+03	4.862357E-16	1.091352E-16
5.660000E+03	4.845299E-16	1.086923E-16
5.670000E+03	4.828060E-16	1.082226E-16
5.680000E+03	4.810697E-16	1.077277E-16
5.690000E+03	4.793152E-16	1.072066E-16
5.700000E+03	4.775424E-16	1.066597E-16
5.710000E+03	4.757572E-16	1.060886E-16
5.720000E+03	4.739595E-16	1.054938E-16
5.730000E+03	4.721493E-16	1.048756E-16
5.740000E+03	4.703266E-16	1.042344E-16
5.750000E+03	4.684972E-16	1.035720E-16
5.760000E+03	4.666554E-16	1.028874E-16
5.770000E+03	4.648011E-16	1.021812E-16
5.780000E+03	4.629401E-16	1.014549E-16
5.790000E+03	4.610781E-16	1.007104E-16
5.800000E+03	4.591981E-16	9.994433E-17
5.810000E+03	4.573170E-16	9.916091E-17
5.820000E+03	4.554294E-16	9.835939E-17
5.830000E+03	4.535352E-16	9.754026E-17
5.840000E+03	4.516344E-16	9.670403E-17
5.850000E+03	4.497273E-16	9.585123E-17
5.860000E+03	4.478137E-16	9.498239E-17
5.870000E+03	4.458938E-16	9.409807E-17
5.880000E+03	4.439677E-16	9.319883E-17
5.890000E+03	4.420410E-16	9.228638E-17
5.900000E+03	4.401027E-16	9.135903E-17
5.910000E+03	4.381586E-16	9.041854E-17
5.920000E+03	4.362087E-16	8.946551E-17
5.930000E+03	4.342531E-16	8.850059E-17
5.940000E+03	4.322866E-16	8.752335E-17
5.950000E+03	4.303148E-16	8.653556E-17
5.960000E+03	4.283379E-16	8.553791E-17
5.970000E+03	4.263506E-16	8.453004E-17
5.980000E+03	4.243533E-16	8.351272E-17
5.990000E+03	4.223514E-16	8.248774E-17
6.000000E+03	4.203399E-16	8.145485E-17
6.010000E+03	4.183191E-16	8.041486E-17
6.020000E+03	4.162892E-16	7.936862E-17
6.030000E+03	4.142454E-16	7.831599E-17
6.040000E+03	4.121984E-16	7.725983E-17
6.050000E+03	4.101329E-16	7.619814E-17
6.060000E+03	4.080648E-16	7.513475E-17
6.070000E+03	4.059791E-16	7.406779E-17
6.080000E+03	4.038865E-16	7.300014E-17
6.090000E+03	4.017822E-16	7.193189E-17
6.100000E+03	3.996667E-16	7.086413E-17
6.110000E+03	3.975405E-16	6.979794E-17
6.120000E+03	3.954040E-16	6.873445E-17
6.130000E+03	3.932528E-16	6.767395E-17
6.140000E+03	3.910925E-16	6.661850E-17
6.150000E+03	3.889185E-16	6.556848E-17
6.160000E+03	3.867365E-16	6.452599E-17
6.170000E+03	3.845421E-16	6.349149E-17
6.180000E+03	3.823409E-16	6.246710E-17
6.190000E+03	3.801285E-16	6.145336E-17
6.200000E+03	3.779057E-16	6.045167E-17
6.210000E+03	3.756732E-16	5.946344E-17
6.220000E+03	3.734317E-16	5.849011E-17
6.230000E+03	3.711867E-16	5.753388E-17
6.240000E+03	3.689294E-16	5.659474E-17
6.250000E+03	3.666700E-16	5.567566E-17
6.260000E+03	3.644047E-16	5.477741E-17
6.270000E+03	3.621295E-16	5.390082E-17
6.280000E+03	3.598545E-16	5.304882E-17
6.290000E+03	3.575761E-16	5.222222E-17
6.300000E+03	3.552949E-16	5.142253E-17
6.310000E+03	3.530118E-16	5.065126E-17
6.320000E+03	3.507324E-16	4.991053E-17
6.330000E+03	3.484483E-16	4.920045E-17
6.340000E+03	3.461695E-16	4.852370E-17
6.350000E+03	3.438924E-16	4.788097E-17
6.360000E+03	3.416223E-16	4.727412E-17
6.370000E+03	3.393556E-16	4.670369E-17
6.380000E+03	3.370933E-16	4.617074E-17
6.390000E+03	3.348407E-16	4.567681E-17
6.400000E+03	3.325941E-16	4.522206E-17
6.410000E+03	3.303630E-16	4.480832E-17
6.420000E+03	3.281395E-16	4.443476E-17
6.430000E+03	3.259285E-16	4.410214E-17
6.440000E+03	3.237302E-16	4.381031E-17
6.450000E+03	3.215407E-16	4.355821E-17
6.460000E+03	3.193729E-16	4.334682E-17
6.470000E+03	3.172137E-16	4.317335E-17
6.480000E+03	3.150714E-16	4.303766E-17
6.490000E+03	3.129414E-16	4.293772E-17
6.500000E+03	3.108276E-16	4.287251E-17
6.510000E+03	3.087295E-16	4.284035E-17
6.520000E+03	3.066427E-16	4.283891E-17
6.530000E+03	3.045750E-16	4.286755E-17
6.540000E+03	3.025178E-16	4.292331E-17
6.550000E+03	3.004832E-16	4.300612E-17
6.560000E+03	2.984585E-16	4.311241E-17
6.570000E+03	2.964516E-16	4.324157E-17
6.580000E+03	2.944623E-16	4.339185E-17
6.590000E+03	2.924902E-16	4.356154E-17
6.600000E+03	2.905352E-16	4.374899E-17
6.610000E+03	2.886010E-16	4.395320E-17
6.620000E+03	2.866795E-16	4.417142E-17
6.630000E+03	2.847824E-16	4.440402E-17
6.640000E+03	2.829016E-16	4.464836E-17
6.650000E+03	2.810410E-16	4.490373E-17
6.660000E+03	2.792004E-16	4.516887E-17
6.670000E+03	2.773796E-16	4.544261E-17
6.680000E+03	2.755825E-16	4.572446E-17
6.690000E+03	2.738050E-16	4.601276E-17
6.700000E+03	2.720510E-16	4.630718E-17
6.710000E+03	2.703203E-16	4.660682E-17
6.720000E+03	2.686128E-16	4.691086E-17
6.730000E+03	2.669285E-16	4.721853E-17
6.740000E+03	2.652673E-16	4.752912E-17
6.750000E+03	2.636329E-16	4.784266E-17
6.760000E+03	2.620215E-16	4.815789E-17
6.770000E+03	2.604367E-16	4.847496E-17
6.780000E+03	2.588749E-16	4.879268E-17
6.790000E+03	2.573396E-16	4.911131E-17
6.800000E+03	2.558345E-16	4.943119E-17
6.810000E+03	2.543522E-16	4.975055E-17
6.820000E+03	2.528962E-16	5.006977E-17
6.830000E+03	2.514704E-16	5.038934E-17
6.840000E+03	2.500708E-16	5.070829E-17
6.850000E+03	2.486975E-16	5.102641E-17
6.860000E+03	2.473541E-16	5.134429E-17
6.870000E+03	2.460368E-16	5.166103E-17
6.880000E+03	2.447494E-16	5.197728E-17
6.890000E+03	2.434881E-16	5.229219E-17
6.900000E+03	2.422564E-16	5.260646E-17
6.910000E+03	2.410545E-16	5.292006E-17
6.920000E+03	2.398785E-16	5.323218E-17
6.930000E+03	2.387285E-16	5.354279E-17
6.940000E+03	2.376116E-16	5.385352E-17
6.950000E+03	2.365207E-16	5.416278E-17
6.960000E+03	2.354592E-16	5.447143E-17
6.970000E+03	2.344236E-16	5.477870E-17
6.980000E+03	2.334174E-16	5.508548E-17
6.990000E+03	2.324406E-16	5.539185E-17
7.000000E+03	2.314896E-16	5.569706E-17
7.010000E+03	2.305680E-16	5.600205E-17
7.020000E+03	2.296721E-16	5.630607E-17
7.030000E+03	2.288056E-16	5.661008E-17
7.040000E+03	2.279614E-16	5.691250E-17
7.050000E+03	2.271499E-16	5.721601E-17
7.060000E+03	2.263608E-16	5.751817E-17
7.070000E+03	2.256009E-16	5.782083E-17
7.080000E+03	2.248669E-16	5.812327E-17
7.090000E+03	2.241553E-16	5.842473E-17
7.100000E+03	2.234730E-16	5.872715E-17
7.110000E+03	2.228132E-16	5.902887E-17
7.120000E+03	2.221793E-16	5.933094E-17
7.130000E+03	2.215680E-16	5.963261E-17
7.140000E+03	2.209826E-16	5.993495E-17
7.150000E+03	2.204199E-16	6.023718E-17
7.160000E+03	2.198833E-16	6.054039E-17
7.170000E+03	2.193660E-16	6.084289E-17
7.180000E+03	2.188716E-16	6.114574E-17
7.190000E+03	2.184001E-16	6.144912E-17
7.200000E+03	2.179481E-16	6.175223E-17
7.210000E+03	2.175192E-16	6.205618E-17
7.220000E+03	2.171068E-16	6.235921E-17
7.230000E+03	2.167175E-16	6.266340E-17
7.240000E+03	2.163482E-16	6.296793E-17
7.250000E+03	2.159957E-16	6.327200E-17
7.260000E+03	2.156633E-16	6.357673E-17
7.270000E+03	2.153512E-16	6.388227E-17
7.280000E+03	2.150528E-16	6.418681E-17
7.290000E+03	2.147750E-16	6.449248E-17
7.300000E+03	2.145112E-16	6.479743E-17
7.310000E+03	2.142648E-16	6.510282E-17
7.320000E+03	2.140360E-16	6.540879E-17
7.330000E+03	2.138216E-16	6.571448E-17
7.340000E+03	2.136218E-16	6.602004E-17
7.350000E+03	2.134367E-16	6.632560E-17
7.360000E+03	2.132664E-16	6.663131E-17
7.370000E+03	2.131111E-16	6.693732E-17
7.380000E+03	2.129710E-16	6.724377E-17
7.390000E+03	2.128428E-16	6.754976E-17
7.400000E+03	2.127301E-16	6.785648E-17
7.410000E+03	2.126297E-16	6.816302E-17
7.420000E+03	2.125452E-16	6.847057E-17
7.430000E+03	2.124732E-16	6.877823E-17
7.440000E+03	2.124140E-16	6.908612E-17
7.450000E+03	2.123712E-16	6.939547E-17
7.460000E+03	2.123381E-16	6.970426E-17
7.470000E+03	2.123217E-16	7.001480E-17
7.480000E+03	2.123187E-16	7.032613E-17
7.490000E+03	2.123328E-16	7.063952E-17
7.500000E+03	2.123573E-16	7.095291E-17
7.510000E+03	2.123992E-16	7.126864E-17
7.520000E+03	2.124553E-16	7.158575E-17
7.530000E+03	2.125257E-16	7.190440E-17
7.540000E+03	2.126141E-16	7.222587E-17
7.550000E+03	2.127172E-16	7.254917E-17
7.560000E+03	2.128387E-16	7.287559E-17
7.570000E+03	2.129753E-16	7.320417E-17
7.580000E+03	2.131306E-16	7.353619E-17
7.590000E+03	2.133048E-16	7.387184E-17
7.600000E+03	2.134948E-16	7.421011E-17
7.610000E+03	2.137042E-16	7.455232E-17
7.620000E+03	2.139332E-16	7.489866E-17
7.630000E+03	2.141820E-16	7.524929E-17
7.640000E+03	2.144509E-16	7.560439E-17
7.650000E+03	2.147401E-16	7.596413E-17
7.660000E+03	2.150498E-16	7.632870E-17
7.670000E+03	2.153804E-16	7.669826E-17
7.680000E+03	2.157320E-16	7.707300E-17
7.690000E+03	2.161083E-16	7.745433E-17
7.700000E+03	2.165028E-16	7.783996E-17
7.710000E+03	2.169227E-16	7.823257E-17
7.720000E+03	2.173646E-16	7.863110E-17
7.730000E+03	2.178325E-16	7.903699E-17
7.740000E+03	2.183195E-16	7.944790E-17
7.750000E+03	2.188331E-16	7.986657E-17
7.760000E+03	2.193700E-16	8.029192E-17
