#wls	flux	fluxerr
1.600000E+03	4.415084E-17	3.442152E-17
1.640000E+03	4.554927E-17	3.534746E-17
1.680000E+03	4.699819E-17	3.629886E-17
1.720000E+03	4.852351E-17	3.729474E-17
1.760000E+03	5.011113E-17	3.832308E-17
1.800000E+03	5.177135E-17	3.939064E-17
1.840000E+03	5.349728E-17	4.049095E-17
1.880000E+03	5.529945E-17	4.163074E-17
1.920000E+03	5.718926E-17	4.281720E-17
1.960000E+03	5.914959E-17	4.403602E-17
2.000000E+03	6.120125E-17	4.530126E-17
2.040000E+03	6.333593E-17	4.660512E-17
2.080000E+03	6.555455E-17	4.794668E-17
2.120000E+03	6.786864E-17	4.933265E-17
2.160000E+03	7.027927E-17	5.076193E-17
2.200000E+03	7.278707E-17	5.223304E-17
2.240000E+03	7.538031E-17	5.373563E-17
2.280000E+03	7.808205E-17	5.528412E-17
2.320000E+03	8.087969E-17	5.686740E-17
2.360000E+03	8.377152E-17	5.848211E-17
2.400000E+03	8.678142E-17	6.014261E-17
2.440000E+03	8.988107E-17	6.182680E-17
2.480000E+03	9.308012E-17	6.353900E-17
2.520000E+03	9.637443E-17	6.527393E-17
2.560000E+03	9.977330E-17	6.703533E-17
2.600000E+03	1.032715E-16	6.881697E-17
2.640000E+03	1.068474E-16	7.060187E-17
2.680000E+03	1.105233E-16	7.240216E-17
2.720000E+03	1.142756E-16	7.419954E-17
2.760000E+03	1.181101E-16	7.599516E-17
2.800000E+03	1.220164E-16	7.777946E-17
2.840000E+03	1.259825E-16	7.954222E-17
2.880000E+03	1.299955E-16	8.127260E-17
2.920000E+03	1.340579E-16	8.296974E-17
2.960000E+03	1.381723E-16	8.463242E-17
3.000000E+03	1.423058E-16	8.623796E-17
3.010000E+03	1.433299E-16	8.662271E-17
3.020000E+03	1.443636E-16	8.700883E-17
3.030000E+03	1.454067E-16	8.739613E-17
3.040000E+03	1.464416E-16	8.777387E-17
3.050000E+03	1.474853E-16	8.815239E-17
3.060000E+03	1.485202E-16	8.852096E-17
3.070000E+03	1.495634E-16	8.888989E-17
3.080000E+03	1.505972E-16	8.924848E-17
3.090000E+03	1.516210E-16	8.959654E-17
3.100000E+03	1.526702E-16	8.995483E-17
3.110000E+03	1.536912E-16	9.029173E-17
3.120000E+03	1.547371E-16	9.063841E-17
3.130000E+03	1.557540E-16	9.096335E-17
3.140000E+03	1.567953E-16	9.129763E-17
3.150000E+03	1.578250E-16	9.162020E-17
3.160000E+03	1.588426E-16	9.193090E-17
3.170000E+03	1.598659E-16	9.223991E-17
3.180000E+03	1.608945E-16	9.254700E-17
3.190000E+03	1.619102E-16	9.284165E-17
3.200000E+03	1.629307E-16	9.313399E-17
3.210000E+03	1.639376E-16	9.341352E-17
3.220000E+03	1.649487E-16	9.369034E-17
3.230000E+03	1.659457E-16	9.395402E-17
3.240000E+03	1.669463E-16	9.421460E-17
3.250000E+03	1.679502E-16	9.447185E-17
3.260000E+03	1.689390E-16	9.471544E-17
3.270000E+03	1.699306E-16	9.495532E-17
3.280000E+03	1.709246E-16	9.519129E-17
3.290000E+03	1.719027E-16	9.541311E-17
3.300000E+03	1.728826E-16	9.563064E-17
3.310000E+03	1.738460E-16	9.583373E-17
3.320000E+03	1.748107E-16	9.603220E-17
3.330000E+03	1.757764E-16	9.622582E-17
3.340000E+03	1.767247E-16	9.640457E-17
3.350000E+03	1.776735E-16	9.657815E-17
3.360000E+03	1.786043E-16	9.673662E-17
3.370000E+03	1.795531E-16	9.689932E-17
3.380000E+03	1.804655E-16	9.703693E-17
3.390000E+03	1.813952E-16	9.717840E-17
3.400000E+03	1.823060E-16	9.730424E-17
3.410000E+03	1.832155E-16	9.742394E-17
3.420000E+03	1.841057E-16	9.752785E-17
3.430000E+03	1.850121E-16	9.763479E-17
3.440000E+03	1.858808E-16	9.771630E-17
3.450000E+03	1.867652E-16	9.780051E-17
3.460000E+03	1.876293E-16	9.786854E-17
3.470000E+03	1.884906E-16	9.792962E-17
3.480000E+03	1.893314E-16	9.797442E-17
3.490000E+03	1.901867E-16	9.802120E-17
3.500000E+03	1.910210E-16	9.805151E-17
3.510000E+03	1.918341E-16	9.806539E-17
3.520000E+03	1.926610E-16	9.808076E-17
3.530000E+03	1.934664E-16	9.807955E-17
3.540000E+03	1.942501E-16	9.806180E-17
3.550000E+03	1.950469E-16	9.804513E-17
3.560000E+03	1.958218E-16	9.801180E-17
3.570000E+03	1.965746E-16	9.796189E-17
3.580000E+03	1.973399E-16	9.791269E-17
3.590000E+03	1.980829E-16	9.784682E-17
3.600000E+03	1.988207E-16	9.777288E-17
3.610000E+03	1.995360E-16	9.768235E-17
3.620000E+03	2.002631E-16	9.759206E-17
3.630000E+03	2.009675E-16	9.748515E-17
3.640000E+03	2.016492E-16	9.736176E-17
3.650000E+03	2.023421E-16	9.723835E-17
3.660000E+03	2.030122E-16	9.709847E-17
3.670000E+03	2.036594E-16	9.694226E-17
3.680000E+03	2.043175E-16	9.678582E-17
3.690000E+03	2.049526E-16	9.661311E-17
3.700000E+03	2.055649E-16	9.642431E-17
3.710000E+03	2.061877E-16	9.623511E-17
3.720000E+03	2.067875E-16	9.602990E-17
3.730000E+03	2.073811E-16	9.581651E-17
3.740000E+03	2.079519E-16	9.558736E-17
3.750000E+03	2.085164E-16	9.535016E-17
3.760000E+03	2.090746E-16	9.510490E-17
3.770000E+03	2.096264E-16	9.485160E-17
3.780000E+03	2.101556E-16	9.458300E-17
3.790000E+03	2.106624E-16	9.429932E-17
3.800000E+03	2.111791E-16	9.401508E-17
3.810000E+03	2.116735E-16	9.371597E-17
3.820000E+03	2.121458E-16	9.340223E-17
3.830000E+03	2.126280E-16	9.308798E-17
3.840000E+03	2.130882E-16	9.275934E-17
3.850000E+03	2.135267E-16	9.241658E-17
3.860000E+03	2.139595E-16	9.206669E-17
3.870000E+03	2.143865E-16	9.170972E-17
3.880000E+03	2.147923E-16	9.133919E-17
3.890000E+03	2.151926E-16	9.096186E-17
3.900000E+03	2.155721E-16	9.057141E-17
3.910000E+03	2.159464E-16	9.017447E-17
3.920000E+03	2.163004E-16	8.976486E-17
3.930000E+03	2.166495E-16	8.934909E-17
3.940000E+03	2.169937E-16	8.892726E-17
3.950000E+03	2.173183E-16	8.849340E-17
3.960000E+03	2.176236E-16	8.804783E-17
3.970000E+03	2.179246E-16	8.759679E-17
3.980000E+03	2.182216E-16	8.714042E-17
3.990000E+03	2.184854E-16	8.666722E-17
4.000000E+03	2.187602E-16	8.619493E-17
4.010000E+03	2.190025E-16	8.570649E-17
4.020000E+03	2.192561E-16	8.521920E-17
4.030000E+03	2.194780E-16	8.471644E-17
4.040000E+03	2.196972E-16	8.420965E-17
4.050000E+03	2.198998E-16	8.369360E-17
4.060000E+03	2.201001E-16	8.317394E-17
4.070000E+03	2.202845E-16	8.264557E-17
4.080000E+03	2.204532E-16	8.210885E-17
4.090000E+03	2.206205E-16	8.156924E-17
4.100000E+03	2.207729E-16	8.102185E-17
4.110000E+03	2.209106E-16	8.046703E-17
4.120000E+03	2.210342E-16	7.990516E-17
4.130000E+03	2.211576E-16	7.934143E-17
4.140000E+03	2.212674E-16	7.877123E-17
4.150000E+03	2.213642E-16	7.819493E-17
4.160000E+03	2.214483E-16	7.761289E-17
4.170000E+03	2.215201E-16	7.702547E-17
4.180000E+03	2.215932E-16	7.643757E-17
4.190000E+03	2.216416E-16	7.584046E-17
4.200000E+03	2.216920E-16	7.524347E-17
4.210000E+03	2.217316E-16	7.464246E-17
4.220000E+03	2.217480E-16	7.403354E-17
4.230000E+03	2.217674E-16	7.342568E-17
4.240000E+03	2.217771E-16	7.281493E-17
4.250000E+03	2.217777E-16	7.220166E-17
4.260000E+03	2.217696E-16	7.158625E-17
4.270000E+03	2.217530E-16	7.096909E-17
4.280000E+03	2.217162E-16	7.034663E-17
4.290000E+03	2.216841E-16	6.972715E-17
4.300000E+03	2.216327E-16	6.910326E-17
4.310000E+03	2.215866E-16	6.848301E-17
4.320000E+03	2.215221E-16	6.785923E-17
4.330000E+03	2.214516E-16	6.723611E-17
4.340000E+03	2.213754E-16	6.661405E-17
4.350000E+03	2.212822E-16	6.598990E-17
4.360000E+03	2.211960E-16	6.537119E-17
4.370000E+03	2.210935E-16	6.475128E-17
4.380000E+03	2.209870E-16	6.413412E-17
4.390000E+03	2.208651E-16	6.351678E-17
4.400000E+03	2.207399E-16	6.290308E-17
4.410000E+03	2.206117E-16	6.229344E-17
4.420000E+03	2.204808E-16	6.168825E-17
4.430000E+03	2.203362E-16	6.108480E-17
4.440000E+03	2.201784E-16	6.048364E-17
4.450000E+03	2.200301E-16	5.989140E-17
4.460000E+03	2.198693E-16	5.930238E-17
4.470000E+03	2.196964E-16	5.871712E-17
4.480000E+03	2.195228E-16	5.813908E-17
4.490000E+03	2.193379E-16	5.756582E-17
4.500000E+03	2.191528E-16	5.700072E-17
4.510000E+03	2.189571E-16	5.644141E-17
4.520000E+03	2.187618E-16	5.589118E-17
4.530000E+03	2.185565E-16	5.534776E-17
4.540000E+03	2.183521E-16	5.481436E-17
4.550000E+03	2.181383E-16	5.428877E-17
4.560000E+03	2.179153E-16	5.377152E-17
4.570000E+03	2.176836E-16	5.326316E-17
4.580000E+03	2.174538E-16	5.276672E-17
4.590000E+03	2.172260E-16	5.228261E-17
4.600000E+03	2.169798E-16	5.180635E-17
4.610000E+03	2.167361E-16	5.134338E-17
4.620000E+03	2.164847E-16	5.089171E-17
4.630000E+03	2.162361E-16	5.045419E-17
4.640000E+03	2.159802E-16	5.002885E-17
4.650000E+03	2.157073E-16	4.961388E-17
4.660000E+03	2.154475E-16	4.921660E-17
4.670000E+03	2.151711E-16	4.883056E-17
4.680000E+03	2.148980E-16	4.846067E-17
4.690000E+03	2.146087E-16	4.810286E-17
4.700000E+03	2.143229E-16	4.776191E-17
4.710000E+03	2.140309E-16	4.743595E-17
4.720000E+03	2.137328E-16	4.712529E-17
4.730000E+03	2.134384E-16	4.683233E-17
4.740000E+03	2.131285E-16	4.655308E-17
4.750000E+03	2.128223E-16	4.629197E-17
4.760000E+03	2.125103E-16	4.604706E-17
4.770000E+03	2.121926E-16	4.581852E-17
4.780000E+03	2.118600E-16	4.560441E-17
4.790000E+03	2.115405E-16	4.541082E-17
4.800000E+03	2.112062E-16	4.523169E-17
4.810000E+03	2.108666E-16	4.506894E-17
4.820000E+03	2.105220E-16	4.492243E-17
4.830000E+03	2.101816E-16	4.479385E-17
4.840000E+03	2.098274E-16	4.467901E-17
4.850000E+03	2.094689E-16	4.457952E-17
4.860000E+03	2.091154E-16	4.449689E-17
4.870000E+03	2.087579E-16	4.442875E-17
4.880000E+03	2.083880E-16	4.437272E-17
4.890000E+03	2.080237E-16	4.433211E-17
4.900000E+03	2.076563E-16	4.430449E-17
4.910000E+03	2.072774E-16	4.428743E-17
4.920000E+03	2.069048E-16	4.428415E-17
4.930000E+03	2.065298E-16	4.429218E-17
4.940000E+03	2.061528E-16	4.431093E-17
4.950000E+03	2.057739E-16	4.433983E-17
4.960000E+03	2.053933E-16	4.437826E-17
4.970000E+03	2.050112E-16	4.442564E-17
4.980000E+03	2.046278E-16	4.448137E-17
4.990000E+03	2.042432E-16	4.454484E-17
5.000000E+03	2.038576E-16	4.461546E-17
5.010000E+03	2.034711E-16	4.469264E-17
5.020000E+03	2.030839E-16	4.477580E-17
5.030000E+03	2.026960E-16	4.486436E-17
5.040000E+03	2.023159E-16	4.495961E-17
5.050000E+03	2.019271E-16	4.505728E-17
5.060000E+03	2.015379E-16	4.515867E-17
5.070000E+03	2.011484E-16	4.526326E-17
5.080000E+03	2.007669E-16	4.537236E-17
5.090000E+03	2.003771E-16	4.548177E-17
5.100000E+03	1.999952E-16	4.559468E-17
5.110000E+03	1.996052E-16	4.570691E-17
5.120000E+03	1.992231E-16	4.582169E-17
5.130000E+03	1.988330E-16	4.593486E-17
5.140000E+03	1.984509E-16	4.604966E-17
5.150000E+03	1.980688E-16	4.616384E-17
5.160000E+03	1.976867E-16	4.627695E-17
5.170000E+03	1.973045E-16	4.638860E-17
5.180000E+03	1.969223E-16	4.649839E-17
5.190000E+03	1.965400E-16	4.660596E-17
5.200000E+03	1.961577E-16	4.671092E-17
5.210000E+03	1.957753E-16	4.681294E-17
5.220000E+03	1.954005E-16	4.691354E-17
5.230000E+03	1.950178E-16	4.700865E-17
5.240000E+03	1.946426E-16	4.710171E-17
5.250000E+03	1.942594E-16	4.718866E-17
5.260000E+03	1.938837E-16	4.727296E-17
5.270000E+03	1.935075E-16	4.735247E-17
5.280000E+03	1.931309E-16	4.742689E-17
5.290000E+03	1.927539E-16	4.749600E-17
5.300000E+03	1.923838E-16	4.756140E-17
5.310000E+03	1.920055E-16	4.761911E-17
5.320000E+03	1.916341E-16	4.767266E-17
5.330000E+03	1.912544E-16	4.771807E-17
5.340000E+03	1.908814E-16	4.775889E-17
5.350000E+03	1.905074E-16	4.779305E-17
5.360000E+03	1.901399E-16	4.782222E-17
5.370000E+03	1.897638E-16	4.784248E-17
5.380000E+03	1.893940E-16	4.785741E-17
5.390000E+03	1.890154E-16	4.786308E-17
5.400000E+03	1.886430E-16	4.786309E-17
5.410000E+03	1.882764E-16	4.785729E-17
5.420000E+03	1.879010E-16	4.784179E-17
5.430000E+03	1.875312E-16	4.782019E-17
5.440000E+03	1.871524E-16	4.778864E-17
5.450000E+03	1.867864E-16	4.775260E-17
5.460000E+03	1.864111E-16	4.770637E-17
5.470000E+03	1.860339E-16	4.765171E-17
5.480000E+03	1.856618E-16	4.759036E-17
5.490000E+03	1.852875E-16	4.752039E-17
5.500000E+03	1.849180E-16	4.744353E-17
5.510000E+03	1.845390E-16	4.735602E-17
5.520000E+03	1.841647E-16	4.726148E-17
5.530000E+03	1.837877E-16	4.715797E-17
5.540000E+03	1.834152E-16	4.704727E-17
5.550000E+03	1.830327E-16	4.692567E-17
5.560000E+03	1.826615E-16	4.679856E-17
5.570000E+03	1.822803E-16	4.666045E-17
5.580000E+03	1.819030E-16	4.651491E-17
5.590000E+03	1.815224E-16	4.636009E-17
5.600000E+03	1.811386E-16	4.619597E-17
5.610000E+03	1.807584E-16	4.602430E-17
5.620000E+03	1.803747E-16	4.584327E-17
5.630000E+03	1.799874E-16	4.565285E-17
5.640000E+03	1.796033E-16	4.545481E-17
5.650000E+03	1.792155E-16	4.524736E-17
5.660000E+03	1.788306E-16	4.503224E-17
5.670000E+03	1.784418E-16	4.480770E-17
5.680000E+03	1.780488E-16	4.457376E-17
5.690000E+03	1.776585E-16	4.433215E-17
5.700000E+03	1.772708E-16	4.408286E-17
5.710000E+03	1.768718E-16	4.382249E-17
5.720000E+03	1.764751E-16	4.355448E-17
5.730000E+03	1.760806E-16	4.327883E-17
5.740000E+03	1.756815E-16	4.299390E-17
5.750000E+03	1.752775E-16	4.269973E-17
5.760000E+03	1.748754E-16	4.239802E-17
5.770000E+03	1.744750E-16	4.208879E-17
5.780000E+03	1.740628E-16	4.176883E-17
5.790000E+03	1.736588E-16	4.144308E-17
5.800000E+03	1.732495E-16	4.110834E-17
5.810000E+03	1.728348E-16	4.076469E-17
5.820000E+03	1.724213E-16	4.041380E-17
5.830000E+03	1.720022E-16	4.005417E-17
5.840000E+03	1.715840E-16	3.968743E-17
5.850000E+03	1.711666E-16	3.931365E-17
5.860000E+03	1.707433E-16	3.893140E-17
5.870000E+03	1.703140E-16	3.854079E-17
5.880000E+03	1.698852E-16	3.814343E-17
5.890000E+03	1.694567E-16	3.773942E-17
5.900000E+03	1.690219E-16	3.732740E-17
5.910000E+03	1.685872E-16	3.690896E-17
5.920000E+03	1.681525E-16	3.648422E-17
5.930000E+03	1.677111E-16	3.605188E-17
5.940000E+03	1.672630E-16	3.561213E-17
5.950000E+03	1.668210E-16	3.516790E-17
5.960000E+03	1.663720E-16	3.471657E-17
5.970000E+03	1.659159E-16	3.425836E-17
5.980000E+03	1.654591E-16	3.379479E-17
5.990000E+03	1.650015E-16	3.332607E-17
6.000000E+03	1.645428E-16	3.285236E-17
6.010000E+03	1.640765E-16	3.237261E-17
6.020000E+03	1.636026E-16	3.188710E-17
6.030000E+03	1.631337E-16	3.139856E-17
6.040000E+03	1.626569E-16	3.090477E-17
6.050000E+03	1.621784E-16	3.040723E-17
6.060000E+03	1.616918E-16	2.990506E-17
6.070000E+03	1.612033E-16	2.939977E-17
6.080000E+03	1.607126E-16	2.889167E-17
6.090000E+03	1.602198E-16	2.838112E-17
6.100000E+03	1.597182E-16	2.786738E-17
6.110000E+03	1.592142E-16	2.735199E-17
6.120000E+03	1.587075E-16	2.683536E-17
6.130000E+03	1.581917E-16	2.631691E-17
6.140000E+03	1.576730E-16	2.579820E-17
6.150000E+03	1.571511E-16	2.527976E-17
6.160000E+03	1.566260E-16	2.476215E-17
6.170000E+03	1.560974E-16	2.424596E-17
6.180000E+03	1.555591E-16	2.373091E-17
6.190000E+03	1.550170E-16	2.321868E-17
6.200000E+03	1.544709E-16	2.271001E-17
6.210000E+03	1.539146E-16	2.220483E-17
6.220000E+03	1.533602E-16	2.170579E-17
6.230000E+03	1.527952E-16	2.121208E-17
6.240000E+03	1.522256E-16	2.072559E-17
6.250000E+03	1.516512E-16	2.024738E-17
6.260000E+03	1.510658E-16	1.977784E-17
6.270000E+03	1.504812E-16	1.931978E-17
6.280000E+03	1.498853E-16	1.887296E-17
6.290000E+03	1.492838E-16	1.843957E-17
6.300000E+03	1.486767E-16	1.802107E-17
6.310000E+03	1.480636E-16	1.761902E-17
6.320000E+03	1.474444E-16	1.723505E-17
6.330000E+03	1.468131E-16	1.687015E-17
6.340000E+03	1.461753E-16	1.652675E-17
6.350000E+03	1.455366E-16	1.620726E-17
6.360000E+03	1.448853E-16	1.591210E-17
6.370000E+03	1.442269E-16	1.564364E-17
6.380000E+03	1.435614E-16	1.540354E-17
6.390000E+03	1.428884E-16	1.519330E-17
6.400000E+03	1.422022E-16	1.501369E-17
6.410000E+03	1.415142E-16	1.486705E-17
6.420000E+03	1.408127E-16	1.475302E-17
6.430000E+03	1.401093E-16	1.467328E-17
6.440000E+03	1.393926E-16	1.462673E-17
6.450000E+03	1.386741E-16	1.461419E-17
6.460000E+03	1.379430E-16	1.463368E-17
6.470000E+03	1.372052E-16	1.468458E-17
6.480000E+03	1.364611E-16	1.476539E-17
6.490000E+03	1.357113E-16	1.487435E-17
6.500000E+03	1.349563E-16	1.500953E-17
6.510000E+03	1.341966E-16	1.516890E-17
6.520000E+03	1.334328E-16	1.535038E-17
6.530000E+03	1.326653E-16	1.555191E-17
6.540000E+03	1.318947E-16	1.577143E-17
6.550000E+03	1.311214E-16	1.600697E-17
6.560000E+03	1.303460E-16	1.625662E-17
6.570000E+03	1.295689E-16	1.651859E-17
6.580000E+03	1.287906E-16	1.679119E-17
6.590000E+03	1.280114E-16	1.707284E-17
6.600000E+03	1.272319E-16	1.736206E-17
6.610000E+03	1.264524E-16	1.765753E-17
6.620000E+03	1.256733E-16	1.795799E-17
6.630000E+03	1.248951E-16	1.826232E-17
6.640000E+03	1.241180E-16	1.856948E-17
6.650000E+03	1.233424E-16	1.887856E-17
6.660000E+03	1.225687E-16	1.918869E-17
6.670000E+03	1.217972E-16	1.949913E-17
6.680000E+03	1.210281E-16	1.980919E-17
6.690000E+03	1.202618E-16	2.011826E-17
6.700000E+03	1.194986E-16	2.042579E-17
6.710000E+03	1.187436E-16	2.073217E-17
6.720000E+03	1.179873E-16	2.103525E-17
6.730000E+03	1.172348E-16	2.133549E-17
6.740000E+03	1.164913E-16	2.163347E-17
6.750000E+03	1.157471E-16	2.192710E-17
6.760000E+03	1.150123E-16	2.221795E-17
6.770000E+03	1.142774E-16	2.250394E-17
6.780000E+03	1.135521E-16	2.278676E-17
6.790000E+03	1.128319E-16	2.306532E-17
6.800000E+03	1.121168E-16	2.333949E-17
6.810000E+03	1.114025E-16	2.360816E-17
6.820000E+03	1.106985E-16	2.387320E-17
6.830000E+03	1.100001E-16	2.413358E-17
6.840000E+03	1.093121E-16	2.439027E-17
6.850000E+03	1.086255E-16	2.464118E-17
6.860000E+03	1.079449E-16	2.488731E-17
6.870000E+03	1.072706E-16	2.512864E-17
6.880000E+03	1.066071E-16	2.536626E-17
6.890000E+03	1.059454E-16	2.559804E-17
6.900000E+03	1.052903E-16	2.582507E-17
6.910000E+03	1.046462E-16	2.604848E-17
6.920000E+03	1.040087E-16	2.626722E-17
6.930000E+03	1.033735E-16	2.648023E-17
6.940000E+03	1.027496E-16	2.668978E-17
6.950000E+03	1.021325E-16	2.689483E-17
6.960000E+03	1.015223E-16	2.709543E-17
6.970000E+03	1.009191E-16	2.729166E-17
6.980000E+03	1.003230E-16	2.748359E-17
6.990000E+03	9.973388E-17	2.767129E-17
7.000000E+03	9.915192E-17	2.785484E-17
7.010000E+03	9.857712E-17	2.803432E-17
7.020000E+03	9.800952E-17	2.820982E-17
7.030000E+03	9.745333E-17	2.838264E-17
7.040000E+03	9.690020E-17	2.855044E-17
7.050000E+03	9.635436E-17	2.871453E-17
7.060000E+03	9.581994E-17	2.887622E-17
7.070000E+03	9.528871E-17	2.903315E-17
7.080000E+03	9.476483E-17	2.918663E-17
7.090000E+03	9.425237E-17	2.933803E-17
7.100000E+03	9.374319E-17	2.948491E-17
7.110000E+03	9.324541E-17	2.962991E-17
7.120000E+03	9.275097E-17	2.977057E-17
7.130000E+03	9.226790E-17	2.990955E-17
7.140000E+03	9.178821E-17	3.004436E-17
7.150000E+03	9.131590E-17	3.017639E-17
7.160000E+03	9.085491E-17	3.030704E-17
7.170000E+03	9.039734E-17	3.043379E-17
7.180000E+03	8.995105E-17	3.055936E-17
7.190000E+03	8.950818E-17	3.068119E-17
7.200000E+03	8.907267E-17	3.080071E-17
7.210000E+03	8.864450E-17	3.091799E-17
7.220000E+03	8.822749E-17	3.103448E-17
7.230000E+03	8.781394E-17	3.114758E-17
7.240000E+03	8.740768E-17	3.125871E-17
7.250000E+03	8.700869E-17	3.136797E-17
7.260000E+03	8.661697E-17	3.147544E-17
7.270000E+03	8.623248E-17	3.158121E-17
7.280000E+03	8.585145E-17	3.168397E-17
7.290000E+03	8.548140E-17	3.178657E-17
7.300000E+03	8.511853E-17	3.188772E-17
7.310000E+03	8.475908E-17	3.198610E-17
7.320000E+03	8.440678E-17	3.208317E-17
7.330000E+03	8.406162E-17	3.217901E-17
7.340000E+03	8.372726E-17	3.227514E-17
7.350000E+03	8.339628E-17	3.236878E-17
7.360000E+03	8.306867E-17	3.245998E-17
7.370000E+03	8.275177E-17	3.255170E-17
7.380000E+03	8.244188E-17	3.264258E-17
7.390000E+03	8.213531E-17	3.273122E-17
7.400000E+03	8.183571E-17	3.281916E-17
7.410000E+03	8.154304E-17	3.290645E-17
7.420000E+03	8.125728E-17	3.299316E-17
7.430000E+03	8.097839E-17	3.307937E-17
7.440000E+03	8.070275E-17	3.316365E-17
7.450000E+03	8.043394E-17	3.324755E-17
7.460000E+03	8.017193E-17	3.333113E-17
7.470000E+03	7.991669E-17	3.341445E-17
7.480000E+03	7.966819E-17	3.349756E-17
7.490000E+03	7.942283E-17	3.357903E-17
7.500000E+03	7.918416E-17	3.366042E-17
7.510000E+03	7.895215E-17	3.374177E-17
7.520000E+03	7.872676E-17	3.382314E-17
7.530000E+03	7.850443E-17	3.390307E-17
7.540000E+03	7.828866E-17	3.398312E-17
7.550000E+03	7.807943E-17	3.406335E-17
7.560000E+03	7.787671E-17	3.414381E-17
7.570000E+03	7.767693E-17	3.422300E-17
7.580000E+03	7.748712E-17	3.430407E-17
7.590000E+03	7.729668E-17	3.438240E-17
7.600000E+03	7.711614E-17	3.446269E-17
7.610000E+03	7.693844E-17	3.454188E-17
7.620000E+03	7.676705E-17	3.462157E-17
7.630000E+03	7.660195E-17	3.470180E-17
7.640000E+03	7.643959E-17	3.478103E-17
7.650000E+03	7.628346E-17	3.486087E-17
7.660000E+03	7.613350E-17	3.494138E-17
7.670000E+03	7.598619E-17	3.502097E-17
7.680000E+03	7.584500E-17	3.510129E-17
7.690000E+03	7.570989E-17	3.518237E-17
7.700000E+03	7.557732E-17	3.526263E-17
7.710000E+03	7.545425E-17	3.534534E-17
7.720000E+03	7.533017E-17	3.542565E-17
7.730000E+03	7.521551E-17	3.550848E-17
7.740000E+03	7.510326E-17	3.559058E-17
7.750000E+03	7.499337E-17	3.567197E-17
7.760000E+03	7.489279E-17	3.575599E-17
