#wls	flux	fluxerr
1.600000E+03	1.809832E-17	1.447232E-17
1.640000E+03	1.862326E-17	1.483476E-17
1.680000E+03	1.916814E-17	1.520847E-17
1.720000E+03	1.973340E-17	1.559349E-17
1.760000E+03	2.031945E-17	1.598981E-17
1.800000E+03	2.093024E-17	1.640016E-17
1.840000E+03	2.155906E-17	1.681892E-17
1.880000E+03	2.221342E-17	1.725156E-17
1.920000E+03	2.289382E-17	1.769804E-17
1.960000E+03	2.359677E-17	1.815520E-17
2.000000E+03	2.432236E-17	1.862269E-17
2.040000E+03	2.507475E-17	1.910321E-17
2.080000E+03	2.584991E-17	1.959318E-17
2.120000E+03	2.665637E-17	2.009856E-17
2.160000E+03	2.748553E-17	2.061229E-17
2.200000E+03	2.834156E-17	2.113695E-17
2.240000E+03	2.922424E-17	2.167178E-17
2.280000E+03	3.013322E-17	2.221590E-17
2.320000E+03	3.106800E-17	2.276831E-17
2.360000E+03	3.202791E-17	2.332788E-17
2.400000E+03	3.301729E-17	2.389707E-17
2.440000E+03	3.403021E-17	2.447088E-17
2.480000E+03	3.506548E-17	2.504774E-17
2.520000E+03	3.612723E-17	2.562990E-17
2.560000E+03	3.721424E-17	2.621569E-17
2.600000E+03	3.831935E-17	2.679928E-17
2.640000E+03	3.944641E-17	2.738264E-17
2.680000E+03	4.059957E-17	2.796778E-17
2.720000E+03	4.176494E-17	2.854432E-17
2.760000E+03	4.294615E-17	2.911396E-17
2.800000E+03	4.414702E-17	2.967847E-17
2.840000E+03	4.535885E-17	3.023114E-17
2.880000E+03	4.657884E-17	3.076931E-17
2.920000E+03	4.781061E-17	3.129458E-17
2.960000E+03	4.905132E-17	3.180423E-17
3.000000E+03	5.029128E-17	3.229119E-17
3.010000E+03	5.060098E-17	3.240919E-17
3.020000E+03	5.090911E-17	3.252474E-17
3.030000E+03	5.122239E-17	3.264213E-17
3.040000E+03	5.153401E-17	3.275699E-17
3.050000E+03	5.184391E-17	3.286927E-17
3.060000E+03	5.215201E-17	3.297893E-17
3.070000E+03	5.246513E-17	3.309026E-17
3.080000E+03	5.277638E-17	3.319889E-17
3.090000E+03	5.308567E-17	3.330476E-17
3.100000E+03	5.339297E-17	3.340785E-17
3.110000E+03	5.370513E-17	3.351243E-17
3.120000E+03	5.400824E-17	3.360982E-17
3.130000E+03	5.432309E-17	3.371294E-17
3.140000E+03	5.462877E-17	3.380878E-17
3.150000E+03	5.493217E-17	3.390164E-17
3.160000E+03	5.524024E-17	3.399577E-17
3.170000E+03	5.554593E-17	3.408684E-17
3.180000E+03	5.585623E-17	3.417910E-17
3.190000E+03	5.615702E-17	3.426391E-17
3.200000E+03	5.646231E-17	3.434984E-17
3.210000E+03	5.676503E-17	3.443254E-17
3.220000E+03	5.707219E-17	3.451628E-17
3.230000E+03	5.736958E-17	3.459244E-17
3.240000E+03	5.767133E-17	3.466955E-17
3.250000E+03	5.797029E-17	3.474329E-17
3.260000E+03	5.827355E-17	3.481791E-17
3.270000E+03	5.856680E-17	3.488484E-17
3.280000E+03	5.886425E-17	3.495256E-17
3.290000E+03	5.916589E-17	3.502104E-17
3.300000E+03	5.945735E-17	3.508175E-17
3.310000E+03	5.975291E-17	3.514314E-17
3.320000E+03	6.004536E-17	3.520095E-17
3.330000E+03	6.033466E-17	3.525516E-17
3.340000E+03	6.062075E-17	3.530574E-17
3.350000E+03	6.091080E-17	3.535685E-17
3.360000E+03	6.119758E-17	3.540428E-17
3.370000E+03	6.148824E-17	3.545217E-17
3.380000E+03	6.176834E-17	3.549217E-17
3.390000E+03	6.205225E-17	3.553257E-17
3.400000E+03	6.233274E-17	3.556919E-17
3.410000E+03	6.260975E-17	3.560204E-17
3.420000E+03	6.289050E-17	3.563518E-17
3.430000E+03	6.316771E-17	3.566449E-17
3.440000E+03	6.344135E-17	3.568996E-17
3.450000E+03	6.371138E-17	3.571158E-17
3.460000E+03	6.398503E-17	3.573339E-17
3.470000E+03	6.425503E-17	3.575131E-17
3.480000E+03	6.452134E-17	3.576533E-17
3.490000E+03	6.478393E-17	3.577547E-17
3.500000E+03	6.505004E-17	3.578568E-17
3.510000E+03	6.531238E-17	3.579198E-17
3.520000E+03	6.557095E-17	3.579434E-17
3.530000E+03	6.583295E-17	3.579673E-17
3.540000E+03	6.608390E-17	3.579124E-17
3.550000E+03	6.633824E-17	3.578574E-17
3.560000E+03	6.659596E-17	3.578019E-17
3.570000E+03	6.684258E-17	3.576681E-17
3.580000E+03	6.709255E-17	3.575337E-17
3.590000E+03	6.733861E-17	3.573598E-17
3.600000E+03	6.758078E-17	3.571466E-17
3.610000E+03	6.781903E-17	3.568943E-17
3.620000E+03	6.806057E-17	3.566407E-17
3.630000E+03	6.829818E-17	3.563480E-17
3.640000E+03	6.853185E-17	3.560163E-17
3.650000E+03	6.876160E-17	3.556457E-17
3.660000E+03	6.899460E-17	3.552735E-17
3.670000E+03	6.922365E-17	3.548626E-17
3.680000E+03	6.944877E-17	3.544132E-17
3.690000E+03	6.966995E-17	3.539255E-17
3.700000E+03	6.988722E-17	3.533998E-17
3.710000E+03	7.010771E-17	3.528723E-17
3.720000E+03	7.032429E-17	3.523071E-17
3.730000E+03	7.053697E-17	3.517043E-17
3.740000E+03	7.074575E-17	3.510643E-17
3.750000E+03	7.095776E-17	3.504225E-17
3.760000E+03	7.116590E-17	3.497438E-17
3.770000E+03	7.137018E-17	3.490286E-17
3.780000E+03	7.157063E-17	3.482771E-17
3.790000E+03	7.176725E-17	3.474898E-17
3.800000E+03	7.196714E-17	3.467011E-17
3.810000E+03	7.215619E-17	3.458431E-17
3.820000E+03	7.234853E-17	3.449841E-17
3.830000E+03	7.253714E-17	3.440906E-17
3.840000E+03	7.272204E-17	3.431629E-17
3.850000E+03	7.291025E-17	3.422344E-17
3.860000E+03	7.308781E-17	3.412396E-17
3.870000E+03	7.326872E-17	3.402444E-17
3.880000E+03	7.344602E-17	3.392166E-17
3.890000E+03	7.361975E-17	3.381567E-17
3.900000E+03	7.378994E-17	3.370651E-17
3.910000E+03	7.395662E-17	3.359423E-17
3.920000E+03	7.412675E-17	3.348203E-17
3.930000E+03	7.428653E-17	3.336367E-17
3.940000E+03	7.444980E-17	3.324545E-17
3.950000E+03	7.460970E-17	3.312429E-17
3.960000E+03	7.476626E-17	3.300025E-17
3.970000E+03	7.491952E-17	3.287341E-17
3.980000E+03	7.506954E-17	3.274380E-17
3.990000E+03	7.521634E-17	3.261151E-17
4.000000E+03	7.536677E-17	3.247951E-17
4.010000E+03	7.550727E-17	3.234201E-17
4.020000E+03	7.565145E-17	3.220488E-17
4.030000E+03	7.578582E-17	3.206241E-17
4.040000E+03	7.592393E-17	3.192042E-17
4.050000E+03	7.605907E-17	3.177608E-17
4.060000E+03	7.618458E-17	3.162668E-17
4.070000E+03	7.631392E-17	3.147789E-17
4.080000E+03	7.644042E-17	3.132697E-17
4.090000E+03	7.656413E-17	3.117399E-17
4.100000E+03	7.668508E-17	3.101903E-17
4.110000E+03	7.680334E-17	3.086216E-17
4.120000E+03	7.691894E-17	3.070346E-17
4.130000E+03	7.703193E-17	3.054300E-17
4.140000E+03	7.714235E-17	3.038087E-17
4.150000E+03	7.725024E-17	3.021715E-17
4.160000E+03	7.735566E-17	3.005191E-17
4.170000E+03	7.745864E-17	2.988524E-17
4.180000E+03	7.755923E-17	2.971723E-17
4.190000E+03	7.765747E-17	2.954795E-17
4.200000E+03	7.775340E-17	2.937749E-17
4.210000E+03	7.784706E-17	2.920595E-17
4.220000E+03	7.793849E-17	2.903340E-17
4.230000E+03	7.802773E-17	2.885994E-17
4.240000E+03	7.811482E-17	2.868566E-17
4.250000E+03	7.819980E-17	2.851065E-17
4.260000E+03	7.827635E-17	2.833271E-17
4.270000E+03	7.835722E-17	2.815655E-17
4.280000E+03	7.842977E-17	2.797769E-17
4.290000E+03	7.850668E-17	2.780077E-17
4.300000E+03	7.857536E-17	2.762139E-17
4.310000E+03	7.864216E-17	2.744192E-17
4.320000E+03	7.871337E-17	2.726461E-17
4.330000E+03	7.877648E-17	2.708522E-17
4.340000E+03	7.883158E-17	2.690392E-17
4.350000E+03	7.889115E-17	2.672507E-17
4.360000E+03	7.894897E-17	2.654666E-17
4.370000E+03	7.899890E-17	2.636672E-17
4.380000E+03	7.905330E-17	2.618951E-17
4.390000E+03	7.909990E-17	2.601103E-17
4.400000E+03	7.914485E-17	2.583347E-17
4.410000E+03	7.918819E-17	2.565694E-17
4.420000E+03	7.922386E-17	2.547959E-17
4.430000E+03	7.926402E-17	2.530548E-17
4.440000E+03	7.929656E-17	2.513083E-17
4.450000E+03	7.932757E-17	2.495771E-17
4.460000E+03	7.935704E-17	2.478625E-17
4.470000E+03	7.938500E-17	2.461656E-17
4.480000E+03	7.940547E-17	2.444693E-17
4.490000E+03	7.942446E-17	2.427935E-17
4.500000E+03	7.944790E-17	2.411575E-17
4.510000E+03	7.945801E-17	2.395084E-17
4.520000E+03	7.947256E-17	2.379015E-17
4.530000E+03	7.947976E-17	2.363025E-17
4.540000E+03	7.948551E-17	2.347304E-17
4.550000E+03	7.948981E-17	2.331865E-17
4.560000E+03	7.949264E-17	2.316719E-17
4.570000E+03	7.948821E-17	2.301709E-17
4.580000E+03	7.948234E-17	2.287019E-17
4.590000E+03	7.947503E-17	2.272659E-17
4.600000E+03	7.946626E-17	2.258641E-17
4.610000E+03	7.945030E-17	2.244814E-17
4.620000E+03	7.943290E-17	2.231353E-17
4.630000E+03	7.940836E-17	2.218108E-17
4.640000E+03	7.938808E-17	2.205410E-17
4.650000E+03	7.936068E-17	2.192950E-17
4.660000E+03	7.932620E-17	2.180742E-17
4.670000E+03	7.929594E-17	2.169104E-17
4.680000E+03	7.925862E-17	2.157735E-17
4.690000E+03	7.921989E-17	2.146798E-17
4.700000E+03	7.917415E-17	2.136148E-17
4.710000E+03	7.912703E-17	2.125944E-17
4.720000E+03	7.907852E-17	2.116189E-17
4.730000E+03	7.902862E-17	2.106889E-17
4.740000E+03	7.897182E-17	2.097900E-17
4.750000E+03	7.891368E-17	2.089373E-17
4.760000E+03	7.884873E-17	2.081165E-17
4.770000E+03	7.878249E-17	2.073422E-17
4.780000E+03	7.871497E-17	2.066144E-17
4.790000E+03	7.864618E-17	2.059330E-17
4.800000E+03	7.857075E-17	2.052836E-17
4.810000E+03	7.848876E-17	2.046662E-17
4.820000E+03	7.841100E-17	2.041084E-17
4.830000E+03	7.832677E-17	2.035817E-17
4.840000E+03	7.823615E-17	2.030857E-17
4.850000E+03	7.814985E-17	2.026475E-17
4.860000E+03	7.805728E-17	2.022386E-17
4.870000E+03	7.795852E-17	2.018583E-17
4.880000E+03	7.785894E-17	2.015196E-17
4.890000E+03	7.775859E-17	2.012212E-17
4.900000E+03	7.765228E-17	2.009487E-17
4.910000E+03	7.754533E-17	2.007145E-17
4.920000E+03	7.743779E-17	2.005173E-17
4.930000E+03	7.732454E-17	2.003426E-17
4.940000E+03	7.721084E-17	2.002024E-17
4.950000E+03	7.709675E-17	2.000954E-17
4.960000E+03	7.697720E-17	2.000069E-17
4.970000E+03	7.685742E-17	1.999489E-17
4.980000E+03	7.673236E-17	1.999067E-17
4.990000E+03	7.660720E-17	1.998921E-17
5.000000E+03	7.647695E-17	1.998904E-17
5.010000E+03	7.635178E-17	1.999265E-17
5.020000E+03	7.621666E-17	1.999594E-17
5.030000E+03	7.608672E-17	2.000272E-17
5.040000E+03	7.595201E-17	2.001021E-17
5.050000E+03	7.581265E-17	2.001826E-17
5.060000E+03	7.567861E-17	2.002934E-17
5.070000E+03	7.553512E-17	2.003939E-17
5.080000E+03	7.539705E-17	2.005218E-17
5.090000E+03	7.525462E-17	2.006496E-17
5.100000E+03	7.511280E-17	2.007890E-17
5.110000E+03	7.496678E-17	2.009255E-17
5.120000E+03	7.482148E-17	2.010709E-17
5.130000E+03	7.467213E-17	2.012108E-17
5.140000E+03	7.452843E-17	2.013700E-17
5.150000E+03	7.437599E-17	2.015081E-17
5.160000E+03	7.422928E-17	2.016630E-17
5.170000E+03	7.407876E-17	2.018074E-17
5.180000E+03	7.392449E-17	2.019403E-17
5.190000E+03	7.377131E-17	2.020735E-17
5.200000E+03	7.361922E-17	2.022058E-17
5.210000E+03	7.346827E-17	2.023363E-17
5.220000E+03	7.331378E-17	2.024509E-17
5.230000E+03	7.316049E-17	2.025616E-17
5.240000E+03	7.300378E-17	2.026545E-17
5.250000E+03	7.284834E-17	2.027417E-17
5.260000E+03	7.268956E-17	2.028093E-17
5.270000E+03	7.253673E-17	2.028824E-17
5.280000E+03	7.237602E-17	2.029213E-17
5.290000E+03	7.222128E-17	2.029640E-17
5.300000E+03	7.206333E-17	2.029839E-17
5.310000E+03	7.190679E-17	2.029933E-17
5.320000E+03	7.174712E-17	2.029785E-17
5.330000E+03	7.158888E-17	2.029518E-17
5.340000E+03	7.143208E-17	2.029125E-17
5.350000E+03	7.127222E-17	2.028473E-17
5.360000E+03	7.111383E-17	2.027683E-17
5.370000E+03	7.095690E-17	2.026750E-17
5.380000E+03	7.079697E-17	2.025542E-17
5.390000E+03	7.063852E-17	2.024181E-17
5.400000E+03	7.047710E-17	2.022535E-17
5.410000E+03	7.032159E-17	2.020854E-17
5.420000E+03	7.016313E-17	2.018880E-17
5.430000E+03	7.000173E-17	2.016609E-17
5.440000E+03	6.984181E-17	2.014165E-17
5.450000E+03	6.968334E-17	2.011543E-17
5.460000E+03	6.952632E-17	2.008742E-17
5.470000E+03	6.936638E-17	2.005631E-17
5.480000E+03	6.920787E-17	2.002335E-17
5.490000E+03	6.904646E-17	1.998725E-17
5.500000E+03	6.889076E-17	1.995049E-17
5.510000E+03	6.873213E-17	1.991055E-17
5.520000E+03	6.857059E-17	1.986742E-17
5.530000E+03	6.841041E-17	1.982233E-17
5.540000E+03	6.825157E-17	1.977526E-17
5.550000E+03	6.809404E-17	1.972619E-17
5.560000E+03	6.793356E-17	1.967389E-17
5.570000E+03	6.777857E-17	1.962080E-17
5.580000E+03	6.761639E-17	1.956324E-17
5.590000E+03	6.745965E-17	1.950487E-17
5.600000E+03	6.729990E-17	1.944325E-17
5.610000E+03	6.714132E-17	1.937960E-17
5.620000E+03	6.697971E-17	1.931272E-17
5.630000E+03	6.682338E-17	1.924499E-17
5.640000E+03	6.666398E-17	1.917404E-17
5.650000E+03	6.650563E-17	1.910107E-17
5.660000E+03	6.634417E-17	1.902489E-17
5.670000E+03	6.618371E-17	1.894671E-17
5.680000E+03	6.602421E-17	1.886653E-17
5.690000E+03	6.586563E-17	1.878436E-17
5.700000E+03	6.570385E-17	1.869906E-17
5.710000E+03	6.554293E-17	1.861180E-17
5.720000E+03	6.538283E-17	1.852261E-17
5.730000E+03	6.522350E-17	1.843150E-17
5.740000E+03	6.506086E-17	1.833736E-17
5.750000E+03	6.489894E-17	1.824135E-17
5.760000E+03	6.473768E-17	1.814350E-17
5.770000E+03	6.457703E-17	1.804383E-17
5.780000E+03	6.441297E-17	1.794127E-17
5.790000E+03	6.425343E-17	1.783806E-17
5.800000E+03	6.408643E-17	1.773093E-17
5.810000E+03	6.392386E-17	1.762322E-17
5.820000E+03	6.376170E-17	1.751388E-17
5.830000E+03	6.359595E-17	1.740185E-17
5.840000E+03	6.343053E-17	1.728827E-17
5.850000E+03	6.326538E-17	1.717320E-17
5.860000E+03	6.309654E-17	1.705560E-17
5.870000E+03	6.293181E-17	1.693767E-17
5.880000E+03	6.276331E-17	1.681735E-17
5.890000E+03	6.259490E-17	1.669573E-17
5.900000E+03	6.242654E-17	1.657290E-17
5.910000E+03	6.225430E-17	1.644788E-17
5.920000E+03	6.208202E-17	1.632177E-17
5.930000E+03	6.191349E-17	1.619566E-17
5.940000E+03	6.174096E-17	1.606758E-17
5.950000E+03	6.156440E-17	1.593764E-17
5.960000E+03	6.139143E-17	1.580791E-17
5.970000E+03	6.121434E-17	1.567648E-17
5.980000E+03	6.104071E-17	1.554541E-17
5.990000E+03	6.086287E-17	1.541284E-17
6.000000E+03	6.068459E-17	1.527984E-17
6.010000E+03	6.050204E-17	1.514555E-17
6.020000E+03	6.032270E-17	1.501198E-17
6.030000E+03	6.013901E-17	1.487734E-17
6.040000E+03	5.995468E-17	1.474269E-17
6.050000E+03	5.976965E-17	1.460813E-17
6.060000E+03	5.958387E-17	1.447379E-17
6.070000E+03	5.939729E-17	1.433977E-17
6.080000E+03	5.920985E-17	1.420620E-17
6.090000E+03	5.901782E-17	1.407233E-17
6.100000E+03	5.882486E-17	1.393918E-17
6.110000E+03	5.863456E-17	1.380775E-17
6.120000E+03	5.843956E-17	1.367644E-17
6.130000E+03	5.824347E-17	1.354626E-17
6.140000E+03	5.804261E-17	1.341651E-17
6.150000E+03	5.784421E-17	1.328903E-17
6.160000E+03	5.764098E-17	1.316229E-17
6.170000E+03	5.744009E-17	1.303809E-17
6.180000E+03	5.723431E-17	1.291495E-17
6.190000E+03	5.702718E-17	1.279385E-17
6.200000E+03	5.681869E-17	1.267495E-17
6.210000E+03	5.660878E-17	1.255838E-17
6.220000E+03	5.639742E-17	1.244432E-17
6.230000E+03	5.618105E-17	1.233214E-17
6.240000E+03	5.596671E-17	1.222355E-17
6.250000E+03	5.574732E-17	1.211716E-17
6.260000E+03	5.552987E-17	1.201465E-17
6.270000E+03	5.530736E-17	1.191464E-17
6.280000E+03	5.508325E-17	1.181804E-17
6.290000E+03	5.485754E-17	1.172498E-17
6.300000E+03	5.463021E-17	1.163560E-17
6.310000E+03	5.440124E-17	1.155001E-17
6.320000E+03	5.416722E-17	1.146761E-17
6.330000E+03	5.393499E-17	1.138996E-17
6.340000E+03	5.370111E-17	1.131642E-17
6.350000E+03	5.346221E-17	1.124637E-17
6.360000E+03	5.322508E-17	1.118132E-17
6.370000E+03	5.298298E-17	1.111990E-17
6.380000E+03	5.273930E-17	1.106288E-17
6.390000E+03	5.249406E-17	1.101029E-17
6.400000E+03	5.224730E-17	1.096217E-17
6.410000E+03	5.199904E-17	1.091853E-17
6.420000E+03	5.174931E-17	1.087935E-17
6.430000E+03	5.149816E-17	1.084462E-17
6.440000E+03	5.124562E-17	1.081432E-17
6.450000E+03	5.099174E-17	1.078839E-17
6.460000E+03	5.073657E-17	1.076678E-17
6.470000E+03	5.047696E-17	1.074874E-17
6.480000E+03	5.021940E-17	1.073555E-17
6.490000E+03	4.995754E-17	1.072574E-17
6.500000E+03	4.969783E-17	1.072058E-17
6.510000E+03	4.943399E-17	1.071859E-17
6.520000E+03	4.917240E-17	1.072101E-17
6.530000E+03	4.890685E-17	1.072633E-17
6.540000E+03	4.864057E-17	1.073510E-17
6.550000E+03	4.837364E-17	1.074718E-17
6.560000E+03	4.810920E-17	1.076310E-17
6.570000E+03	4.784118E-17	1.078132E-17
6.580000E+03	4.757276E-17	1.080239E-17
6.590000E+03	4.730400E-17	1.082614E-17
6.600000E+03	4.703500E-17	1.085241E-17
6.610000E+03	4.676584E-17	1.088103E-17
6.620000E+03	4.649661E-17	1.091186E-17
6.630000E+03	4.622739E-17	1.094472E-17
6.640000E+03	4.595827E-17	1.097947E-17
6.650000E+03	4.568639E-17	1.101523E-17
6.660000E+03	4.541772E-17	1.105329E-17
6.670000E+03	4.514941E-17	1.109277E-17
6.680000E+03	4.488152E-17	1.113354E-17
6.690000E+03	4.461127E-17	1.117474E-17
6.700000E+03	4.434450E-17	1.121767E-17
6.710000E+03	4.407840E-17	1.126150E-17
6.720000E+03	4.381022E-17	1.130536E-17
6.730000E+03	4.354571E-17	1.135059E-17
6.740000E+03	4.327929E-17	1.139563E-17
6.750000E+03	4.301666E-17	1.144183E-17
6.760000E+03	4.275229E-17	1.148761E-17
6.770000E+03	4.249182E-17	1.153437E-17
6.780000E+03	4.222979E-17	1.158052E-17
6.790000E+03	4.197174E-17	1.162748E-17
6.800000E+03	4.171229E-17	1.167366E-17
6.810000E+03	4.145424E-17	1.171974E-17
6.820000E+03	4.120031E-17	1.176642E-17
6.830000E+03	4.094519E-17	1.181210E-17
6.840000E+03	4.069164E-17	1.185749E-17
6.850000E+03	4.044234E-17	1.190330E-17
6.860000E+03	4.019205E-17	1.194795E-17
6.870000E+03	3.994347E-17	1.199215E-17
6.880000E+03	3.969666E-17	1.203587E-17
6.890000E+03	3.945164E-17	1.207907E-17
6.900000E+03	3.921104E-17	1.212250E-17
6.910000E+03	3.896974E-17	1.216456E-17
6.920000E+03	3.873037E-17	1.220601E-17
6.930000E+03	3.849296E-17	1.224682E-17
6.940000E+03	3.825754E-17	1.228697E-17
6.950000E+03	3.802415E-17	1.232645E-17
6.960000E+03	3.779281E-17	1.236524E-17
6.970000E+03	3.756357E-17	1.240332E-17
6.980000E+03	3.733644E-17	1.244070E-17
6.990000E+03	3.710901E-17	1.247653E-17
7.000000E+03	3.688620E-17	1.251246E-17
7.010000E+03	3.666557E-17	1.254767E-17
7.020000E+03	3.644716E-17	1.258214E-17
7.030000E+03	3.623097E-17	1.261589E-17
7.040000E+03	3.601465E-17	1.264808E-17
7.050000E+03	3.580298E-17	1.268038E-17
7.060000E+03	3.559359E-17	1.271196E-17
7.070000E+03	3.538415E-17	1.274199E-17
7.080000E+03	3.517937E-17	1.277216E-17
7.090000E+03	3.497458E-17	1.280079E-17
7.100000E+03	3.477445E-17	1.282958E-17
7.110000E+03	3.457436E-17	1.285685E-17
7.120000E+03	3.437891E-17	1.288431E-17
7.130000E+03	3.418354E-17	1.291026E-17
7.140000E+03	3.399055E-17	1.293557E-17
7.150000E+03	3.379993E-17	1.296026E-17
7.160000E+03	3.361394E-17	1.298521E-17
7.170000E+03	3.342809E-17	1.300870E-17
7.180000E+03	3.324462E-17	1.303161E-17
7.190000E+03	3.306354E-17	1.305396E-17
7.200000E+03	3.288485E-17	1.307576E-17
7.210000E+03	3.270854E-17	1.309703E-17
7.220000E+03	3.253462E-17	1.311780E-17
7.230000E+03	3.236091E-17	1.313719E-17
7.240000E+03	3.219176E-17	1.315698E-17
7.250000E+03	3.202498E-17	1.317631E-17
7.260000E+03	3.185843E-17	1.319432E-17
7.270000E+03	3.169640E-17	1.321279E-17
7.280000E+03	3.153460E-17	1.322996E-17
7.290000E+03	3.137729E-17	1.324764E-17
7.300000E+03	3.122022E-17	1.326406E-17
7.310000E+03	3.106550E-17	1.328012E-17
7.320000E+03	3.091313E-17	1.329584E-17
7.330000E+03	3.076309E-17	1.331125E-17
7.340000E+03	3.061539E-17	1.332636E-17
7.350000E+03	3.047000E-17	1.334118E-17
7.360000E+03	3.032693E-17	1.335574E-17
7.370000E+03	3.018615E-17	1.337006E-17
7.380000E+03	3.004562E-17	1.338323E-17
7.390000E+03	2.990942E-17	1.339710E-17
7.400000E+03	2.977346E-17	1.340986E-17
7.410000E+03	2.964178E-17	1.342336E-17
7.420000E+03	2.951034E-17	1.343577E-17
7.430000E+03	2.938113E-17	1.344804E-17
7.440000E+03	2.925416E-17	1.346017E-17
7.450000E+03	2.912941E-17	1.347219E-17
7.460000E+03	2.900686E-17	1.348410E-17
7.470000E+03	2.888650E-17	1.349593E-17
7.480000E+03	2.876832E-17	1.350769E-17
7.490000E+03	2.865033E-17	1.351846E-17
7.500000E+03	2.853647E-17	1.353011E-17
7.510000E+03	2.842279E-17	1.354081E-17
7.520000E+03	2.831124E-17	1.355149E-17
7.530000E+03	2.820180E-17	1.356217E-17
7.540000E+03	2.809447E-17	1.357285E-17
7.550000E+03	2.798923E-17	1.358356E-17
7.560000E+03	2.788605E-17	1.359430E-17
7.570000E+03	2.778301E-17	1.360416E-17
7.580000E+03	2.768394E-17	1.361501E-17
7.590000E+03	2.758498E-17	1.362499E-17
7.600000E+03	2.748995E-17	1.363599E-17
7.610000E+03	2.739501E-17	1.364614E-17
7.620000E+03	2.730206E-17	1.365640E-17
7.630000E+03	2.720918E-17	1.366581E-17
7.640000E+03	2.712015E-17	1.367630E-17
7.650000E+03	2.703306E-17	1.368693E-17
7.660000E+03	2.694601E-17	1.369674E-17
7.670000E+03	2.686088E-17	1.370670E-17
7.680000E+03	2.677952E-17	1.371778E-17
7.690000E+03	2.669815E-17	1.372807E-17
7.700000E+03	2.661678E-17	1.373756E-17
7.710000E+03	2.653913E-17	1.374821E-17
7.720000E+03	2.646331E-17	1.375905E-17
7.730000E+03	2.638744E-17	1.376911E-17
7.740000E+03	2.631522E-17	1.378035E-17
7.750000E+03	2.624293E-17	1.379084E-17
7.760000E+03	2.617241E-17	1.380153E-17
