#wls	flux	fluxerr
1.600000E+03	1.257003E-17	1.029531E-17
1.640000E+03	1.289261E-17	1.052607E-17
1.680000E+03	1.322409E-17	1.076155E-17
1.720000E+03	1.356688E-17	1.100356E-17
1.760000E+03	1.391878E-17	1.125013E-17
1.800000E+03	1.428472E-17	1.150507E-17
1.840000E+03	1.465999E-17	1.176438E-17
1.880000E+03	1.504714E-17	1.202992E-17
1.920000E+03	1.544366E-17	1.229945E-17
1.960000E+03	1.585484E-17	1.257700E-17
2.000000E+03	1.627541E-17	1.285813E-17
2.040000E+03	1.670803E-17	1.314473E-17
2.080000E+03	1.715271E-17	1.343652E-17
2.120000E+03	1.760940E-17	1.373323E-17
2.160000E+03	1.807802E-17	1.403450E-17
2.200000E+03	1.855845E-17	1.433998E-17
2.240000E+03	1.905053E-17	1.464922E-17
2.280000E+03	1.955405E-17	1.496178E-17
2.320000E+03	2.006875E-17	1.527713E-17
2.360000E+03	2.059771E-17	1.559728E-17
2.400000E+03	2.113389E-17	1.591657E-17
2.440000E+03	2.168370E-17	1.623948E-17
2.480000E+03	2.224333E-17	1.656278E-17
2.520000E+03	2.281226E-17	1.688572E-17
2.560000E+03	2.338994E-17	1.720752E-17
2.600000E+03	2.397575E-17	1.752737E-17
2.640000E+03	2.457292E-17	1.784722E-17
2.680000E+03	2.517702E-17	1.816343E-17
2.720000E+03	2.579131E-17	1.847795E-17
2.760000E+03	2.641113E-17	1.878700E-17
2.800000E+03	2.703566E-17	1.908959E-17
2.840000E+03	2.766827E-17	1.938769E-17
2.880000E+03	2.830398E-17	1.967737E-17
2.920000E+03	2.894625E-17	1.996061E-17
2.960000E+03	2.958992E-17	2.023341E-17
3.000000E+03	3.023407E-17	2.049476E-17
3.010000E+03	3.039775E-17	2.055999E-17
3.020000E+03	3.055660E-17	2.062120E-17
3.030000E+03	3.071964E-17	2.068445E-17
3.040000E+03	3.088233E-17	2.074669E-17
3.050000E+03	3.104466E-17	2.080790E-17
3.060000E+03	3.120661E-17	2.086806E-17
3.070000E+03	3.136817E-17	2.092716E-17
3.080000E+03	3.152932E-17	2.098518E-17
3.090000E+03	3.169467E-17	2.104519E-17
3.100000E+03	3.185496E-17	2.110101E-17
3.110000E+03	3.201945E-17	2.115879E-17
3.120000E+03	3.217881E-17	2.121235E-17
3.130000E+03	3.234237E-17	2.126784E-17
3.140000E+03	3.250545E-17	2.132217E-17
3.150000E+03	3.266803E-17	2.137532E-17
3.160000E+03	3.282536E-17	2.142419E-17
3.170000E+03	3.299162E-17	2.147803E-17
3.180000E+03	3.315261E-17	2.152756E-17
3.190000E+03	3.331303E-17	2.157585E-17
3.200000E+03	3.347288E-17	2.162289E-17
3.210000E+03	3.363693E-17	2.167177E-17
3.220000E+03	3.379558E-17	2.171628E-17
3.230000E+03	3.395844E-17	2.176260E-17
3.240000E+03	3.411586E-17	2.180452E-17
3.250000E+03	3.427747E-17	2.184823E-17
3.260000E+03	3.443844E-17	2.189062E-17
3.270000E+03	3.459875E-17	2.193167E-17
3.280000E+03	3.475840E-17	2.197137E-17
3.290000E+03	3.491737E-17	2.200972E-17
3.300000E+03	3.507564E-17	2.204669E-17
3.310000E+03	3.523320E-17	2.208230E-17
3.320000E+03	3.539498E-17	2.211959E-17
3.330000E+03	3.555110E-17	2.215240E-17
3.340000E+03	3.571144E-17	2.218689E-17
3.350000E+03	3.586607E-17	2.221687E-17
3.360000E+03	3.602492E-17	2.224851E-17
3.370000E+03	3.618300E-17	2.227871E-17
3.380000E+03	3.634032E-17	2.230746E-17
3.390000E+03	3.649686E-17	2.233476E-17
3.400000E+03	3.665261E-17	2.236059E-17
3.410000E+03	3.680755E-17	2.238495E-17
3.420000E+03	3.696169E-17	2.240784E-17
3.430000E+03	3.711501E-17	2.242925E-17
3.440000E+03	3.727256E-17	2.245221E-17
3.450000E+03	3.742422E-17	2.247063E-17
3.460000E+03	3.757504E-17	2.248755E-17
3.470000E+03	3.773009E-17	2.250600E-17
3.480000E+03	3.788429E-17	2.252293E-17
3.490000E+03	3.803254E-17	2.253531E-17
3.500000E+03	3.818503E-17	2.254920E-17
3.510000E+03	3.833665E-17	2.256155E-17
3.520000E+03	3.848739E-17	2.257237E-17
3.530000E+03	3.863726E-17	2.258166E-17
3.540000E+03	3.878624E-17	2.258941E-17
3.550000E+03	3.893433E-17	2.259561E-17
3.560000E+03	3.908153E-17	2.260028E-17
3.570000E+03	3.922782E-17	2.260340E-17
3.580000E+03	3.937838E-17	2.260795E-17
3.590000E+03	3.952286E-17	2.260798E-17
3.600000E+03	3.967162E-17	2.260943E-17
3.610000E+03	3.981427E-17	2.260636E-17
3.620000E+03	3.996120E-17	2.260470E-17
3.630000E+03	4.010201E-17	2.259855E-17
3.640000E+03	4.024711E-17	2.259379E-17
3.650000E+03	4.039130E-17	2.258747E-17
3.660000E+03	4.053456E-17	2.257961E-17
3.670000E+03	4.067690E-17	2.257020E-17
3.680000E+03	4.081307E-17	2.255635E-17
3.690000E+03	4.095355E-17	2.254387E-17
3.700000E+03	4.109310E-17	2.252986E-17
3.710000E+03	4.123698E-17	2.251719E-17
3.720000E+03	4.137468E-17	2.250011E-17
3.730000E+03	4.151144E-17	2.248152E-17
3.740000E+03	4.164727E-17	2.246141E-17
3.750000E+03	4.178217E-17	2.243980E-17
3.760000E+03	4.192143E-17	2.241951E-17
3.770000E+03	4.205446E-17	2.239490E-17
3.780000E+03	4.218657E-17	2.236880E-17
3.790000E+03	4.232305E-17	2.234403E-17
3.800000E+03	4.245330E-17	2.231498E-17
3.810000E+03	4.258793E-17	2.228725E-17
3.820000E+03	4.271632E-17	2.225529E-17
3.830000E+03	4.284911E-17	2.222465E-17
3.840000E+03	4.297565E-17	2.218981E-17
3.850000E+03	4.310659E-17	2.215630E-17
3.860000E+03	4.323662E-17	2.212136E-17
3.870000E+03	4.336039E-17	2.208229E-17
3.880000E+03	4.348859E-17	2.204455E-17
3.890000E+03	4.361587E-17	2.200542E-17
3.900000E+03	4.374223E-17	2.196492E-17
3.910000E+03	4.386234E-17	2.192038E-17
3.920000E+03	4.398689E-17	2.187719E-17
3.930000E+03	4.411053E-17	2.183266E-17
3.940000E+03	4.423326E-17	2.178681E-17
3.950000E+03	4.435508E-17	2.173967E-17
3.960000E+03	4.447065E-17	2.168863E-17
3.970000E+03	4.459066E-17	2.163895E-17
3.980000E+03	4.470978E-17	2.158802E-17
3.990000E+03	4.482799E-17	2.153586E-17
4.000000E+03	4.494530E-17	2.148249E-17
4.010000E+03	4.506171E-17	2.142793E-17
4.020000E+03	4.517723E-17	2.137219E-17
4.030000E+03	4.528647E-17	2.131278E-17
4.040000E+03	4.540018E-17	2.125477E-17
4.050000E+03	4.551299E-17	2.119566E-17
4.060000E+03	4.562490E-17	2.113546E-17
4.070000E+03	4.573592E-17	2.107419E-17
4.080000E+03	4.584602E-17	2.101189E-17
4.090000E+03	4.594985E-17	2.094611E-17
4.100000E+03	4.605815E-17	2.088181E-17
4.110000E+03	4.616554E-17	2.081655E-17
4.120000E+03	4.627202E-17	2.075034E-17
4.130000E+03	4.637759E-17	2.068323E-17
4.140000E+03	4.647686E-17	2.061284E-17
4.150000E+03	4.658060E-17	2.054399E-17
4.160000E+03	4.668340E-17	2.047432E-17
4.170000E+03	4.677990E-17	2.040150E-17
4.180000E+03	4.688084E-17	2.033028E-17
4.190000E+03	4.698085E-17	2.025832E-17
4.200000E+03	4.707453E-17	2.018335E-17
4.210000E+03	4.717263E-17	2.011003E-17
4.220000E+03	4.726440E-17	2.003380E-17
4.230000E+03	4.736058E-17	1.995926E-17
4.240000E+03	4.745040E-17	1.988190E-17
4.250000E+03	4.753924E-17	1.980403E-17
4.260000E+03	4.763246E-17	1.972793E-17
4.270000E+03	4.771930E-17	1.964916E-17
4.280000E+03	4.780512E-17	1.957000E-17
4.290000E+03	4.788992E-17	1.949049E-17
4.300000E+03	4.797368E-17	1.941068E-17
4.310000E+03	4.806175E-17	1.933276E-17
4.320000E+03	4.814339E-17	1.925244E-17
4.330000E+03	4.822395E-17	1.917194E-17
4.340000E+03	4.829805E-17	1.908919E-17
4.350000E+03	4.837640E-17	1.900848E-17
4.360000E+03	4.845363E-17	1.892773E-17
4.370000E+03	4.852971E-17	1.884699E-17
4.380000E+03	4.859926E-17	1.876422E-17
4.390000E+03	4.867299E-17	1.868364E-17
4.400000E+03	4.874017E-17	1.860117E-17
4.410000E+03	4.881148E-17	1.852096E-17
4.420000E+03	4.887619E-17	1.843898E-17
4.430000E+03	4.894498E-17	1.835933E-17
4.440000E+03	4.900714E-17	1.827806E-17
4.450000E+03	4.906798E-17	1.819722E-17
4.460000E+03	4.912750E-17	1.811688E-17
4.470000E+03	4.918565E-17	1.803708E-17
4.480000E+03	4.924241E-17	1.795789E-17
4.490000E+03	4.929775E-17	1.787935E-17
4.500000E+03	4.934633E-17	1.779962E-17
4.510000E+03	4.939876E-17	1.772259E-17
4.520000E+03	4.944438E-17	1.764450E-17
4.530000E+03	4.949378E-17	1.756921E-17
4.540000E+03	4.953631E-17	1.749299E-17
4.550000E+03	4.957725E-17	1.741780E-17
4.560000E+03	4.962185E-17	1.734556E-17
4.570000E+03	4.965951E-17	1.727260E-17
4.580000E+03	4.969547E-17	1.720084E-17
4.590000E+03	4.972971E-17	1.713035E-17
4.600000E+03	4.975691E-17	1.705938E-17
4.610000E+03	4.978758E-17	1.699160E-17
4.620000E+03	4.981116E-17	1.692347E-17
4.630000E+03	4.983813E-17	1.685862E-17
4.640000E+03	4.985793E-17	1.679356E-17
4.650000E+03	4.988103E-17	1.673187E-17
4.660000E+03	4.989689E-17	1.667009E-17
4.670000E+03	4.991074E-17	1.661003E-17
4.680000E+03	4.992251E-17	1.655175E-17
4.690000E+03	4.992697E-17	1.649356E-17
4.700000E+03	4.993449E-17	1.643897E-17
4.710000E+03	4.993982E-17	1.638629E-17
4.720000E+03	4.993773E-17	1.633386E-17
4.730000E+03	4.993337E-17	1.628344E-17
4.740000E+03	4.993188E-17	1.623675E-17
4.750000E+03	4.992287E-17	1.619044E-17
4.760000E+03	4.991146E-17	1.614624E-17
4.770000E+03	4.989764E-17	1.610416E-17
4.780000E+03	4.987622E-17	1.606258E-17
4.790000E+03	4.985746E-17	1.602483E-17
4.800000E+03	4.983109E-17	1.598760E-17
4.810000E+03	4.980735E-17	1.595419E-17
4.820000E+03	4.977603E-17	1.592130E-17
4.830000E+03	4.974226E-17	1.589056E-17
4.840000E+03	4.970611E-17	1.586194E-17
4.850000E+03	4.966761E-17	1.583539E-17
4.860000E+03	4.962683E-17	1.581088E-17
4.870000E+03	4.957878E-17	1.578675E-17
4.880000E+03	4.953364E-17	1.576617E-17
4.890000E+03	4.948138E-17	1.574586E-17
4.900000E+03	4.942712E-17	1.572739E-17
4.910000E+03	4.937093E-17	1.571068E-17
4.920000E+03	4.931288E-17	1.569569E-17
4.930000E+03	4.925302E-17	1.568233E-17
4.940000E+03	4.919144E-17	1.567055E-17
4.950000E+03	4.912323E-17	1.565871E-17
4.960000E+03	4.905838E-17	1.564989E-17
4.970000E+03	4.898706E-17	1.564086E-17
4.980000E+03	4.891429E-17	1.563315E-17
4.990000E+03	4.884012E-17	1.562668E-17
5.000000E+03	4.876462E-17	1.562138E-17
5.010000E+03	4.868784E-17	1.561718E-17
5.020000E+03	4.860984E-17	1.561402E-17
5.030000E+03	4.852583E-17	1.561025E-17
5.040000E+03	4.844558E-17	1.560894E-17
5.050000E+03	4.835945E-17	1.560690E-17
5.060000E+03	4.827235E-17	1.560562E-17
5.070000E+03	4.818433E-17	1.560504E-17
5.080000E+03	4.809544E-17	1.560508E-17
5.090000E+03	4.800096E-17	1.560414E-17
5.100000E+03	4.791048E-17	1.560525E-17
5.110000E+03	4.781454E-17	1.560525E-17
5.120000E+03	4.772267E-17	1.560718E-17
5.130000E+03	4.762546E-17	1.560789E-17
5.140000E+03	4.752767E-17	1.560886E-17
5.150000E+03	4.742936E-17	1.561003E-17
5.160000E+03	4.732590E-17	1.560981E-17
5.170000E+03	4.722667E-17	1.561124E-17
5.180000E+03	4.712239E-17	1.561117E-17
5.190000E+03	4.702239E-17	1.561263E-17
5.200000E+03	4.691745E-17	1.561251E-17
5.210000E+03	4.681223E-17	1.561228E-17
5.220000E+03	4.670676E-17	1.561192E-17
5.230000E+03	4.660109E-17	1.561136E-17
5.240000E+03	4.649068E-17	1.560904E-17
5.250000E+03	4.638468E-17	1.560799E-17
5.260000E+03	4.627403E-17	1.560510E-17
5.270000E+03	4.616783E-17	1.560339E-17
5.280000E+03	4.605705E-17	1.559977E-17
5.290000E+03	4.594625E-17	1.559573E-17
5.300000E+03	4.583545E-17	1.559125E-17
5.310000E+03	4.572021E-17	1.558477E-17
5.320000E+03	4.560949E-17	1.557931E-17
5.330000E+03	4.549440E-17	1.557179E-17
5.340000E+03	4.538384E-17	1.556523E-17
5.350000E+03	4.526897E-17	1.555657E-17
5.360000E+03	4.515424E-17	1.554731E-17
5.370000E+03	4.503966E-17	1.553741E-17
5.380000E+03	4.492525E-17	1.552686E-17
5.390000E+03	4.481103E-17	1.551565E-17
5.400000E+03	4.469266E-17	1.550224E-17
5.410000E+03	4.457884E-17	1.548964E-17
5.420000E+03	4.446092E-17	1.547482E-17
5.430000E+03	4.434326E-17	1.545927E-17
5.440000E+03	4.422585E-17	1.544297E-17
5.450000E+03	4.410869E-17	1.542593E-17
5.460000E+03	4.399181E-17	1.540811E-17
5.470000E+03	4.387520E-17	1.538953E-17
5.480000E+03	4.375463E-17	1.536868E-17
5.490000E+03	4.363859E-17	1.534853E-17
5.500000E+03	4.351862E-17	1.532610E-17
5.510000E+03	4.340315E-17	1.530436E-17
5.520000E+03	4.328378E-17	1.528034E-17
5.530000E+03	4.316473E-17	1.525552E-17
5.540000E+03	4.304597E-17	1.522989E-17
5.550000E+03	4.292338E-17	1.520200E-17
5.560000E+03	4.280525E-17	1.517477E-17
5.570000E+03	4.268741E-17	1.514674E-17
5.580000E+03	4.256576E-17	1.511646E-17
5.590000E+03	4.244443E-17	1.508538E-17
5.600000E+03	4.232747E-17	1.505497E-17
5.610000E+03	4.220673E-17	1.502232E-17
5.620000E+03	4.208629E-17	1.498889E-17
5.630000E+03	4.196613E-17	1.495469E-17
5.640000E+03	4.184223E-17	1.491830E-17
5.650000E+03	4.172263E-17	1.488259E-17
5.660000E+03	4.160329E-17	1.484613E-17
5.670000E+03	4.148022E-17	1.480752E-17
5.680000E+03	4.135741E-17	1.476818E-17
5.690000E+03	4.123881E-17	1.472955E-17
5.700000E+03	4.111649E-17	1.468881E-17
5.710000E+03	4.099439E-17	1.464739E-17
5.720000E+03	4.087252E-17	1.460530E-17
5.730000E+03	4.075084E-17	1.456255E-17
5.740000E+03	4.062547E-17	1.451777E-17
5.750000E+03	4.050418E-17	1.447377E-17
5.760000E+03	4.038306E-17	1.442915E-17
5.770000E+03	4.025823E-17	1.438257E-17
5.780000E+03	4.013356E-17	1.433542E-17
5.790000E+03	4.001288E-17	1.428910E-17
5.800000E+03	3.988847E-17	1.424087E-17
5.810000E+03	3.976419E-17	1.419214E-17
5.820000E+03	3.964001E-17	1.414292E-17
5.830000E+03	3.951591E-17	1.409324E-17
5.840000E+03	3.939189E-17	1.404311E-17
5.850000E+03	3.926416E-17	1.399122E-17
5.860000E+03	3.914024E-17	1.394028E-17
5.870000E+03	3.901261E-17	1.388762E-17
5.880000E+03	3.888874E-17	1.383595E-17
5.890000E+03	3.876114E-17	1.378264E-17
5.900000E+03	3.863724E-17	1.373034E-17
5.910000E+03	3.850962E-17	1.367645E-17
5.920000E+03	3.838196E-17	1.362233E-17
5.930000E+03	3.825426E-17	1.356798E-17
5.940000E+03	3.812649E-17	1.351345E-17
5.950000E+03	3.799864E-17	1.345875E-17
5.960000E+03	3.786707E-17	1.340263E-17
5.970000E+03	3.773903E-17	1.334770E-17
5.980000E+03	3.761087E-17	1.329269E-17
5.990000E+03	3.747897E-17	1.323635E-17
6.000000E+03	3.735052E-17	1.318127E-17
6.010000E+03	3.721833E-17	1.312493E-17
6.020000E+03	3.708953E-17	1.306990E-17
6.030000E+03	3.695700E-17	1.301368E-17
6.040000E+03	3.682428E-17	1.295756E-17
6.050000E+03	3.669136E-17	1.290158E-17
6.060000E+03	3.655823E-17	1.284575E-17
6.070000E+03	3.642487E-17	1.279012E-17
6.080000E+03	3.629127E-17	1.273472E-17
6.090000E+03	3.615743E-17	1.267956E-17
6.100000E+03	3.602333E-17	1.262468E-17
6.110000E+03	3.588551E-17	1.256890E-17
6.120000E+03	3.575087E-17	1.251467E-17
6.130000E+03	3.561594E-17	1.246081E-17
6.140000E+03	3.547731E-17	1.240614E-17
6.150000E+03	3.534178E-17	1.235310E-17
6.160000E+03	3.520257E-17	1.229932E-17
6.170000E+03	3.506306E-17	1.224602E-17
6.180000E+03	3.492325E-17	1.219324E-17
6.190000E+03	3.478648E-17	1.214216E-17
6.200000E+03	3.464604E-17	1.209046E-17
6.210000E+03	3.450528E-17	1.203936E-17
6.220000E+03	3.436421E-17	1.198886E-17
6.230000E+03	3.422281E-17	1.193899E-17
6.240000E+03	3.408109E-17	1.188977E-17
6.250000E+03	3.393905E-17	1.184123E-17
6.260000E+03	3.379669E-17	1.179338E-17
6.270000E+03	3.365077E-17	1.174512E-17
6.280000E+03	3.350777E-17	1.169872E-17
6.290000E+03	3.336446E-17	1.165307E-17
6.300000E+03	3.321763E-17	1.160706E-17
6.310000E+03	3.307370E-17	1.156296E-17
6.320000E+03	3.292629E-17	1.151853E-17
6.330000E+03	3.278177E-17	1.147603E-17
6.340000E+03	3.263381E-17	1.143324E-17
6.350000E+03	3.248558E-17	1.139128E-17
6.360000E+03	3.234022E-17	1.135126E-17
6.370000E+03	3.219149E-17	1.131099E-17
6.380000E+03	3.204252E-17	1.127158E-17
6.390000E+03	3.189332E-17	1.123302E-17
6.400000E+03	3.174698E-17	1.119641E-17
6.410000E+03	3.159736E-17	1.115959E-17
6.420000E+03	3.144756E-17	1.112363E-17
6.430000E+03	3.129758E-17	1.108853E-17
6.440000E+03	3.114744E-17	1.105430E-17
6.450000E+03	3.099715E-17	1.102094E-17
6.460000E+03	3.084376E-17	1.098737E-17
6.470000E+03	3.069325E-17	1.095572E-17
6.480000E+03	3.054264E-17	1.092491E-17
6.490000E+03	3.039196E-17	1.089495E-17
6.500000E+03	3.023829E-17	1.086477E-17
6.510000E+03	3.008752E-17	1.083646E-17
6.520000E+03	2.993673E-17	1.080896E-17
6.530000E+03	2.978306E-17	1.078122E-17
6.540000E+03	2.963230E-17	1.075532E-17
6.550000E+03	2.947872E-17	1.072915E-17
6.560000E+03	2.932808E-17	1.070478E-17
6.570000E+03	2.917468E-17	1.068013E-17
6.580000E+03	2.902424E-17	1.065724E-17
6.590000E+03	2.887111E-17	1.063404E-17
6.600000E+03	2.871817E-17	1.061154E-17
6.610000E+03	2.856819E-17	1.059075E-17
6.620000E+03	2.841565E-17	1.056960E-17
6.630000E+03	2.826336E-17	1.054910E-17
6.640000E+03	2.811132E-17	1.052923E-17
6.650000E+03	2.796230E-17	1.051099E-17
6.660000E+03	2.781086E-17	1.049233E-17
6.670000E+03	2.765976E-17	1.047424E-17
6.680000E+03	2.750901E-17	1.045671E-17
6.690000E+03	2.735865E-17	1.043971E-17
6.700000E+03	2.720869E-17	1.042323E-17
6.710000E+03	2.705916E-17	1.040725E-17
6.720000E+03	2.691008E-17	1.039175E-17
6.730000E+03	2.676148E-17	1.037671E-17
6.740000E+03	2.661337E-17	1.036211E-17
6.750000E+03	2.646319E-17	1.034692E-17
6.760000E+03	2.631616E-17	1.033315E-17
6.770000E+03	2.616969E-17	1.031976E-17
6.780000E+03	2.602380E-17	1.030674E-17
6.790000E+03	2.587599E-17	1.029307E-17
6.800000E+03	2.573134E-17	1.028073E-17
6.810000E+03	2.558735E-17	1.026872E-17
6.820000E+03	2.544153E-17	1.025600E-17
6.830000E+03	2.529890E-17	1.024456E-17
6.840000E+03	2.515698E-17	1.023340E-17
6.850000E+03	2.501333E-17	1.022149E-17
6.860000E+03	2.487289E-17	1.021082E-17
6.870000E+03	2.473078E-17	1.019938E-17
6.880000E+03	2.459190E-17	1.018915E-17
6.890000E+03	2.445141E-17	1.017812E-17
6.900000E+03	2.431176E-17	1.016728E-17
6.910000E+03	2.417534E-17	1.015761E-17
6.920000E+03	2.403741E-17	1.014710E-17
6.930000E+03	2.390036E-17	1.013675E-17
6.940000E+03	2.376656E-17	1.012754E-17
6.950000E+03	2.363131E-17	1.011747E-17
6.960000E+03	2.349700E-17	1.010751E-17
6.970000E+03	2.336363E-17	1.009768E-17
6.980000E+03	2.323122E-17	1.008794E-17
6.990000E+03	2.309977E-17	1.007831E-17
7.000000E+03	2.297157E-17	1.006976E-17
7.010000E+03	2.284208E-17	1.006030E-17
7.020000E+03	2.271360E-17	1.005092E-17
7.030000E+03	2.258612E-17	1.004161E-17
7.040000E+03	2.245745E-17	1.003138E-17
7.050000E+03	2.233204E-17	1.002220E-17
7.060000E+03	2.220767E-17	1.001307E-17
7.070000E+03	2.208434E-17	1.000400E-17
7.080000E+03	2.196208E-17	9.994975E-18
7.090000E+03	2.184087E-17	9.985997E-18
7.100000E+03	2.171858E-17	9.976071E-18
7.110000E+03	2.159954E-17	9.967176E-18
7.120000E+03	2.148157E-17	9.958318E-18
7.130000E+03	2.136470E-17	9.949496E-18
7.140000E+03	2.124680E-17	9.939719E-18
7.150000E+03	2.113213E-17	9.930964E-18
7.160000E+03	2.101646E-17	9.921254E-18
7.170000E+03	2.090400E-17	9.912563E-18
7.180000E+03	2.079058E-17	9.902915E-18
7.190000E+03	2.068035E-17	9.894286E-18
7.200000E+03	2.056918E-17	9.884701E-18
7.210000E+03	2.045915E-17	9.875148E-18
7.220000E+03	2.035229E-17	9.866614E-18
7.230000E+03	2.024453E-17	9.857127E-18
7.240000E+03	2.013790E-17	9.847674E-18
7.250000E+03	2.003242E-17	9.838256E-18
7.260000E+03	1.993007E-17	9.829860E-18
7.270000E+03	1.982686E-17	9.820518E-18
7.280000E+03	1.972478E-17	9.811215E-18
7.290000E+03	1.962384E-17	9.801955E-18
7.300000E+03	1.952404E-17	9.792738E-18
7.310000E+03	1.942538E-17	9.783567E-18
7.320000E+03	1.932785E-17	9.774444E-18
7.330000E+03	1.923145E-17	9.765372E-18
7.340000E+03	1.913618E-17	9.756352E-18
7.350000E+03	1.904012E-17	9.746406E-18
7.360000E+03	1.894711E-17	9.737499E-18
7.370000E+03	1.885523E-17	9.728652E-18
7.380000E+03	1.876446E-17	9.719869E-18
7.390000E+03	1.867291E-17	9.710170E-18
7.400000E+03	1.858437E-17	9.701520E-18
7.410000E+03	1.849507E-17	9.691962E-18
7.420000E+03	1.840875E-17	9.683457E-18
7.430000E+03	1.832167E-17	9.674050E-18
7.440000E+03	1.823754E-17	9.665702E-18
7.450000E+03	1.815266E-17	9.656457E-18
7.460000E+03	1.806888E-17	9.647297E-18
7.470000E+03	1.798801E-17	9.639205E-18
7.480000E+03	1.790640E-17	9.630225E-18
7.490000E+03	1.782587E-17	9.621338E-18
7.500000E+03	1.774642E-17	9.612549E-18
7.510000E+03	1.766803E-17	9.603859E-18
7.520000E+03	1.759070E-17	9.595270E-18
7.530000E+03	1.751443E-17	9.586787E-18
7.540000E+03	1.743921E-17	9.578411E-18
7.550000E+03	1.736503E-17	9.570145E-18
7.560000E+03	1.729189E-17	9.561991E-18
7.570000E+03	1.721978E-17	9.553953E-18
7.580000E+03	1.714693E-17	9.545055E-18
7.590000E+03	1.707686E-17	9.537254E-18
7.600000E+03	1.700779E-17	9.529575E-18
7.610000E+03	1.693799E-17	9.521045E-18
7.620000E+03	1.687093E-17	9.513617E-18
7.630000E+03	1.680313E-17	9.505342E-18
7.640000E+03	1.673803E-17	9.498174E-18
7.650000E+03	1.667219E-17	9.490163E-18
7.660000E+03	1.660732E-17	9.482287E-18
7.670000E+03	1.654342E-17	9.474547E-18
7.680000E+03	1.648218E-17	9.467922E-18
7.690000E+03	1.642018E-17	9.460462E-18
7.700000E+03	1.635912E-17	9.453143E-18
7.710000E+03	1.629899E-17	9.445967E-18
7.720000E+03	1.623979E-17	9.438936E-18
7.730000E+03	1.618150E-17	9.432052E-18
7.740000E+03	1.612412E-17	9.425315E-18
7.750000E+03	1.606597E-17	9.417750E-18
7.760000E+03	1.601039E-17	9.411312E-18
