#wls	flux	fluxerr
1.544402E+03	1.203793E-01	3.333784E-02
1.583012E+03	1.254404E-01	3.461905E-02
1.621622E+03	1.308295E-01	3.597702E-02
1.660232E+03	1.365653E-01	3.741531E-02
1.698842E+03	1.427058E-01	3.894809E-02
1.737452E+03	1.492743E-01	4.057979E-02
1.776062E+03	1.563158E-01	4.232051E-02
1.814672E+03	1.638575E-01	4.417516E-02
1.853282E+03	1.719929E-01	4.616632E-02
1.891892E+03	1.807339E-01	4.829416E-02
1.930502E+03	1.902076E-01	5.058922E-02
1.969112E+03	2.004806E-01	5.306531E-02
2.007722E+03	2.116483E-01	5.574324E-02
2.046332E+03	2.238128E-01	5.864487E-02
2.084942E+03	2.370826E-01	6.179295E-02
2.123552E+03	2.516550E-01	6.523228E-02
2.162162E+03	2.676579E-01	6.898848E-02
2.200772E+03	2.851957E-01	7.307986E-02
2.239382E+03	3.045235E-01	7.756217E-02
2.277992E+03	3.256956E-01	8.243830E-02
2.316602E+03	3.489155E-01	8.774775E-02
2.355212E+03	3.742591E-01	9.349631E-02
2.393822E+03	4.018224E-01	9.969356E-02
2.432432E+03	4.317207E-01	1.063526E-01
2.471042E+03	4.639816E-01	1.134637E-01
2.509653E+03	4.987121E-01	1.210351E-01
2.548263E+03	5.359180E-01	1.290495E-01
2.586873E+03	5.755246E-01	1.374695E-01
2.625483E+03	6.175592E-01	1.462814E-01
2.664093E+03	6.617983E-01	1.554119E-01
2.702703E+03	7.081448E-01	1.648180E-01
2.741313E+03	7.563019E-01	1.744107E-01
2.779923E+03	8.058811E-01	1.840822E-01
2.818533E+03	8.564756E-01	1.937231E-01
2.857143E+03	9.076977E-01	2.032317E-01
2.895753E+03	9.592594E-01	2.125314E-01
2.905405E+03	9.721961E-01	2.148210E-01
2.915058E+03	9.851002E-01	2.170848E-01
2.924710E+03	9.979994E-01	2.193289E-01
2.934363E+03	1.010877E+00	2.215495E-01
2.944015E+03	1.023760E+00	2.237522E-01
2.953668E+03	1.036629E+00	2.259331E-01
2.963320E+03	1.049426E+00	2.280790E-01
2.972973E+03	1.062215E+00	2.302040E-01
2.982625E+03	1.074936E+00	2.322951E-01
2.992278E+03	1.087611E+00	2.343568E-01
3.001931E+03	1.100219E+00	2.363849E-01
3.011583E+03	1.112782E+00	2.383837E-01
3.021236E+03	1.125236E+00	2.403397E-01
3.030888E+03	1.137641E+00	2.422658E-01
3.040541E+03	1.149892E+00	2.441395E-01
3.050193E+03	1.162090E+00	2.459824E-01
3.059846E+03	1.174167E+00	2.477804E-01
3.069498E+03	1.186100E+00	2.495285E-01
3.079151E+03	1.197904E+00	2.512300E-01
3.088803E+03	1.209593E+00	2.528880E-01
3.098456E+03	1.221099E+00	2.544884E-01
3.108108E+03	1.232435E+00	2.560343E-01
3.117761E+03	1.243573E+00	2.575202E-01
3.127413E+03	1.254564E+00	2.589565E-01
3.137066E+03	1.265339E+00	2.603294E-01
3.146718E+03	1.275867E+00	2.616332E-01
3.156371E+03	1.286197E+00	2.628779E-01
3.166023E+03	1.296260E+00	2.640497E-01
3.175676E+03	1.306063E+00	2.651506E-01
3.185328E+03	1.315573E+00	2.661748E-01
3.194981E+03	1.324800E+00	2.671240E-01
3.204633E+03	1.333709E+00	2.679924E-01
3.214286E+03	1.342307E+00	2.687815E-01
3.223938E+03	1.350526E+00	2.694785E-01
3.233591E+03	1.358406E+00	2.700923E-01
3.243243E+03	1.365882E+00	2.706103E-01
3.252896E+03	1.372959E+00	2.710343E-01
3.262548E+03	1.379606E+00	2.713593E-01
3.272201E+03	1.385762E+00	2.715740E-01
3.281853E+03	1.391468E+00	2.716873E-01
3.291506E+03	1.396630E+00	2.716821E-01
3.301158E+03	1.401290E+00	2.715676E-01
3.310811E+03	1.405362E+00	2.713282E-01
3.320463E+03	1.408858E+00	2.709674E-01
3.330116E+03	1.411697E+00	2.704712E-01
3.339768E+03	1.413897E+00	2.698443E-01
3.349421E+03	1.415416E+00	2.690801E-01
3.359073E+03	1.416187E+00	2.681676E-01
3.368726E+03	1.416208E+00	2.671079E-01
3.378378E+03	1.415423E+00	2.658922E-01
3.388031E+03	1.413782E+00	2.645134E-01
3.397683E+03	1.411298E+00	2.629753E-01
3.407336E+03	1.407906E+00	2.612683E-01
3.416988E+03	1.403628E+00	2.593983E-01
3.426641E+03	1.398388E+00	2.573537E-01
3.436293E+03	1.392245E+00	2.551473E-01
3.445946E+03	1.385137E+00	2.527701E-01
3.455598E+03	1.377084E+00	2.502281E-01
3.465251E+03	1.368087E+00	2.475238E-01
3.474903E+03	1.358131E+00	2.446567E-01
3.484556E+03	1.347208E+00	2.416278E-01
3.494208E+03	1.335382E+00	2.384512E-01
3.503861E+03	1.322699E+00	2.351370E-01
3.513514E+03	1.309226E+00	2.316993E-01
3.523166E+03	1.295030E+00	2.281521E-01
3.532819E+03	1.280179E+00	2.245091E-01
3.542471E+03	1.264739E+00	2.207836E-01
3.552124E+03	1.248778E+00	2.169889E-01
3.561776E+03	1.232377E+00	2.131408E-01
3.571429E+03	1.215600E+00	2.092510E-01
3.581081E+03	1.198489E+00	2.053283E-01
3.590734E+03	1.181122E+00	2.013867E-01
3.600386E+03	1.163554E+00	1.974364E-01
3.610039E+03	1.145825E+00	1.934848E-01
3.619691E+03	1.128016E+00	1.895462E-01
3.629344E+03	1.110146E+00	1.856241E-01
3.638996E+03	1.092275E+00	1.817288E-01
3.648649E+03	1.074446E+00	1.778677E-01
3.658301E+03	1.056685E+00	1.740450E-01
3.667954E+03	1.039057E+00	1.702712E-01
3.677606E+03	1.021565E+00	1.665470E-01
3.687259E+03	1.004266E+00	1.628814E-01
3.696911E+03	9.871620E-01	1.592741E-01
3.706564E+03	9.702884E-01	1.557307E-01
3.716216E+03	9.536655E-01	1.522540E-01
3.725869E+03	9.373225E-01	1.488481E-01
3.735521E+03	9.212505E-01	1.455111E-01
3.745174E+03	9.054844E-01	1.422478E-01
3.754826E+03	8.900115E-01	1.390557E-01
3.764479E+03	8.748602E-01	1.359386E-01
3.774131E+03	8.600352E-01	1.328964E-01
3.783784E+03	8.455191E-01	1.299258E-01
3.793436E+03	8.313423E-01	1.270309E-01
3.803089E+03	8.174853E-01	1.242077E-01
3.812741E+03	8.039456E-01	1.214554E-01
3.822394E+03	7.907383E-01	1.187754E-01
3.832046E+03	7.778412E-01	1.161636E-01
3.841699E+03	7.652580E-01	1.136200E-01
3.851351E+03	7.529907E-01	1.111441E-01
3.861004E+03	7.410157E-01	1.087318E-01
3.870656E+03	7.293430E-01	1.063837E-01
3.880309E+03	7.179640E-01	1.040980E-01
3.889961E+03	7.068559E-01	1.018707E-01
3.899614E+03	6.960341E-01	9.970346E-02
3.909266E+03	6.854749E-01	9.759214E-02
3.918919E+03	6.751714E-01	9.553522E-02
3.928571E+03	6.651301E-01	9.353301E-02
3.938224E+03	6.553291E-01	9.158183E-02
3.947876E+03	6.457684E-01	8.968114E-02
3.957529E+03	6.364413E-01	8.782947E-02
3.967181E+03	6.273407E-01	8.602529E-02
3.976834E+03	6.184607E-01	8.426727E-02
3.986486E+03	6.097956E-01	8.255413E-02
3.996139E+03	6.013331E-01	8.088373E-02
4.005792E+03	5.930747E-01	7.925579E-02
4.015444E+03	5.850095E-01	7.766841E-02
4.025097E+03	5.771392E-01	7.612133E-02
4.034749E+03	5.694485E-01	7.461213E-02
4.044402E+03	5.619396E-01	7.314068E-02
4.054054E+03	5.546089E-01	7.170610E-02
4.063707E+03	5.474432E-01	7.030626E-02
4.073359E+03	5.404396E-01	6.894044E-02
4.083012E+03	5.335966E-01	6.760808E-02
4.092664E+03	5.269015E-01	6.630719E-02
4.102317E+03	5.203535E-01	6.503736E-02
4.111969E+03	5.139462E-01	6.379746E-02
4.121622E+03	5.076737E-01	6.258642E-02
4.131274E+03	5.015253E-01	6.140268E-02
4.140927E+03	4.954965E-01	6.024538E-02
4.150579E+03	4.895773E-01	5.911307E-02
4.160232E+03	4.837679E-01	5.800551E-02
4.169884E+03	4.780501E-01	5.692032E-02
4.179537E+03	4.724237E-01	5.585728E-02
4.189189E+03	4.668763E-01	5.481474E-02
4.198842E+03	4.614034E-01	5.379199E-02
4.208494E+03	4.560055E-01	5.278898E-02
4.218147E+03	4.506737E-01	5.180449E-02
4.227799E+03	4.454126E-01	5.083893E-02
4.237452E+03	4.402294E-01	4.989297E-02
4.247104E+03	4.351350E-01	4.896768E-02
4.256757E+03	4.301399E-01	4.806402E-02
4.266409E+03	4.252455E-01	4.718195E-02
4.276062E+03	4.204605E-01	4.632222E-02
4.285714E+03	4.157976E-01	4.548596E-02
4.295367E+03	4.112562E-01	4.467285E-02
4.305019E+03	4.068404E-01	4.388307E-02
4.314672E+03	4.025531E-01	4.311666E-02
4.324324E+03	3.984014E-01	4.237411E-02
4.333977E+03	3.943808E-01	4.165464E-02
4.343629E+03	3.904903E-01	4.095788E-02
4.353282E+03	3.867363E-01	4.028424E-02
4.362934E+03	3.831146E-01	3.963299E-02
4.372587E+03	3.796207E-01	3.900341E-02
4.382239E+03	3.762578E-01	3.839557E-02
4.391892E+03	3.730177E-01	3.780838E-02
4.401544E+03	3.699042E-01	3.724200E-02
4.411197E+03	3.669130E-01	3.669575E-02
4.420849E+03	3.640377E-01	3.616878E-02
4.430502E+03	3.612740E-01	3.566045E-02
4.440154E+03	3.586263E-01	3.517099E-02
4.449807E+03	3.560840E-01	3.469918E-02
4.459459E+03	3.536446E-01	3.424459E-02
4.469112E+03	3.513044E-01	3.380670E-02
4.478764E+03	3.490613E-01	3.338516E-02
4.488417E+03	3.469083E-01	3.297914E-02
4.498069E+03	3.448399E-01	3.258800E-02
4.507722E+03	3.428528E-01	3.221130E-02
4.517375E+03	3.409413E-01	3.184839E-02
4.527027E+03	3.390925E-01	3.149798E-02
4.536680E+03	3.373071E-01	3.116005E-02
4.546332E+03	3.355727E-01	3.083337E-02
4.555985E+03	3.338829E-01	3.051732E-02
4.565637E+03	3.322350E-01	3.021157E-02
4.575290E+03	3.306258E-01	2.991580E-02
4.584942E+03	3.290521E-01	2.962964E-02
4.594595E+03	3.275075E-01	2.935232E-02
4.604247E+03	3.259950E-01	2.908388E-02
4.613900E+03	3.245112E-01	2.882377E-02
4.623552E+03	3.230529E-01	2.857147E-02
4.633205E+03	3.216224E-01	2.832697E-02
4.642857E+03	3.202138E-01	2.808954E-02
4.652510E+03	3.188261E-01	2.785885E-02
4.662162E+03	3.174626E-01	2.763498E-02
4.671815E+03	3.161167E-01	2.741716E-02
4.681467E+03	3.147882E-01	2.720513E-02
4.691120E+03	3.134732E-01	2.699839E-02
4.700772E+03	3.121714E-01	2.679669E-02
4.710425E+03	3.108823E-01	2.659980E-02
4.720077E+03	3.096019E-01	2.640719E-02
4.729730E+03	3.083233E-01	2.621808E-02
4.739382E+03	3.070486E-01	2.603247E-02
4.749035E+03	3.057741E-01	2.584987E-02
4.758687E+03	3.044931E-01	2.566955E-02
4.768340E+03	3.032073E-01	2.549148E-02
4.777992E+03	3.019079E-01	2.531475E-02
4.787645E+03	3.005968E-01	2.513938E-02
4.797297E+03	2.992709E-01	2.496495E-02
4.806950E+03	2.979212E-01	2.479056E-02
4.816602E+03	2.965536E-01	2.461657E-02
4.826255E+03	2.951596E-01	2.444214E-02
4.835907E+03	2.937393E-01	2.426713E-02
4.845560E+03	2.922904E-01	2.409123E-02
4.855212E+03	2.908082E-01	2.391394E-02
4.864865E+03	2.892936E-01	2.373520E-02
4.874517E+03	2.877447E-01	2.355476E-02
4.884170E+03	2.861572E-01	2.337216E-02
4.893822E+03	2.845330E-01	2.318744E-02
4.903475E+03	2.828683E-01	2.300021E-02
4.913127E+03	2.811648E-01	2.281050E-02
4.922780E+03	2.794221E-01	2.261821E-02
4.932432E+03	2.776344E-01	2.242279E-02
4.942085E+03	2.758096E-01	2.222479E-02
4.951737E+03	2.739398E-01	2.202351E-02
4.961390E+03	2.720281E-01	2.181913E-02
4.971042E+03	2.700748E-01	2.161163E-02
4.980695E+03	2.680830E-01	2.140120E-02
4.990347E+03	2.660487E-01	2.118746E-02
5.000000E+03	2.639724E-01	2.097043E-02
5.009653E+03	2.618607E-01	2.075057E-02
5.019305E+03	2.597071E-01	2.052736E-02
5.028958E+03	2.575178E-01	2.030125E-02
5.038610E+03	2.552923E-01	2.007218E-02
5.048263E+03	2.530318E-01	1.984022E-02
5.057915E+03	2.507380E-01	1.960551E-02
5.067568E+03	2.484104E-01	1.936800E-02
5.077220E+03	2.460534E-01	1.912801E-02
5.086873E+03	2.436662E-01	1.888550E-02
5.096525E+03	2.412534E-01	1.864083E-02
5.106178E+03	2.388122E-01	1.839380E-02
5.115830E+03	2.363472E-01	1.814476E-02
5.125483E+03	2.338605E-01	1.789391E-02
5.135135E+03	2.313522E-01	1.764127E-02
5.144788E+03	2.288244E-01	1.738702E-02
5.154440E+03	2.262815E-01	1.713154E-02
5.164093E+03	2.237218E-01	1.687472E-02
5.173745E+03	2.211473E-01	1.661675E-02
5.183398E+03	2.185628E-01	1.635803E-02
5.193050E+03	2.159707E-01	1.609877E-02
5.202703E+03	2.133689E-01	1.583886E-02
5.212355E+03	2.107623E-01	1.557871E-02
5.222008E+03	2.081510E-01	1.531836E-02
5.231660E+03	2.055396E-01	1.505821E-02
5.241313E+03	2.029263E-01	1.479816E-02
5.250965E+03	2.003155E-01	1.453860E-02
5.260618E+03	1.977077E-01	1.427960E-02
5.270270E+03	1.951034E-01	1.402124E-02
5.279923E+03	1.925044E-01	1.376371E-02
5.289575E+03	1.899115E-01	1.350712E-02
5.299228E+03	1.873268E-01	1.325167E-02
5.308880E+03	1.847544E-01	1.299770E-02
5.318533E+03	1.821960E-01	1.274538E-02
5.328185E+03	1.796538E-01	1.249491E-02
5.337838E+03	1.771314E-01	1.224658E-02
5.347490E+03	1.746267E-01	1.200030E-02
5.357143E+03	1.721450E-01	1.175647E-02
5.366795E+03	1.696876E-01	1.151523E-02
5.376448E+03	1.672544E-01	1.127660E-02
5.386100E+03	1.648481E-01	1.104080E-02
5.395753E+03	1.624682E-01	1.080784E-02
5.405405E+03	1.601174E-01	1.057793E-02
5.415058E+03	1.577966E-01	1.035117E-02
5.424710E+03	1.555067E-01	1.012764E-02
5.434363E+03	1.532483E-01	9.907406E-03
5.444015E+03	1.510204E-01	9.690437E-03
5.453668E+03	1.488265E-01	9.476991E-03
5.463320E+03	1.466656E-01	9.267016E-03
5.472973E+03	1.445378E-01	9.060550E-03
5.482625E+03	1.424448E-01	8.857718E-03
5.492278E+03	1.403851E-01	8.658452E-03
5.501931E+03	1.383587E-01	8.462770E-03
5.511583E+03	1.363683E-01	8.270861E-03
5.521236E+03	1.344108E-01	8.082551E-03
5.530888E+03	1.324858E-01	7.897842E-03
5.540541E+03	1.305959E-01	7.716898E-03
5.550193E+03	1.287390E-01	7.539625E-03
5.559846E+03	1.269147E-01	7.366010E-03
5.569498E+03	1.251238E-01	7.196115E-03
5.579151E+03	1.233629E-01	7.029771E-03
5.588803E+03	1.216353E-01	6.867186E-03
5.598456E+03	1.199378E-01	6.708192E-03
5.608108E+03	1.182697E-01	6.552772E-03
5.617761E+03	1.166329E-01	6.401050E-03
5.627413E+03	1.150254E-01	6.252938E-03
5.637066E+03	1.134465E-01	6.108421E-03
5.646718E+03	1.118956E-01	5.967487E-03
5.656371E+03	1.103733E-01	5.830193E-03
5.666023E+03	1.088792E-01	5.696527E-03
5.675676E+03	1.074114E-01	5.566425E-03
5.685328E+03	1.059707E-01	5.439946E-03
5.694981E+03	1.045579E-01	5.317152E-03
5.704633E+03	1.031715E-01	5.197988E-03
5.714286E+03	1.018113E-01	5.082461E-03
5.723938E+03	1.004781E-01	4.970641E-03
5.733591E+03	9.917084E-02	4.862485E-03
5.743243E+03	9.789157E-02	4.758118E-03
5.752896E+03	9.663921E-02	4.657504E-03
5.762548E+03	9.541386E-02	4.560662E-03
5.772201E+03	9.421567E-02	4.467614E-03
5.781853E+03	9.304593E-02	4.378434E-03
5.791506E+03	9.190490E-02	4.293145E-03
5.801158E+03	9.079185E-02	4.211720E-03
5.810811E+03	8.970928E-02	4.134282E-03
5.820463E+03	8.865552E-02	4.060757E-03
5.830116E+03	8.763314E-02	3.991264E-03
5.839768E+03	8.664062E-02	3.925731E-03
5.849421E+03	8.568058E-02	3.864274E-03
5.859073E+03	8.475262E-02	3.806866E-03
5.868726E+03	8.385743E-02	3.753529E-03
5.878378E+03	8.299664E-02	3.704321E-03
5.888031E+03	8.216986E-02	3.659211E-03
5.897683E+03	8.137874E-02	3.618251E-03
5.907336E+03	8.062471E-02	3.581455E-03
5.916988E+03	7.990632E-02	3.548629E-03
5.926641E+03	7.922697E-02	3.519788E-03
5.936293E+03	7.858720E-02	3.494823E-03
5.945946E+03	7.798852E-02	3.473673E-03
5.955598E+03	7.743145E-02	3.456240E-03
5.965251E+03	7.691551E-02	3.442386E-03
5.974903E+03	7.644208E-02	3.432061E-03
5.984556E+03	7.600939E-02	3.425082E-03
5.994208E+03	7.561733E-02	3.421346E-03
6.003861E+03	7.526337E-02	3.420643E-03
6.013514E+03	7.494829E-02	3.422923E-03
6.023166E+03	7.466947E-02	3.427982E-03
6.032819E+03	7.442485E-02	3.435649E-03
6.042471E+03	7.421212E-02	3.445741E-03
6.052124E+03	7.402879E-02	3.458073E-03
6.061776E+03	7.387336E-02	3.472507E-03
6.071429E+03	7.374145E-02	3.488771E-03
6.081081E+03	7.363363E-02	3.506828E-03
6.090734E+03	7.354574E-02	3.526420E-03
6.100386E+03	7.347667E-02	3.547434E-03
6.110039E+03	7.342450E-02	3.569720E-03
6.119691E+03	7.338750E-02	3.593138E-03
6.129344E+03	7.336402E-02	3.617555E-03
6.138996E+03	7.335365E-02	3.642895E-03
6.148649E+03	7.335413E-02	3.668997E-03
6.158301E+03	7.336638E-02	3.695858E-03
6.167954E+03	7.338757E-02	3.723289E-03
6.177606E+03	7.341803E-02	3.751259E-03
6.187259E+03	7.345728E-02	3.779697E-03
6.196911E+03	7.350509E-02	3.808550E-03
6.206564E+03	7.356244E-02	3.837825E-03
6.216216E+03	7.362652E-02	3.867337E-03
6.225869E+03	7.370079E-02	3.897230E-03
6.235521E+03	7.378290E-02	3.927344E-03
6.245174E+03	7.387369E-02	3.957691E-03
6.254826E+03	7.397417E-02	3.988293E-03
6.264479E+03	7.408539E-02	4.019177E-03
6.274131E+03	7.420746E-02	4.050323E-03
6.283784E+03	7.434040E-02	4.081706E-03
6.293436E+03	7.448521E-02	4.113357E-03
6.303089E+03	7.464389E-02	4.145365E-03
6.312741E+03	7.481515E-02	4.177638E-03
6.322394E+03	7.500180E-02	4.210315E-03
6.332046E+03	7.520116E-02	4.243227E-03
6.341699E+03	7.541568E-02	4.276495E-03
6.351351E+03	7.564556E-02	4.310114E-03
6.361004E+03	7.588964E-02	4.344003E-03
6.370656E+03	7.614768E-02	4.378132E-03
6.380309E+03	7.642037E-02	4.412525E-03
6.389961E+03	7.670592E-02	4.447063E-03
6.399614E+03	7.700464E-02	4.481747E-03
6.409266E+03	7.731436E-02	4.516436E-03
6.418919E+03	7.763618E-02	4.551175E-03
6.428571E+03	7.796648E-02	4.585737E-03
6.438224E+03	7.830488E-02	4.620081E-03
6.447876E+03	7.864981E-02	4.654096E-03
6.457529E+03	7.899955E-02	4.687661E-03
6.467181E+03	7.935347E-02	4.720720E-03
6.476834E+03	7.970737E-02	4.753005E-03
6.486486E+03	8.006173E-02	4.784523E-03
6.496139E+03	8.041469E-02	4.815145E-03
6.505792E+03	8.076316E-02	4.844667E-03
6.515444E+03	8.110650E-02	4.873033E-03
6.525097E+03	8.144167E-02	4.900040E-03
6.534749E+03	8.176823E-02	4.925647E-03
6.544402E+03	8.208452E-02	4.949738E-03
6.554054E+03	8.238906E-02	4.972208E-03
6.563707E+03	8.268044E-02	4.992960E-03
6.573359E+03	8.295609E-02	5.011826E-03
6.583012E+03	8.321750E-02	5.028887E-03
6.592664E+03	8.346241E-02	5.043998E-03
6.602317E+03	8.369000E-02	5.057103E-03
6.611969E+03	8.389823E-02	5.068077E-03
6.621622E+03	8.409064E-02	5.077130E-03
6.631274E+03	8.426288E-02	5.084000E-03
6.640927E+03	8.441742E-02	5.088839E-03
6.650579E+03	8.455150E-02	5.091486E-03
6.660232E+03	8.466796E-02	5.092119E-03
6.669884E+03	8.476704E-02	5.090761E-03
6.679537E+03	8.484635E-02	5.087280E-03
6.689189E+03	8.490914E-02	5.081884E-03
6.698842E+03	8.495605E-02	5.074627E-03
6.708494E+03	8.498493E-02	5.065396E-03
6.718147E+03	8.499943E-02	5.054430E-03
6.727799E+03	8.500043E-02	5.041800E-03
6.737452E+03	8.498751E-02	5.027502E-03
6.747104E+03	8.496165E-02	5.011617E-03
6.756757E+03	8.492392E-02	4.994235E-03
6.766409E+03	8.487692E-02	4.975533E-03
6.776062E+03	8.482036E-02	4.955521E-03
6.785714E+03	8.475690E-02	4.934382E-03
6.795367E+03	8.468624E-02	4.912124E-03
6.805019E+03	8.461110E-02	4.888937E-03
6.814672E+03	8.453118E-02	4.864830E-03
6.824324E+03	8.444763E-02	4.839901E-03
6.833977E+03	8.436312E-02	4.814334E-03
6.843629E+03	8.427724E-02	4.788135E-03
6.853282E+03	8.419253E-02	4.761480E-03
6.862934E+03	8.410852E-02	4.734374E-03
6.872587E+03	8.402757E-02	4.706981E-03
6.882239E+03	8.395056E-02	4.679384E-03
6.891892E+03	8.387666E-02	4.651569E-03
6.901544E+03	8.380651E-02	4.623604E-03
6.911197E+03	8.374365E-02	4.595721E-03
6.920849E+03	8.368388E-02	4.567723E-03
6.930502E+03	8.363205E-02	4.539912E-03
6.940154E+03	8.358673E-02	4.512247E-03
6.949807E+03	8.354632E-02	4.484679E-03
6.959459E+03	8.351379E-02	4.457409E-03
6.969112E+03	8.348563E-02	4.430289E-03
6.978764E+03	8.346451E-02	4.403507E-03
6.988417E+03	8.344823E-02	4.376989E-03
6.998069E+03	8.343761E-02	4.350827E-03
7.007722E+03	8.343007E-02	4.324934E-03
7.017375E+03	8.342621E-02	4.299395E-03
7.027027E+03	8.342486E-02	4.274203E-03
7.036680E+03	8.342627E-02	4.249426E-03
7.046332E+03	8.342747E-02	4.224973E-03
7.055985E+03	8.342857E-02	4.200909E-03
7.065637E+03	8.342799E-02	4.177220E-03
7.075290E+03	8.342404E-02	4.153886E-03
7.084942E+03	8.341673E-02	4.130976E-03
7.094595E+03	8.340600E-02	4.108557E-03
7.104247E+03	8.338839E-02	4.086529E-03
7.113900E+03	8.336381E-02	4.064960E-03
7.123552E+03	8.333051E-02	4.043839E-03
7.133205E+03	8.328844E-02	4.023237E-03
7.142857E+03	8.323590E-02	4.003146E-03
7.152510E+03	8.317120E-02	3.983560E-03
7.162162E+03	8.309094E-02	3.964388E-03
7.171815E+03	8.299701E-02	3.945796E-03
7.181467E+03	8.288447E-02	3.927617E-03
7.191120E+03	8.275183E-02	3.909852E-03
7.200772E+03	8.259955E-02	3.892587E-03
7.210425E+03	8.242463E-02	3.875743E-03
7.220077E+03	8.222424E-02	3.859244E-03
7.229730E+03	8.199752E-02	3.843102E-03
7.239382E+03	8.174204E-02	3.827248E-03
7.249035E+03	8.145924E-02	3.811743E-03
7.258687E+03	8.114562E-02	3.796354E-03
7.268340E+03	8.080325E-02	3.781102E-03
7.277992E+03	8.043291E-02	3.765942E-03
7.287645E+03	8.003242E-02	3.750683E-03
7.297297E+03	7.960351E-02	3.735318E-03
7.306950E+03	7.915020E-02	3.719942E-03
7.316602E+03	7.867505E-02	3.704582E-03
7.326255E+03	7.817753E-02	3.689118E-03
7.335907E+03	7.766236E-02	3.673678E-03
7.345560E+03	7.713271E-02	3.658317E-03
7.355212E+03	7.659162E-02	3.643089E-03
7.364865E+03	7.604204E-02	3.628044E-03
7.374517E+03	7.548510E-02	3.613150E-03
7.384170E+03	7.492517E-02	3.598533E-03
7.393822E+03	7.436303E-02	3.584151E-03
7.403475E+03	7.380091E-02	3.570035E-03
7.413127E+03	7.324251E-02	3.556293E-03
7.422780E+03	7.268958E-02	3.542943E-03
7.432432E+03	7.214204E-02	3.529919E-03
7.442085E+03	7.160124E-02	3.517227E-03
7.451737E+03	7.106997E-02	3.504948E-03
7.461390E+03	7.054910E-02	3.493076E-03
7.471042E+03	7.003778E-02	3.481520E-03
7.480695E+03	6.953656E-02	3.470264E-03
7.490347E+03	6.904749E-02	3.459369E-03
