#wls	flux	fluxerr
1.544402E+03	6.949159E-02	9.067472E-03
1.583012E+03	7.173002E-02	9.322879E-03
1.621622E+03	7.410426E-02	9.592581E-03
1.660232E+03	7.660901E-02	9.875561E-03
1.698842E+03	7.928016E-02	1.017609E-02
1.737452E+03	8.212865E-02	1.049516E-02
1.776062E+03	8.515086E-02	1.083185E-02
1.814672E+03	8.840457E-02	1.119303E-02
1.853282E+03	9.188993E-02	1.157811E-02
1.891892E+03	9.563947E-02	1.199058E-02
1.930502E+03	9.968913E-02	1.243420E-02
1.969112E+03	1.040606E-01	1.291088E-02
2.007722E+03	1.088145E-01	1.342721E-02
2.046332E+03	1.139990E-01	1.398805E-02
2.084942E+03	1.196470E-01	1.459624E-02
2.123552E+03	1.258147E-01	1.525726E-02
2.162162E+03	1.325417E-01	1.597441E-02
2.200772E+03	1.398703E-01	1.675111E-02
2.239382E+03	1.478451E-01	1.759086E-02
2.277992E+03	1.565132E-01	1.849721E-02
2.316602E+03	1.658983E-01	1.947076E-02
2.355212E+03	1.760220E-01	2.051171E-02
2.393822E+03	1.869579E-01	2.162605E-02
2.432432E+03	1.987273E-01	2.281347E-02
2.471042E+03	2.113469E-01	2.407294E-02
2.509653E+03	2.249198E-01	2.541301E-02
2.548263E+03	2.394286E-01	2.682821E-02
2.586873E+03	2.549416E-01	2.832255E-02
2.625483E+03	2.714917E-01	2.989576E-02
2.664093E+03	2.891401E-01	3.155035E-02
2.702703E+03	3.078675E-01	3.327976E-02
2.741313E+03	3.276355E-01	3.507532E-02
2.779923E+03	3.484212E-01	3.692998E-02
2.818533E+03	3.701372E-01	3.882992E-02
2.857143E+03	3.926605E-01	4.075786E-02
2.895753E+03	4.159167E-01	4.270191E-02
2.905405E+03	4.218531E-01	4.319077E-02
2.915058E+03	4.278509E-01	4.368190E-02
2.924710E+03	4.338176E-01	4.416581E-02
2.934363E+03	4.398849E-01	4.465587E-02
2.944015E+03	4.459590E-01	4.514248E-02
2.953668E+03	4.520361E-01	4.562521E-02
2.963320E+03	4.581581E-01	4.610826E-02
2.972973E+03	4.643209E-01	4.659115E-02
2.982625E+03	4.705212E-01	4.707348E-02
2.992278E+03	4.767546E-01	4.755475E-02
3.001931E+03	4.829682E-01	4.802965E-02
3.011583E+03	4.892529E-01	4.850720E-02
3.021236E+03	4.955072E-01	4.897725E-02
3.030888E+03	5.018227E-01	4.944883E-02
3.040541E+03	5.080957E-01	4.991168E-02
3.050193E+03	5.144184E-01	5.037484E-02
3.059846E+03	5.207346E-01	5.083276E-02
3.069498E+03	5.270877E-01	5.128963E-02
3.079151E+03	5.334209E-01	5.173988E-02
3.088803E+03	5.397265E-01	5.218276E-02
3.098456E+03	5.460967E-01	5.262716E-02
3.108108E+03	5.524232E-01	5.306259E-02
3.117761E+03	5.587478E-01	5.349306E-02
3.127413E+03	5.650609E-01	5.391764E-02
3.137066E+03	5.713538E-01	5.433548E-02
3.146718E+03	5.776669E-01	5.475040E-02
3.156371E+03	5.839390E-01	5.515658E-02
3.166023E+03	5.901592E-01	5.555302E-02
3.175676E+03	5.964184E-01	5.594826E-02
3.185328E+03	6.026532E-01	5.633631E-02
3.194981E+03	6.087997E-01	5.671122E-02
3.204633E+03	6.149473E-01	5.708134E-02
3.214286E+03	6.210828E-01	5.744546E-02
3.223938E+03	6.271400E-01	5.779743E-02
3.233591E+03	6.332082E-01	5.814552E-02
3.243243E+03	6.392216E-01	5.848369E-02
3.252896E+03	6.451655E-01	5.881060E-02
3.262548E+03	6.510756E-01	5.912958E-02
3.272201E+03	6.569880E-01	5.944388E-02
3.281853E+03	6.627819E-01	5.974260E-02
3.291506E+03	6.685929E-01	6.003801E-02
3.301158E+03	6.742985E-01	6.031913E-02
3.310811E+03	6.799791E-01	6.059320E-02
3.320463E+03	6.856109E-01	6.085813E-02
3.330116E+03	6.911180E-01	6.110722E-02
3.339768E+03	6.966258E-01	6.135163E-02
3.349421E+03	7.019550E-01	6.157564E-02
3.359073E+03	7.072275E-01	6.179005E-02
3.368726E+03	7.124119E-01	6.199217E-02
3.378378E+03	7.174273E-01	6.217508E-02
3.388031E+03	7.223391E-01	6.234457E-02
3.397683E+03	7.270625E-01	6.249348E-02
3.407336E+03	7.316093E-01	6.262299E-02
3.416988E+03	7.359394E-01	6.272986E-02
3.426641E+03	7.400114E-01	6.281080E-02
3.436293E+03	7.438264E-01	6.286619E-02
3.445946E+03	7.472915E-01	6.288847E-02
3.455598E+03	7.504470E-01	6.288139E-02
3.465251E+03	7.531508E-01	6.283344E-02
3.474903E+03	7.553507E-01	6.274076E-02
3.484556E+03	7.570792E-01	6.260660E-02
3.494208E+03	7.582367E-01	6.242330E-02
3.500750E+03	8.213816E-01	6.741645E-02
3.502958E+03	8.171866E-01	6.700306E-02
3.505167E+03	8.129933E-01	6.659046E-02
3.507375E+03	8.093269E-01	6.622168E-02
3.509583E+03	8.057789E-01	6.586311E-02
3.511792E+03	8.022318E-01	6.550517E-02
3.513999E+03	7.985695E-01	6.513842E-02
3.516208E+03	7.950255E-01	6.478185E-02
3.518415E+03	7.909575E-01	6.438321E-02
3.520624E+03	7.869493E-01	6.399006E-02
3.522832E+03	7.828843E-01	6.359293E-02
3.525040E+03	7.788793E-01	6.320134E-02
3.527248E+03	7.746426E-01	6.279157E-02
3.529457E+03	7.712818E-01	6.245341E-02
3.531664E+03	7.685630E-01	6.216773E-02
3.533873E+03	7.664856E-01	6.193428E-02
3.536080E+03	7.651083E-01	6.175767E-02
3.538289E+03	7.642554E-01	6.162352E-02
3.540497E+03	7.634609E-01	6.149417E-02
3.542705E+03	7.628995E-01	6.138369E-02
3.544913E+03	7.626289E-01	6.129662E-02
3.547122E+03	7.627076E-01	6.123759E-02
3.549329E+03	7.630772E-01	6.120186E-02
3.551538E+03	7.635046E-01	6.117064E-02
3.553745E+03	7.639316E-01	6.113929E-02
3.555954E+03	7.644164E-01	6.111242E-02
3.558162E+03	7.650173E-01	6.109470E-02
3.560370E+03	7.657340E-01	6.108610E-02
3.562578E+03	7.670314E-01	6.112358E-02
3.564787E+03	7.687346E-01	6.119310E-02
3.566994E+03	7.704372E-01	6.126226E-02
3.569203E+03	7.723711E-01	6.134943E-02
3.571410E+03	7.748848E-01	6.148226E-02
3.573619E+03	7.774552E-01	6.161908E-02
3.575827E+03	7.798504E-01	6.174155E-02
3.578035E+03	7.818386E-01	6.183139E-02
3.580243E+03	7.837097E-01	6.191158E-02
3.582451E+03	7.849420E-01	6.194102E-02
3.584659E+03	7.855941E-01	6.192444E-02
3.586868E+03	7.857238E-01	6.186658E-02
3.589075E+03	7.857377E-01	6.179957E-02
3.591284E+03	7.853454E-01	6.170058E-02
3.593492E+03	7.842585E-01	6.154710E-02
3.595700E+03	7.826503E-01	6.135294E-02
3.597908E+03	7.805213E-01	6.111821E-02
3.600116E+03	7.776988E-01	6.082959E-02
3.602324E+03	7.733718E-01	6.042385E-02
3.604533E+03	7.685258E-01	5.997831E-02
3.606740E+03	7.635081E-01	5.952023E-02
3.608949E+03	7.588394E-01	5.909014E-02
3.611157E+03	7.540566E-01	5.865194E-02
3.613365E+03	7.492180E-01	5.821023E-02
3.615573E+03	7.446128E-01	5.778741E-02
3.617781E+03	7.395466E-01	5.732966E-02
3.619989E+03	7.337312E-01	5.681471E-02
3.622198E+03	7.276292E-01	5.627858E-02
3.624405E+03	7.217607E-01	5.576154E-02
3.626614E+03	7.160679E-01	5.525904E-02
3.628821E+03	7.105503E-01	5.477103E-02
3.631030E+03	7.050927E-01	5.428853E-02
3.633238E+03	7.000990E-01	5.384265E-02
3.635446E+03	6.950498E-01	5.339336E-02
3.637654E+03	6.901753E-01	5.295831E-02
3.639863E+03	6.854760E-01	5.253752E-02
3.642070E+03	6.811823E-01	5.214859E-02
3.644279E+03	6.771209E-01	5.177812E-02
3.646486E+03	6.735797E-01	5.144811E-02
3.648695E+03	6.696942E-01	5.109238E-02
3.650903E+03	6.657524E-01	5.073303E-02
3.653111E+03	6.616973E-01	5.036573E-02
3.655319E+03	6.577586E-01	5.000795E-02
3.657528E+03	6.539368E-01	4.965970E-02
3.659736E+03	6.502894E-01	4.932536E-02
3.661944E+03	6.464130E-01	4.897426E-02
3.664152E+03	6.418474E-01	4.857168E-02
3.666360E+03	6.373987E-01	4.817870E-02
3.668569E+03	6.327791E-01	4.777357E-02
3.670776E+03	6.281040E-01	4.736507E-02
3.672985E+03	6.237180E-01	4.697912E-02
3.675193E+03	6.204840E-01	4.668059E-02
3.677401E+03	6.171934E-01	4.637838E-02
3.679609E+03	6.145940E-01	4.612858E-02
3.681817E+03	6.122828E-01	4.590084E-02
3.684025E+03	6.100872E-01	4.568213E-02
3.686234E+03	6.080075E-01	4.547244E-02
3.688441E+03	6.065028E-01	4.530607E-02
3.690650E+03	6.051136E-01	4.514855E-02
3.692857E+03	6.042414E-01	4.502980E-02
3.695066E+03	6.042302E-01	4.497524E-02
3.697274E+03	6.044485E-01	4.493772E-02
3.699482E+03	6.045516E-01	4.489161E-02
3.701690E+03	6.046549E-01	4.484545E-02
3.703899E+03	6.045859E-01	4.478648E-02
3.706106E+03	6.042878E-01	4.471058E-02
3.708315E+03	6.038748E-01	4.462619E-02
3.710523E+03	6.038058E-01	4.456725E-02
3.712731E+03	6.040232E-01	4.452943E-02
3.714939E+03	6.048134E-01	4.453370E-02
3.717147E+03	6.059466E-01	4.456307E-02
3.719355E+03	6.078810E-01	4.465103E-02
3.721564E+03	6.097571E-01	4.473435E-02
3.723771E+03	6.115750E-01	4.481307E-02
3.725980E+03	6.129917E-01	4.486206E-02
3.728188E+03	6.140071E-01	4.488144E-02
3.730396E+03	6.143930E-01	4.485469E-02
3.732604E+03	6.146643E-01	4.481946E-02
3.734812E+03	6.148211E-01	4.477586E-02
3.737020E+03	6.147488E-01	4.471551E-02
3.739229E+03	6.146196E-01	4.465102E-02
3.741436E+03	6.144332E-01	4.458242E-02
3.743645E+03	6.143037E-01	4.451792E-02
3.745853E+03	6.142316E-01	4.445758E-02
3.748061E+03	6.144447E-01	4.441787E-02
3.750269E+03	6.150573E-01	4.440694E-02
3.752477E+03	6.161262E-01	4.442880E-02
3.754685E+03	6.172515E-01	4.445448E-02
3.756894E+03	6.184905E-01	4.448812E-02
3.759101E+03	6.200140E-01	4.454199E-02
3.761310E+03	6.218220E-01	4.461595E-02
3.763517E+03	6.232872E-01	4.466503E-02
3.765726E+03	6.244093E-01	4.468925E-02
3.767934E+03	6.251890E-01	4.468877E-02
3.770142E+03	6.258547E-01	4.468002E-02
3.772350E+03	6.258929E-01	4.462638E-02
3.774559E+03	6.258741E-01	4.456864E-02
3.776766E+03	6.258556E-01	4.451094E-02
3.778975E+03	6.259507E-01	4.446127E-02
3.781182E+03	6.256473E-01	4.438332E-02
3.783391E+03	6.250591E-01	4.428521E-02
3.785599E+03	6.239592E-01	4.415098E-02
3.787807E+03	6.222909E-01	4.397680E-02
3.790015E+03	6.195997E-01	4.373068E-02
3.792224E+03	6.166250E-01	4.346504E-02
3.794431E+03	6.137085E-01	4.320405E-02
3.796640E+03	6.107930E-01	4.294362E-02
3.798847E+03	6.083903E-01	4.271974E-02
3.801056E+03	6.059315E-01	4.249232E-02
3.803264E+03	6.030193E-01	4.223357E-02
3.805472E+03	5.998814E-01	4.195957E-02
3.807681E+03	5.968580E-01	4.169411E-02
3.809888E+03	5.939493E-01	4.143721E-02
3.812097E+03	5.915527E-01	4.121648E-02
3.814305E+03	5.898946E-01	4.104755E-02
3.816513E+03	5.886341E-01	4.090658E-02
3.818721E+03	5.874308E-01	4.076976E-02
3.820930E+03	5.863982E-01	4.064498E-02
3.823137E+03	5.859327E-01	4.055967E-02
3.825346E+03	5.855806E-01	4.048224E-02
3.827553E+03	5.856820E-01	4.043620E-02
3.829762E+03	5.863496E-01	4.042915E-02
3.831970E+03	5.869039E-01	4.041416E-02
3.834178E+03	5.874576E-01	4.039906E-02
3.836386E+03	5.884074E-01	4.041101E-02
3.838595E+03	5.890172E-01	4.039948E-02
3.840802E+03	5.897396E-01	4.039555E-02
3.843011E+03	5.909144E-01	4.042241E-02
3.845218E+03	5.923150E-01	4.046451E-02
3.847427E+03	5.937148E-01	4.050626E-02
3.849635E+03	5.952267E-01	4.055539E-02
3.851843E+03	5.964558E-01	4.058502E-02
3.854051E+03	5.971751E-01	4.057976E-02
3.856259E+03	5.983464E-01	4.060505E-02
3.858467E+03	5.996864E-01	4.064153E-02
3.860676E+03	6.013647E-01	4.070067E-02
3.862883E+03	6.034376E-01	4.078618E-02
3.865092E+03	6.056787E-01	4.088265E-02
3.867300E+03	6.075239E-01	4.095202E-02
3.869508E+03	6.095937E-01	4.103619E-02
3.871716E+03	6.115499E-01	4.111232E-02
3.873924E+03	6.137871E-01	4.120698E-02
3.876132E+03	6.165308E-01	4.133517E-02
3.878341E+03	6.192731E-01	4.146276E-02
3.880548E+03	6.218452E-01	4.157849E-02
3.882757E+03	6.247543E-01	4.171623E-02
3.884965E+03	6.280563E-01	4.187964E-02
3.887173E+03	6.311880E-01	4.203114E-02
3.889381E+03	6.348253E-01	4.221565E-02
3.891589E+03	6.384606E-01	4.239941E-02
3.893797E+03	6.418691E-01	4.256743E-02
3.896006E+03	6.449947E-01	4.271610E-02
3.898213E+03	6.486254E-01	4.289763E-02
3.900422E+03	6.520294E-01	4.306350E-02
3.902630E+03	6.554878E-01	4.323234E-02
3.904838E+03	6.590573E-01	4.340790E-02
3.907046E+03	6.622316E-01	4.355679E-02
3.909255E+03	6.647858E-01	4.366439E-02
3.911462E+03	6.667773E-01	4.373462E-02
3.913671E+03	6.679807E-01	4.375287E-02
3.915878E+03	6.679479E-01	4.369006E-02
3.918087E+03	6.671285E-01	4.357585E-02
3.920295E+03	6.657481E-01	4.342521E-02
3.922503E+03	6.638629E-01	4.324196E-02
3.924711E+03	6.616415E-01	4.303717E-02
3.926919E+03	6.592527E-01	4.282194E-02
3.929127E+03	6.564159E-01	4.257807E-02
3.931336E+03	6.530757E-01	4.230210E-02
3.933543E+03	6.494002E-01	4.200509E-02
3.935752E+03	6.453337E-01	4.168347E-02
3.937960E+03	6.413251E-01	4.136633E-02
3.940168E+03	6.374302E-01	4.105728E-02
3.942376E+03	6.332566E-01	4.073099E-02
3.944584E+03	6.290290E-01	4.040201E-02
3.946792E+03	6.245229E-01	4.005593E-02
3.949001E+03	6.197389E-01	3.969288E-02
3.951208E+03	6.146768E-01	3.931294E-02
3.953417E+03	6.093932E-01	3.891976E-02
3.955625E+03	6.037759E-01	3.850626E-02
3.957833E+03	5.979374E-01	3.807974E-02
3.960042E+03	5.922692E-01	3.766507E-02
3.962249E+03	5.866030E-01	3.725161E-02
3.964458E+03	5.810514E-01	3.684643E-02
3.966666E+03	5.753903E-01	3.643532E-02
3.968874E+03	5.701226E-01	3.605016E-02
3.971082E+03	5.645781E-01	3.564845E-02
3.973290E+03	5.592034E-01	3.525850E-02
3.975498E+03	5.540207E-01	3.488159E-02
3.977707E+03	5.494044E-01	3.454125E-02
3.979914E+03	5.451192E-01	3.422256E-02
3.982123E+03	5.415726E-01	3.395094E-02
3.984331E+03	5.384236E-01	3.370486E-02
3.986539E+03	5.357613E-01	3.348982E-02
3.988747E+03	5.337135E-01	3.331360E-02
3.990956E+03	5.318730E-01	3.315069E-02
3.993163E+03	5.303845E-01	3.301005E-02
3.995372E+03	5.293478E-01	3.289776E-02
3.997579E+03	5.287519E-01	3.281304E-02
3.999788E+03	5.284849E-01	3.274882E-02
4.001996E+03	5.287693E-01	3.271877E-02
4.004204E+03	5.292483E-01	3.270073E-02
4.006412E+03	5.300113E-01	3.270012E-02
4.008620E+03	5.312132E-01	3.272646E-02
4.010828E+03	5.328933E-01	3.278199E-02
4.013037E+03	5.350120E-01	3.286419E-02
4.015244E+03	5.372746E-01	3.295487E-02
4.017453E+03	5.399587E-01	3.307095E-02
4.019660E+03	5.426247E-01	3.318549E-02
4.021869E+03	5.452508E-01	3.329711E-02
4.024077E+03	5.482422E-01	3.343056E-02
4.026285E+03	5.518601E-01	3.360166E-02
4.028493E+03	5.553765E-01	3.376595E-02
4.030702E+03	5.589468E-01	3.393289E-02
4.032909E+03	5.622098E-01	3.408061E-02
4.035118E+03	5.649164E-01	3.419407E-02
4.037325E+03	5.672886E-01	3.428689E-02
4.039534E+03	5.694934E-01	3.436918E-02
4.041742E+03	5.714195E-01	3.443431E-02
4.043950E+03	5.735112E-01	3.450910E-02
4.046158E+03	5.757680E-01	3.459345E-02
4.048367E+03	5.777468E-01	3.466075E-02
4.050574E+03	5.793365E-01	3.470442E-02
4.052783E+03	5.804821E-01	3.472127E-02
4.054991E+03	5.810734E-01	3.470483E-02
4.057199E+03	5.813316E-01	3.466847E-02
4.059407E+03	5.814238E-01	3.462220E-02
4.061615E+03	5.809621E-01	3.454302E-02
4.063823E+03	5.802789E-01	3.445079E-02
4.066032E+03	5.793194E-01	3.434234E-02
4.068239E+03	5.780283E-01	3.421447E-02
4.070448E+03	5.764611E-01	3.407053E-02
4.072655E+03	5.751712E-01	3.394330E-02
4.074864E+03	5.738814E-01	3.381630E-02
4.077072E+03	5.722608E-01	3.367011E-02
4.079280E+03	5.703644E-01	3.350806E-02
4.081488E+03	5.679162E-01	3.331399E-02
4.083697E+03	5.651376E-01	3.310104E-02
4.085904E+03	5.624152E-01	3.289192E-02
4.088113E+03	5.601361E-01	3.270918E-02
4.090320E+03	5.578023E-01	3.252372E-02
4.092529E+03	5.559666E-01	3.236768E-02
4.094737E+03	5.540762E-01	3.220882E-02
4.096945E+03	5.516515E-01	3.201935E-02
4.099153E+03	5.489576E-01	3.181472E-02
4.101362E+03	5.461380E-01	3.160333E-02
4.103569E+03	5.428785E-01	3.136707E-02
4.105778E+03	5.395324E-01	3.112640E-02
4.107986E+03	5.367716E-01	3.092011E-02
4.110194E+03	5.341774E-01	3.072390E-02
4.112403E+03	5.315787E-01	3.052792E-02
4.114610E+03	5.290089E-01	3.033411E-02
4.116819E+03	5.264233E-01	3.013988E-02
4.119026E+03	5.237840E-01	2.994308E-02
4.121235E+03	5.213491E-01	2.975844E-02
4.123443E+03	5.191027E-01	2.958501E-02
4.125651E+03	5.171982E-01	2.943148E-02
4.127859E+03	5.156903E-01	2.930085E-02
4.130068E+03	5.144417E-01	2.918523E-02
4.132275E+03	5.130779E-01	2.906337E-02
4.134484E+03	5.118798E-01	2.895113E-02
4.136692E+03	5.106269E-01	2.883606E-02
4.138900E+03	5.091111E-01	2.870644E-02
4.141108E+03	5.073156E-01	2.856137E-02
4.143316E+03	5.053620E-01	2.840778E-02
4.145524E+03	5.033209E-01	2.824965E-02
4.147733E+03	5.013084E-01	2.809352E-02
4.149940E+03	4.994227E-01	2.794490E-02
4.152149E+03	4.972035E-01	2.777800E-02
4.154356E+03	4.946834E-01	2.759477E-02
4.156565E+03	4.921534E-01	2.741144E-02
4.158773E+03	4.899425E-01	2.724634E-02
4.160981E+03	4.878970E-01	2.709087E-02
4.163189E+03	4.864933E-01	2.697136E-02
4.165398E+03	4.852986E-01	2.686372E-02
4.167605E+03	4.838905E-01	2.674455E-02
4.169814E+03	4.819849E-01	2.659820E-02
4.172021E+03	4.798994E-01	2.644232E-02
4.174230E+03	4.777926E-01	2.628567E-02
4.176438E+03	4.757255E-01	2.613160E-02
4.178646E+03	4.739050E-01	2.599149E-02
4.180854E+03	4.723865E-01	2.586825E-02
4.183063E+03	4.708739E-01	2.574564E-02
4.185270E+03	4.689464E-01	2.560072E-02
4.187479E+03	4.672167E-01	2.546693E-02
4.189686E+03	4.651980E-01	2.531778E-02
4.191895E+03	4.627320E-01	2.514470E-02
4.194103E+03	4.603217E-01	2.497511E-02
4.196311E+03	4.580926E-01	2.481581E-02
4.198519E+03	4.560284E-01	2.466585E-02
4.200727E+03	4.538998E-01	2.451282E-02
4.202935E+03	4.519846E-01	2.437169E-02
4.205144E+03	4.498629E-01	2.421983E-02
4.207351E+03	4.476060E-01	2.406112E-02
4.209560E+03	4.451482E-01	2.389204E-02
4.211768E+03	4.430184E-01	2.374101E-02
4.213976E+03	4.407316E-01	2.358200E-02
4.216184E+03	4.382986E-01	2.341560E-02
4.218393E+03	4.356650E-01	2.323896E-02
4.220600E+03	4.329345E-01	2.305768E-02
4.222809E+03	4.299711E-01	2.286449E-02
4.225016E+03	4.274829E-01	2.269710E-02
4.227225E+03	4.256053E-01	2.256253E-02
4.229433E+03	4.242616E-01	2.245659E-02
4.231641E+03	4.228644E-01	2.234811E-02
4.233849E+03	4.217287E-01	2.225371E-02
4.236058E+03	4.206644E-01	2.216331E-02
4.238265E+03	4.193558E-01	2.206032E-02
4.240474E+03	4.180911E-01	2.195988E-02
4.242681E+03	4.173978E-01	2.188970E-02
4.244890E+03	4.171283E-01	2.184186E-02
4.247098E+03	4.169516E-01	2.179899E-02
4.249306E+03	4.171113E-01	2.177378E-02
4.251514E+03	4.175264E-01	2.176190E-02
4.253722E+03	4.182453E-01	2.176585E-02
4.255931E+03	4.192294E-01	2.178352E-02
4.258139E+03	4.204953E-01	2.181571E-02
4.260347E+03	4.218042E-01	2.185001E-02
4.262555E+03	4.230961E-01	2.188328E-02
4.264764E+03	4.242354E-01	2.190853E-02
4.266971E+03	4.251574E-01	2.192248E-02
4.269180E+03	4.260303E-01	2.193381E-02
4.271387E+03	4.269403E-01	2.194699E-02
4.273596E+03	4.280127E-01	2.196842E-02
4.275804E+03	4.289870E-01	2.198473E-02
4.278012E+03	4.299986E-01	2.200289E-02
4.280220E+03	4.308256E-01	2.201151E-02
4.282429E+03	4.317063E-01	2.202283E-02
4.284636E+03	4.324027E-01	2.202470E-02
4.286845E+03	4.332339E-01	2.203338E-02
4.289052E+03	4.343783E-01	2.205793E-02
4.291261E+03	4.356250E-01	2.208756E-02
4.293469E+03	4.367142E-01	2.210910E-02
4.295677E+03	4.378137E-01	2.213109E-02
4.297885E+03	4.388749E-01	2.215104E-02
4.300093E+03	4.394600E-01	2.214693E-02
4.302301E+03	4.400070E-01	2.214089E-02
4.304510E+03	4.404996E-01	2.213211E-02
4.306717E+03	4.410840E-01	2.212796E-02
4.308926E+03	4.416462E-01	2.212268E-02
4.311134E+03	4.420841E-01	2.211118E-02
4.313342E+03	4.425756E-01	2.210240E-02
4.315550E+03	4.433583E-01	2.210813E-02
4.317759E+03	4.441243E-01	2.211300E-02
4.319966E+03	4.449331E-01	2.212000E-02
4.322175E+03	4.460432E-01	2.214190E-02
4.324382E+03	4.471797E-01	2.216505E-02
4.326591E+03	4.479548E-01	2.217022E-02
4.328799E+03	4.484330E-01	2.216070E-02
4.331007E+03	4.486418E-01	2.213793E-02
4.333215E+03	4.487213E-01	2.210883E-02
4.335423E+03	4.487522E-01	2.207743E-02
4.337631E+03	4.486323E-01	2.203872E-02
4.339840E+03	4.483994E-01	2.199457E-02
4.342047E+03	4.481453E-01	2.194952E-02
4.344256E+03	4.479823E-01	2.190906E-02
4.346464E+03	4.479218E-01	2.187372E-02
4.348672E+03	4.480117E-01	2.184584E-02
4.350880E+03	4.478756E-01	2.180703E-02
4.353088E+03	4.474981E-01	2.175661E-02
4.355296E+03	4.465778E-01	2.167999E-02
4.357505E+03	4.451371E-01	2.157838E-02
4.359712E+03	4.434341E-01	2.146438E-02
4.361921E+03	4.420912E-01	2.136813E-02
4.364129E+03	4.407384E-01	2.127169E-02
4.366337E+03	4.393968E-01	2.117610E-02
4.368545E+03	4.383561E-01	2.109526E-02
4.370753E+03	4.372302E-01	2.101060E-02
4.372961E+03	4.357455E-01	2.090896E-02
4.375170E+03	4.341435E-01	2.080203E-02
4.377377E+03	4.325046E-01	2.069366E-02
4.379586E+03	4.304968E-01	2.056799E-02
4.381793E+03	4.288166E-01	2.045835E-02
4.384002E+03	4.274798E-01	2.036539E-02
4.386210E+03	4.262562E-01	2.027810E-02
4.388418E+03	4.252687E-01	2.020232E-02
4.390626E+03	4.242278E-01	2.012423E-02
4.392835E+03	4.231447E-01	2.004440E-02
4.395042E+03	4.216395E-01	1.994486E-02
4.397251E+03	4.201725E-01	1.984743E-02
4.399459E+03	4.186952E-01	1.974981E-02
4.401667E+03	4.175930E-01	1.967019E-02
4.403875E+03	4.163146E-01	1.958252E-02
4.406083E+03	4.152398E-01	1.950471E-02
4.408292E+03	4.142619E-01	1.943169E-02
4.410500E+03	4.130598E-01	1.934840E-02
4.412708E+03	4.114261E-01	1.924520E-02
