#wls	flux	fluxerr
1.544402E+03	6.138286E-02	4.964580E-03
1.583012E+03	6.321578E-02	5.085024E-03
1.621622E+03	6.514823E-02	5.211170E-03
1.660232E+03	6.719856E-02	5.344274E-03
1.698842E+03	6.937405E-02	5.484673E-03
1.737452E+03	7.169586E-02	5.633776E-03
1.776062E+03	7.415980E-02	5.790958E-03
1.814672E+03	7.680333E-02	5.958821E-03
1.853282E+03	7.962403E-02	6.136811E-03
1.891892E+03	8.266417E-02	6.327781E-03
1.930502E+03	8.593945E-02	6.532463E-03
1.969112E+03	8.946665E-02	6.751617E-03
2.007722E+03	9.328079E-02	6.987313E-03
2.046332E+03	9.740295E-02	7.240487E-03
2.084942E+03	1.018738E-01	7.513447E-03
2.123552E+03	1.067386E-01	7.808704E-03
2.162162E+03	1.119879E-01	8.124686E-03
2.200772E+03	1.177106E-01	8.466854E-03
2.239382E+03	1.238794E-01	8.832153E-03
2.277992E+03	1.305695E-01	9.224790E-03
2.316602E+03	1.377961E-01	9.644525E-03
2.355212E+03	1.455726E-01	1.009093E-02
2.393822E+03	1.539846E-01	1.056842E-02
2.432432E+03	1.629982E-01	1.107304E-02
2.471042E+03	1.727021E-01	1.160907E-02
2.509653E+03	1.831383E-01	1.217741E-02
2.548263E+03	1.942910E-01	1.277496E-02
2.586873E+03	2.062552E-01	1.340580E-02
2.625483E+03	2.190394E-01	1.406808E-02
2.664093E+03	2.326770E-01	1.476146E-02
2.702703E+03	2.471632E-01	1.548301E-02
2.741313E+03	2.625166E-01	1.623117E-02
2.779923E+03	2.787834E-01	1.700593E-02
2.818533E+03	2.958901E-01	1.779986E-02
2.857143E+03	3.138934E-01	1.861339E-02
2.895753E+03	3.328424E-01	1.944624E-02
2.905405E+03	3.377224E-01	1.965679E-02
2.915058E+03	3.426366E-01	1.986684E-02
2.924710E+03	3.476674E-01	2.008112E-02
2.934363E+03	3.527305E-01	2.029467E-02
2.944015E+03	3.578663E-01	2.050980E-02
2.953668E+03	3.630741E-01	2.072638E-02
2.963320E+03	3.683094E-01	2.094182E-02
2.972973E+03	3.736567E-01	2.116088E-02
2.982625E+03	3.790274E-01	2.137846E-02
2.992278E+03	3.845078E-01	2.159939E-02
3.001931E+03	3.900075E-01	2.181851E-02
3.011583E+03	3.956131E-01	2.204062E-02
3.021236E+03	4.012780E-01	2.226305E-02
3.030888E+03	4.069993E-01	2.248557E-02
3.040541E+03	4.127745E-01	2.270800E-02
3.050193E+03	4.186464E-01	2.293262E-02
3.059846E+03	4.246125E-01	2.315921E-02
3.069498E+03	4.306234E-01	2.338500E-02
3.079151E+03	4.366744E-01	2.360970E-02
3.088803E+03	4.428570E-01	2.383818E-02
3.098456E+03	4.490718E-01	2.406501E-02
3.108108E+03	4.553622E-01	2.429245E-02
3.117761E+03	4.617234E-01	2.452019E-02
3.127413E+03	4.681995E-01	2.475048E-02
3.137066E+03	4.747361E-01	2.498035E-02
3.146718E+03	4.813274E-01	2.520946E-02
3.156371E+03	4.879669E-01	2.543739E-02
3.166023E+03	4.947478E-01	2.566892E-02
3.175676E+03	5.015629E-01	2.589840E-02
3.185328E+03	5.084552E-01	2.612800E-02
3.194981E+03	5.154166E-01	2.635722E-02
3.204633E+03	5.224887E-01	2.658811E-02
3.214286E+03	5.296123E-01	2.681758E-02
3.223938E+03	5.367773E-01	2.704504E-02
3.233591E+03	5.440241E-01	2.727249E-02
3.243243E+03	5.513418E-01	2.749929E-02
3.252896E+03	5.587702E-01	2.772734E-02
3.262548E+03	5.661929E-01	2.795080E-02
3.272201E+03	5.736996E-01	2.817405E-02
3.281853E+03	5.812758E-01	2.839631E-02
3.291506E+03	5.888534E-01	2.861419E-02
3.301158E+03	5.965196E-01	2.883188E-02
3.310811E+03	6.042034E-01	2.904589E-02
3.320463E+03	6.118860E-01	2.925527E-02
3.330116E+03	6.196492E-01	2.946391E-02
3.339768E+03	6.273672E-01	2.966577E-02
3.349421E+03	6.350672E-01	2.986215E-02
3.359073E+03	6.427235E-01	3.005185E-02
3.368726E+03	6.503605E-01	3.023600E-02
3.378378E+03	6.579482E-01	3.041323E-02
3.388031E+03	6.654554E-01	3.058212E-02
3.397683E+03	6.728488E-01	3.074120E-02
3.407336E+03	6.800935E-01	3.088896E-02
3.416988E+03	6.872032E-01	3.102613E-02
3.426641E+03	6.940885E-01	3.114878E-02
3.436293E+03	7.008091E-01	3.125974E-02
3.445946E+03	7.072227E-01	3.135283E-02
3.455598E+03	7.133840E-01	3.143070E-02
3.465251E+03	7.191980E-01	3.148938E-02
3.474903E+03	7.246661E-01	3.152922E-02
3.484556E+03	7.296902E-01	3.154624E-02
3.494208E+03	7.342667E-01	3.154065E-02
3.500916E+03	8.204712E-01	3.508523E-02
3.503124E+03	8.157125E-01	3.482985E-02
3.505331E+03	8.111114E-01	3.458176E-02
3.507539E+03	8.067612E-01	3.434490E-02
3.509746E+03	8.027555E-01	3.412321E-02
3.511954E+03	7.989069E-01	3.390866E-02
3.514162E+03	7.951531E-01	3.369856E-02
3.516370E+03	7.917435E-01	3.350351E-02
3.518577E+03	7.887092E-01	3.332470E-02
3.520785E+03	7.862675E-01	3.317126E-02
3.522992E+03	7.845747E-01	3.304964E-02
3.525200E+03	7.835051E-01	3.295442E-02
3.527407E+03	7.826540E-01	3.286847E-02
3.529616E+03	7.816476E-01	3.277607E-02
3.531823E+03	7.803610E-01	3.267206E-02
3.534031E+03	7.787323E-01	3.255388E-02
3.536238E+03	7.770107E-01	3.243200E-02
3.538446E+03	7.755075E-01	3.231941E-02
3.540653E+03	7.747203E-01	3.223677E-02
3.542861E+03	7.744623E-01	3.217619E-02
3.545069E+03	7.747019E-01	3.213624E-02
3.547277E+03	7.754077E-01	3.211555E-02
3.549485E+03	7.763620E-01	3.210502E-02
3.551692E+03	7.774090E-01	3.209815E-02
3.553900E+03	7.791085E-01	3.211803E-02
3.556107E+03	7.811491E-01	3.215168E-02
3.558315E+03	7.834062E-01	3.219395E-02
3.560523E+03	7.860666E-01	3.225241E-02
3.562731E+03	7.888812E-01	3.231684E-02
3.564938E+03	7.915393E-01	3.237447E-02
3.567146E+03	7.944139E-01	3.244056E-02
3.569353E+03	7.973185E-01	3.250748E-02
3.571561E+03	8.001597E-01	3.257140E-02
3.573768E+03	8.032794E-01	3.264625E-02
3.575977E+03	8.062734E-01	3.271553E-02
3.578184E+03	8.089254E-01	3.277056E-02
3.580392E+03	8.114832E-01	3.282141E-02
3.582599E+03	8.139160E-01	3.286684E-02
3.584807E+03	8.158518E-01	3.289189E-02
3.587014E+03	8.176009E-01	3.290914E-02
3.589222E+03	8.193180E-01	3.292484E-02
3.591431E+03	8.205077E-01	3.291911E-02
3.593638E+03	8.209844E-01	3.288465E-02
3.595846E+03	8.208719E-01	3.282654E-02
3.598053E+03	8.199542E-01	3.273627E-02
3.600261E+03	8.189130E-01	3.264116E-02
3.602468E+03	8.170359E-01	3.251289E-02
3.604676E+03	8.145091E-01	3.235903E-02
3.606884E+03	8.112096E-01	3.217479E-02
3.609092E+03	8.074466E-01	3.197263E-02
3.611299E+03	8.029734E-01	3.174286E-02
3.613507E+03	7.985945E-01	3.151736E-02
3.615714E+03	7.940313E-01	3.128515E-02
3.617922E+03	7.892223E-01	3.104384E-02
3.620129E+03	7.840438E-01	3.078862E-02
3.622338E+03	7.789598E-01	3.053774E-02
3.624545E+03	7.736302E-01	3.027791E-02
3.626753E+03	7.686423E-01	3.003210E-02
3.628960E+03	7.640888E-01	2.980387E-02
3.631168E+03	7.598455E-01	2.958829E-02
3.633375E+03	7.557274E-01	2.937810E-02
3.635583E+03	7.518885E-01	2.917927E-02
3.637792E+03	7.482359E-01	2.898811E-02
3.639999E+03	7.445849E-01	2.879750E-02
3.642207E+03	7.411507E-01	2.861571E-02
3.644414E+03	7.379340E-01	2.844273E-02
3.646622E+03	7.345639E-01	2.826425E-02
3.648829E+03	7.310410E-01	2.808032E-02
3.651037E+03	7.275191E-01	2.789686E-02
3.653245E+03	7.235971E-01	2.769852E-02
3.655453E+03	7.193683E-01	2.748897E-02
3.657660E+03	7.151720E-01	2.728119E-02
3.659868E+03	7.110385E-01	2.707634E-02
3.662075E+03	7.066599E-01	2.686269E-02
3.664283E+03	7.026216E-01	2.666251E-02
3.666490E+03	6.985848E-01	2.646291E-02
3.668699E+03	6.943952E-01	2.625802E-02
3.670906E+03	6.897757E-01	2.603746E-02
3.673114E+03	6.849426E-01	2.580943E-02
3.675321E+03	6.799880E-01	2.557746E-02
3.677529E+03	6.750040E-01	2.534503E-02
3.679736E+03	6.701143E-01	2.511677E-02
3.681944E+03	6.654106E-01	2.489610E-02
3.684153E+03	6.608933E-01	2.468298E-02
3.686360E+03	6.566234E-01	2.447968E-02
3.688568E+03	6.526626E-01	2.428844E-02
3.690775E+03	6.489798E-01	2.410803E-02
3.692983E+03	6.457901E-01	2.394637E-02
3.695190E+03	6.433084E-01	2.381133E-02
3.697398E+03	6.411960E-01	2.369025E-02
3.699606E+03	6.395761E-01	2.358757E-02
3.701814E+03	6.386019E-01	2.350888E-02
3.704021E+03	6.383340E-01	2.345626E-02
3.706229E+03	6.388033E-01	2.343069E-02
3.708436E+03	6.401015E-01	2.343538E-02
3.710644E+03	6.418287E-01	2.345556E-02
3.712851E+03	6.437700E-01	2.348330E-02
3.715060E+03	6.454343E-01	2.350066E-02
3.717267E+03	6.466687E-01	2.350216E-02
3.719475E+03	6.475034E-01	2.348899E-02
3.721682E+03	6.482769E-01	2.347346E-02
3.723890E+03	6.491723E-01	2.346222E-02
3.726097E+03	6.504353E-01	2.346410E-02
3.728305E+03	6.520963E-01	2.348012E-02
3.730514E+03	6.540630E-01	2.350687E-02
3.732721E+03	6.559370E-01	2.353003E-02
3.734929E+03	6.578408E-01	2.355399E-02
3.737136E+03	6.597442E-01	2.357765E-02
3.739344E+03	6.614935E-01	2.359555E-02
3.741551E+03	6.633644E-01	2.361752E-02
3.743759E+03	6.654798E-01	2.364790E-02
3.745967E+03	6.671961E-01	2.366381E-02
3.748175E+03	6.686363E-01	2.366972E-02
3.750382E+03	6.700760E-01	2.367539E-02
3.752590E+03	6.711175E-01	2.366681E-02
3.754797E+03	6.718832E-01	2.364837E-02
3.757005E+03	6.726487E-01	2.362979E-02
3.759212E+03	6.732301E-01	2.360465E-02
3.761421E+03	6.737502E-01	2.357724E-02
3.763628E+03	6.741785E-01	2.354655E-02
3.765836E+03	6.739646E-01	2.349341E-02
3.768043E+03	6.737508E-01	2.344028E-02
3.770251E+03	6.735063E-01	2.338610E-02
3.772458E+03	6.728649E-01	2.331818E-02
3.774666E+03	6.720406E-01	2.324401E-02
3.776875E+03	6.715521E-01	2.318150E-02
3.779082E+03	6.706975E-01	2.310645E-02
3.781290E+03	6.694158E-01	2.301682E-02
3.783497E+03	6.679209E-01	2.292003E-02
3.785705E+03	6.661519E-01	2.281404E-02
3.787912E+03	6.638344E-01	2.268953E-02
3.790120E+03	6.610906E-01	2.255078E-02
3.792328E+03	6.579819E-01	2.239994E-02
3.794536E+03	6.546610E-01	2.224233E-02
3.796743E+03	6.513106E-01	2.208415E-02
3.798951E+03	6.475956E-01	2.191407E-02
3.801158E+03	6.439430E-01	2.174660E-02
3.803366E+03	6.404134E-01	2.158376E-02
3.805573E+03	6.368546E-01	2.142040E-02
3.807782E+03	6.332055E-01	2.125446E-02
3.809989E+03	6.300144E-01	2.110438E-02
3.812197E+03	6.271289E-01	2.096493E-02
3.814404E+03	6.246705E-01	2.084011E-02
3.816612E+03	6.225781E-01	2.072780E-02
3.818819E+03	6.207296E-01	2.062387E-02
3.821027E+03	6.189731E-01	2.052323E-02
3.823236E+03	6.172173E-01	2.042282E-02
3.825443E+03	6.156138E-01	2.032769E-02
3.827651E+03	6.142847E-01	2.024181E-02
3.829858E+03	6.132903E-01	2.016711E-02
3.832066E+03	6.126608E-01	2.010450E-02
3.834273E+03	6.125786E-01	2.005990E-02
3.836481E+03	6.126785E-01	2.002125E-02
3.838689E+03	6.131731E-01	1.999542E-02
3.840897E+03	6.140321E-01	1.998140E-02
3.843104E+03	6.151333E-01	1.997511E-02
3.845312E+03	6.164771E-01	1.997653E-02
3.847519E+03	6.180023E-01	1.998361E-02
3.849727E+03	6.194662E-01	1.998851E-02
3.851934E+03	6.207476E-01	1.998731E-02
3.854143E+03	6.220891E-01	1.998784E-02
3.856350E+03	6.234297E-01	1.998818E-02
3.858558E+03	6.249519E-01	1.999413E-02
3.860765E+03	6.263524E-01	1.999597E-02
3.862973E+03	6.279037E-01	2.000242E-02
3.865181E+03	6.297572E-01	2.001826E-02
3.867388E+03	6.315496E-01	2.003190E-02
3.869597E+03	6.335532E-01	2.005195E-02
3.871804E+03	6.356770E-01	2.007553E-02
3.874012E+03	6.379516E-01	2.010356E-02
3.876219E+03	6.401646E-01	2.012934E-02
3.878427E+03	6.425584E-01	2.016048E-02
3.880634E+03	6.447393E-01	2.018462E-02
3.882842E+03	6.472522E-01	2.021883E-02
3.885050E+03	6.500970E-01	2.026301E-02
3.887258E+03	6.531221E-01	2.031242E-02
3.889465E+03	6.563879E-01	2.036888E-02
3.891673E+03	6.599248E-01	2.043328E-02
3.893880E+03	6.633692E-01	2.049433E-02
3.896088E+03	6.666008E-01	2.054834E-02
3.898295E+03	6.696800E-01	2.059722E-02
3.900504E+03	6.725465E-01	2.063912E-02
3.902711E+03	6.753818E-01	2.067968E-02
3.904919E+03	6.780343E-01	2.071428E-02
3.907126E+03	6.806559E-01	2.074755E-02
3.909334E+03	6.830951E-01	2.077492E-02
3.911542E+03	6.852012E-01	2.079184E-02
3.913749E+03	6.868235E-01	2.079382E-02
3.915958E+03	6.882640E-01	2.079007E-02
3.918165E+03	6.895228E-01	2.078065E-02
3.920373E+03	6.905096E-01	2.076289E-02
3.922580E+03	6.914960E-01	2.074497E-02
3.924788E+03	6.923612E-01	2.072329E-02
3.926995E+03	6.928643E-01	2.069067E-02
3.929203E+03	6.928547E-01	2.064272E-02
3.931411E+03	6.925738E-01	2.058667E-02
3.933619E+03	6.917806E-01	2.051549E-02
3.935826E+03	6.905356E-01	2.043106E-02
3.938034E+03	6.887791E-01	2.033169E-02
3.940241E+03	6.867218E-01	2.022371E-02
3.942449E+03	6.840933E-01	2.009924E-02
3.944656E+03	6.809538E-01	1.996014E-02
3.946865E+03	6.775748E-01	1.981446E-02
3.949072E+03	6.740764E-01	1.966578E-02
3.951280E+03	6.703087E-01	1.950975E-02
3.953487E+03	6.664217E-01	1.935077E-02
3.955695E+03	6.625363E-01	1.919238E-02
3.957903E+03	6.585319E-01	1.903108E-02
3.960110E+03	6.541082E-01	1.885825E-02
3.962319E+03	6.495657E-01	1.868260E-02
3.964526E+03	6.452351E-01	1.851368E-02
3.966734E+03	6.409062E-01	1.834540E-02
3.968941E+03	6.364586E-01	1.817433E-02
3.971149E+03	6.323432E-01	1.801335E-02
3.973356E+03	6.282891E-01	1.785468E-02
3.975564E+03	6.241165E-01	1.769320E-02
3.977772E+03	6.199153E-01	1.753149E-02
3.979980E+03	6.159257E-01	1.737634E-02
3.982187E+03	6.122078E-01	1.722940E-02
3.984395E+03	6.086711E-01	1.708806E-02
3.986602E+03	6.054657E-01	1.695648E-02
3.988810E+03	6.025310E-01	1.683292E-02
3.991017E+03	6.000775E-01	1.672319E-02
3.993226E+03	5.978046E-01	1.661879E-02
3.995433E+03	5.960718E-01	1.652972E-02
3.997641E+03	5.948494E-01	1.645501E-02
3.999848E+03	5.939566E-01	1.638957E-02
4.002056E+03	5.932141E-01	1.632840E-02
4.004264E+03	5.928610E-01	1.627803E-02
4.006471E+03	5.928075E-01	1.623592E-02
4.008680E+03	5.928736E-01	1.619709E-02
4.010887E+03	5.930894E-01	1.616235E-02
4.013095E+03	5.935443E-01	1.613409E-02
4.015302E+03	5.942983E-01	1.611389E-02
4.017510E+03	5.952014E-01	1.609763E-02
4.019717E+03	5.961640E-01	1.608286E-02
4.021925E+03	5.975147E-01	1.607842E-02
4.024133E+03	5.992537E-01	1.608421E-02
4.026341E+03	6.012012E-01	1.609538E-02
4.028548E+03	6.032671E-01	1.610945E-02
4.030756E+03	6.058404E-01	1.613677E-02
4.032963E+03	6.085021E-01	1.616611E-02
4.035171E+03	6.110434E-01	1.619190E-02
4.037378E+03	6.137927E-01	1.622286E-02
4.039587E+03	6.167795E-01	1.625970E-02
4.041794E+03	6.196756E-01	1.629378E-02
4.044002E+03	6.226303E-01	1.632903E-02
4.046209E+03	6.257627E-01	1.636854E-02
4.048417E+03	6.286848E-01	1.640214E-02
4.050625E+03	6.312479E-01	1.642603E-02
4.052832E+03	6.336013E-01	1.644415E-02
4.055041E+03	6.359536E-01	1.646192E-02
4.057248E+03	6.380962E-01	1.647399E-02
4.059456E+03	6.402079E-01	1.648500E-02
4.061663E+03	6.421402E-01	1.649113E-02
4.063871E+03	6.440117E-01	1.649547E-02
4.066078E+03	6.457337E-01	1.649575E-02
4.068286E+03	6.473658E-01	1.649353E-02
4.070494E+03	6.487586E-01	1.648502E-02
4.072702E+03	6.502699E-01	1.647936E-02
4.074909E+03	6.515426E-01	1.646749E-02
4.077117E+03	6.524276E-01	1.644570E-02
4.079324E+03	6.528064E-01	1.641109E-02
4.081532E+03	6.529173E-01	1.636974E-02
4.083739E+03	6.526117E-01	1.631799E-02
4.085948E+03	6.519491E-01	1.625738E-02
4.088155E+03	6.510192E-01	1.619026E-02
4.090363E+03	6.499113E-01	1.611888E-02
4.092570E+03	6.484471E-01	1.603887E-02
4.094778E+03	6.465970E-01	1.594956E-02
4.096986E+03	6.445397E-01	1.585543E-02
4.099193E+03	6.422157E-01	1.575507E-02
4.101401E+03	6.396550E-01	1.564926E-02
4.103609E+03	6.369168E-01	1.553948E-02
4.105817E+03	6.342097E-01	1.543086E-02
4.108024E+03	6.313548E-01	1.531906E-02
4.110232E+03	6.283826E-01	1.520484E-02
4.112439E+03	6.253518E-01	1.508963E-02
4.114647E+03	6.221444E-01	1.497061E-02
4.116854E+03	6.187007E-01	1.484638E-02
4.119063E+03	6.150508E-01	1.471770E-02
4.121270E+03	6.114024E-01	1.458959E-02
4.123478E+03	6.076071E-01	1.445850E-02
4.125685E+03	6.036650E-01	1.432447E-02
4.127893E+03	5.995466E-01	1.418684E-02
4.130100E+03	5.954295E-01	1.404981E-02
4.132309E+03	5.913144E-01	1.391340E-02
4.134516E+03	5.874078E-01	1.378248E-02
4.136724E+03	5.838283E-01	1.365977E-02
4.138931E+03	5.806053E-01	1.354589E-02
4.141139E+03	5.775315E-01	1.343595E-02
4.143347E+03	5.746067E-01	1.332990E-02
4.145554E+03	5.715944E-01	1.322226E-02
4.147763E+03	5.684057E-01	1.311096E-02
4.149970E+03	5.652475E-01	1.300085E-02
4.152178E+03	5.623273E-01	1.289664E-02
4.154385E+03	5.595263E-01	1.279559E-02
4.156593E+03	5.567263E-01	1.269497E-02
4.158800E+03	5.541046E-01	1.259882E-02
4.161008E+03	5.514837E-01	1.250306E-02
4.163216E+03	5.485686E-01	1.240103E-02
4.165424E+03	5.454480E-01	1.229480E-02
4.167631E+03	5.424167E-01	1.219103E-02
4.169839E+03	5.393871E-01	1.208773E-02
4.172046E+03	5.364763E-01	1.198753E-02
4.174254E+03	5.338025E-01	1.189303E-02
4.176461E+03	5.314545E-01	1.180616E-02
4.178669E+03	5.294315E-01	1.172684E-02
4.180877E+03	5.274979E-01	1.164979E-02
4.183085E+03	5.256826E-01	1.157565E-02
4.185292E+03	5.238684E-01	1.150182E-02
4.187500E+03	5.218776E-01	1.142440E-02
4.189708E+03	5.195637E-01	1.134023E-02
4.191915E+03	5.173095E-01	1.125771E-02
4.194123E+03	5.148795E-01	1.117171E-02
4.196331E+03	5.123618E-01	1.108416E-02
4.198539E+03	5.096391E-01	1.099258E-02
4.200746E+03	5.065055E-01	1.089255E-02
4.202954E+03	5.029904E-01	1.078480E-02
4.205161E+03	4.992707E-01	1.067317E-02
4.207369E+03	4.953465E-01	1.055771E-02
4.209577E+03	4.913357E-01	1.044095E-02
4.211785E+03	4.875909E-01	1.033039E-02
4.213992E+03	4.839357E-01	1.022225E-02
4.216200E+03	4.800469E-01	1.010971E-02
4.218407E+03	4.759834E-01	9.994045E-03
4.220615E+03	4.720682E-01	9.882048E-03
4.222822E+03	4.679194E-01	9.765722E-03
4.225031E+03	4.637430E-01	9.649383E-03
4.227238E+03	4.597737E-01	9.537933E-03
4.229446E+03	4.558353E-01	9.427670E-03
4.231653E+03	4.517515E-01	9.314957E-03
4.233861E+03	4.478162E-01	9.205858E-03
4.236069E+03	4.439998E-01	9.099740E-03
4.238276E+03	4.401554E-01	8.993580E-03
4.240484E+03	4.366939E-01	8.895752E-03
4.242692E+03	4.336733E-01	8.807348E-03
4.244900E+03	4.311817E-01	8.730097E-03
4.247107E+03	4.290426E-01	8.660323E-03
4.249315E+03	4.274025E-01	8.600910E-03
4.251522E+03	4.261732E-01	8.549995E-03
4.253730E+03	4.253545E-01	8.507501E-03
4.255937E+03	4.248288E-01	8.471005E-03
4.258146E+03	4.245668E-01	8.439862E-03
4.260353E+03	4.244804E-01	8.412302E-03
4.262561E+03	4.245401E-01	8.387697E-03
4.264768E+03	4.246001E-01	8.363151E-03
4.266976E+03	4.248062E-01	8.341527E-03
4.269183E+03	4.253045E-01	8.325659E-03
4.271392E+03	4.260073E-01	8.313773E-03
4.273599E+03	4.268850E-01	8.305281E-03
4.275807E+03	4.279085E-01	8.299575E-03
4.278014E+03	4.289610E-01	8.294371E-03
4.280222E+03	4.300418E-01	8.289655E-03
4.282430E+03	4.312392E-01	8.287117E-03
4.284637E+03	4.324361E-01	8.284494E-03
4.286846E+03	4.335739E-01	8.280660E-03
4.289053E+03	4.347404E-01	8.277318E-03
4.291261E+03	4.358481E-01	8.272795E-03
4.293468E+03	4.369551E-01	8.268200E-03
4.295676E+03	4.381783E-01	8.265741E-03
4.297883E+03	4.394885E-01	8.264849E-03
4.300091E+03	4.408855E-01	8.265508E-03
4.302298E+03	4.424279E-01	8.268798E-03
4.304507E+03	4.440277E-01	8.273044E-03
4.306714E+03	4.456559E-01	8.277725E-03
4.308922E+03	4.474874E-01	8.286063E-03
4.311129E+03	4.494054E-01	8.295870E-03
4.313337E+03	4.513810E-01	8.306598E-03
4.315544E+03	4.533262E-01	8.316629E-03
4.317752E+03	4.553582E-01	8.328112E-03
4.319960E+03	4.576221E-01	8.343667E-03
4.322168E+03	4.599724E-01	8.360638E-03
4.324375E+03	4.623797E-01	8.378468E-03
4.326583E+03	4.648732E-01	8.397675E-03
4.328791E+03	4.673075E-01	8.415631E-03
4.330998E+03	4.693916E-01	8.427124E-03
4.333207E+03	4.713295E-01	8.435853E-03
4.335414E+03	4.730632E-01	8.440833E-03
4.337622E+03	4.745925E-01	8.442084E-03
4.339829E+03	4.760628E-01	8.442224E-03
4.342037E+03	4.775617E-01	8.442807E-03
4.344244E+03	4.787694E-01	8.438200E-03
4.346452E+03	4.798024E-01	8.430498E-03
4.348660E+03	4.807767E-01	8.421749E-03
4.350868E+03	4.814311E-01	8.407428E-03
4.353075E+03	4.815919E-01	8.384551E-03
4.355283E+03	4.816947E-01	8.360759E-03
4.357490E+03	4.815942E-01	8.333550E-03
4.359698E+03	4.812615E-01	8.302458E-03
4.361905E+03	4.808711E-01	8.270522E-03
4.364113E+03	4.807127E-01	8.242718E-03
4.366321E+03	4.803801E-01	8.212057E-03
4.368529E+03	4.799319E-01	8.179589E-03
4.370736E+03	4.793389E-01	8.144825E-03
4.372944E+03	4.786013E-01	8.107788E-03
4.375152E+03	4.774584E-01	8.064103E-03
4.377359E+03	4.761132E-01	8.017249E-03
4.379567E+03	4.746525E-01	7.968713E-03
4.381775E+03	4.730189E-01	7.917542E-03
4.383983E+03	4.709810E-01	7.859921E-03
4.386190E+03	4.688568E-01	7.801191E-03
4.388398E+03	4.666467E-01	7.741372E-03
4.390605E+03	4.642929E-01	7.679520E-03
4.392813E+03	4.620559E-01	7.619949E-03
4.395021E+03	4.601952E-01	7.566902E-03
4.397229E+03	4.584797E-01	7.516554E-03
4.399436E+03	4.567939E-01	7.466984E-03
4.401644E+03	4.550509E-01	7.416773E-03
4.403851E+03	4.530198E-01	7.362175E-03
4.406059E+03	4.505274E-01	7.300425E-03
4.408266E+03	4.478052E-01	7.235328E-03
4.410475E+03	4.449973E-01	7.169229E-03
4.412682E+03	4.421040E-01	7.102158E-03
