#wls	flux	fluxerr
1.544402E+03	3.419074E-02	1.712859E-03
1.583012E+03	3.505816E-02	1.748193E-03
1.621622E+03	3.595848E-02	1.784564E-03
1.660232E+03	3.691446E-02	1.823055E-03
1.698842E+03	3.791422E-02	1.863021E-03
1.737452E+03	3.897479E-02	1.905242E-03
1.776062E+03	4.008373E-02	1.949045E-03
1.814672E+03	4.126709E-02	1.995627E-03
1.853282E+03	4.251241E-02	2.044306E-03
1.891892E+03	4.383103E-02	2.095546E-03
1.930502E+03	4.522661E-02	2.149432E-03
1.969112E+03	4.670291E-02	2.206045E-03
2.007722E+03	4.827306E-02	2.265898E-03
2.046332E+03	4.994184E-02	2.329095E-03
2.084942E+03	5.171422E-02	2.395740E-03
2.123552E+03	5.359527E-02	2.465929E-03
2.162162E+03	5.560052E-02	2.540224E-03
2.200772E+03	5.772559E-02	2.618262E-03
2.239382E+03	5.998674E-02	2.700604E-03
2.277992E+03	6.240157E-02	2.787847E-03
2.316602E+03	6.496589E-02	2.879589E-03
2.355212E+03	6.768604E-02	2.975889E-03
2.393822E+03	7.059280E-02	3.077857E-03
2.432432E+03	7.368173E-02	3.185025E-03
2.471042E+03	7.697273E-02	3.297966E-03
2.509653E+03	8.048680E-02	3.417259E-03
2.548263E+03	8.421845E-02	3.542329E-03
2.586873E+03	8.820255E-02	3.674275E-03
2.625483E+03	9.244710E-02	3.813023E-03
2.664093E+03	9.697410E-02	3.959043E-03
2.702703E+03	1.018059E-01	4.112768E-03
2.741313E+03	1.069647E-01	4.274578E-03
2.779923E+03	1.124889E-01	4.445429E-03
2.818533E+03	1.183845E-01	4.624930E-03
2.857143E+03	1.247226E-01	4.815181E-03
2.895753E+03	1.315255E-01	5.016260E-03
2.905405E+03	1.332910E-01	5.067824E-03
2.915058E+03	1.350998E-01	5.120548E-03
2.924710E+03	1.369523E-01	5.174421E-03
2.934363E+03	1.388307E-01	5.228759E-03
2.944015E+03	1.407350E-01	5.283544E-03
2.953668E+03	1.426831E-01	5.339436E-03
2.963320E+03	1.446568E-01	5.395741E-03
2.972973E+03	1.466743E-01	5.453120E-03
2.982625E+03	1.487356E-01	5.511556E-03
2.992278E+03	1.508409E-01	5.571032E-03
3.001931E+03	1.529715E-01	5.630846E-03
3.011583E+03	1.551458E-01	5.691660E-03
3.021236E+03	1.573639E-01	5.753451E-03
3.030888E+03	1.596255E-01	5.816199E-03
3.040541E+03	1.619307E-01	5.879880E-03
3.050193E+03	1.642792E-01	5.944470E-03
3.059846E+03	1.666902E-01	6.010633E-03
3.069498E+03	1.691252E-01	6.076965E-03
3.079151E+03	1.716224E-01	6.144818E-03
3.088803E+03	1.741623E-01	6.213472E-03
3.098456E+03	1.767448E-01	6.282898E-03
3.108108E+03	1.793890E-01	6.353758E-03
3.117761E+03	1.820948E-01	6.426019E-03
3.127413E+03	1.848425E-01	6.498958E-03
3.137066E+03	1.876514E-01	6.573232E-03
3.146718E+03	1.905212E-01	6.648807E-03
3.156371E+03	1.934319E-01	6.724952E-03
3.166023E+03	1.964230E-01	6.803018E-03
3.175676E+03	1.994541E-01	6.881579E-03
3.185328E+03	2.025651E-01	6.961981E-03
3.194981E+03	2.057356E-01	7.043491E-03
3.204633E+03	2.089651E-01	7.126066E-03
3.214286E+03	2.122737E-01	7.210356E-03
3.223938E+03	2.156406E-01	7.295625E-03
3.233591E+03	2.190858E-01	7.382518E-03
3.243243E+03	2.225885E-01	7.470299E-03
3.252896E+03	2.261894E-01	7.560301E-03
3.262548E+03	2.298469E-01	7.651097E-03
3.272201E+03	2.336020E-01	7.744013E-03
3.281853E+03	2.374129E-01	7.837629E-03
3.291506E+03	2.413206E-01	7.933264E-03
3.301158E+03	2.453042E-01	8.030184E-03
3.310811E+03	2.493838E-01	8.129012E-03
3.320463E+03	2.535596E-01	8.229707E-03
3.330116E+03	2.578099E-01	8.331528E-03
3.339768E+03	2.621557E-01	8.435105E-03
3.349421E+03	2.665964E-01	8.540381E-03
3.359073E+03	2.711529E-01	8.647974E-03
3.368726E+03	2.757828E-01	8.756480E-03
3.378378E+03	2.805276E-01	8.867182E-03
3.388031E+03	2.853871E-01	8.980014E-03
3.397683E+03	2.903612E-01	9.094918E-03
3.407336E+03	2.954272E-01	9.211135E-03
3.416988E+03	3.006064E-01	9.329276E-03
3.426641E+03	3.059180E-01	9.449884E-03
3.436293E+03	3.113394E-01	9.572197E-03
3.445946E+03	3.168681E-01	9.696090E-03
3.455598E+03	3.225222E-01	9.822059E-03
3.465251E+03	3.282970E-01	9.949900E-03
3.474903E+03	3.341862E-01	1.007937E-02
3.484556E+03	3.401817E-01	1.021016E-02
3.494208E+03	3.462725E-01	1.034190E-02
3.503861E+03	3.524652E-01	1.047473E-02
3.513514E+03	3.587208E-01	1.060745E-02
3.523166E+03	3.650379E-01	1.073999E-02
3.532819E+03	3.713895E-01	1.087152E-02
3.542471E+03	3.777435E-01	1.100108E-02
3.552124E+03	3.840860E-01	1.112827E-02
3.561776E+03	3.903565E-01	1.125135E-02
3.571429E+03	3.965356E-01	1.136979E-02
3.581081E+03	4.025616E-01	1.148186E-02
3.590734E+03	4.084374E-01	1.158772E-02
3.600386E+03	4.141061E-01	1.168582E-02
3.610039E+03	4.195374E-01	1.177540E-02
3.619691E+03	4.247274E-01	1.185646E-02
3.629344E+03	4.296374E-01	1.192803E-02
3.638996E+03	4.342965E-01	1.199106E-02
3.648649E+03	4.386583E-01	1.204436E-02
3.658301E+03	4.427626E-01	1.208918E-02
3.667954E+03	4.465934E-01	1.212519E-02
3.677606E+03	4.501578E-01	1.215271E-02
3.687259E+03	4.534847E-01	1.217264E-02
3.696911E+03	4.565850E-01	1.218538E-02
3.706564E+03	4.594891E-01	1.219186E-02
3.716216E+03	4.621721E-01	1.219149E-02
3.725869E+03	4.646671E-01	1.218527E-02
3.735521E+03	4.670064E-01	1.217411E-02
3.745174E+03	4.692061E-01	1.215852E-02
3.754826E+03	4.712669E-01	1.213858E-02
3.764479E+03	4.732278E-01	1.211536E-02
3.774131E+03	4.751302E-01	1.208996E-02
3.783784E+03	4.769685E-01	1.206228E-02
3.793436E+03	4.787903E-01	1.203354E-02
3.803089E+03	4.806277E-01	1.200457E-02
3.812741E+03	4.825269E-01	1.197650E-02
3.822394E+03	4.844820E-01	1.194916E-02
3.832046E+03	4.865578E-01	1.192413E-02
3.841699E+03	4.887142E-01	1.190038E-02
3.851351E+03	4.909753E-01	1.187846E-02
3.861004E+03	4.933194E-01	1.185781E-02
3.870656E+03	4.956970E-01	1.183721E-02
3.880309E+03	4.980616E-01	1.181555E-02
3.889961E+03	5.003588E-01	1.179157E-02
3.899614E+03	5.025445E-01	1.176427E-02
3.909266E+03	5.045469E-01	1.173204E-02
3.918919E+03	5.063154E-01	1.169382E-02
3.928571E+03	5.077961E-01	1.164848E-02
3.938224E+03	5.089885E-01	1.159616E-02
3.947876E+03	5.098572E-01	1.153620E-02
3.957529E+03	5.104090E-01	1.146892E-02
3.967181E+03	5.106815E-01	1.139532E-02
3.976834E+03	5.106898E-01	1.131587E-02
3.986486E+03	5.104985E-01	1.123213E-02
3.996139E+03	5.101569E-01	1.114528E-02
4.005792E+03	5.097181E-01	1.105655E-02
4.015444E+03	5.092674E-01	1.096784E-02
4.025097E+03	5.088266E-01	1.087964E-02
4.034749E+03	5.084409E-01	1.079290E-02
4.044402E+03	5.081501E-01	1.070846E-02
4.054054E+03	5.079354E-01	1.062589E-02
4.063707E+03	5.078133E-01	1.054551E-02
4.073359E+03	5.077341E-01	1.046627E-02
4.083012E+03	5.076756E-01	1.038770E-02
4.092664E+03	5.075777E-01	1.030861E-02
4.102317E+03	5.073943E-01	1.022807E-02
4.111969E+03	5.070578E-01	1.014481E-02
4.121622E+03	5.065208E-01	1.005796E-02
4.131274E+03	5.057275E-01	9.966522E-03
4.140927E+03	5.046162E-01	9.869429E-03
4.150579E+03	5.031379E-01	9.765883E-03
4.160232E+03	5.012479E-01	9.655201E-03
4.169884E+03	4.989059E-01	9.536807E-03
4.179537E+03	4.960637E-01	9.410001E-03
4.189189E+03	4.927159E-01	9.274912E-03
4.198842E+03	4.888312E-01	9.131183E-03
4.208494E+03	4.844348E-01	8.979526E-03
4.218147E+03	4.795263E-01	8.820158E-03
4.227799E+03	4.741714E-01	8.654507E-03
4.237452E+03	4.684326E-01	8.483893E-03
4.247104E+03	4.623900E-01	8.309923E-03
4.256757E+03	4.561366E-01	8.134384E-03
4.266409E+03	4.497793E-01	7.959252E-03
4.276062E+03	4.434272E-01	7.786484E-03
4.285714E+03	4.371852E-01	7.617903E-03
4.295367E+03	4.311505E-01	7.455142E-03
4.305019E+03	4.254040E-01	7.299504E-03
4.314672E+03	4.200318E-01	7.152338E-03
4.324324E+03	4.150906E-01	7.014453E-03
4.333977E+03	4.106372E-01	6.886632E-03
4.343629E+03	4.067237E-01	6.769557E-03
4.353282E+03	4.033847E-01	6.663599E-03
4.362934E+03	4.006651E-01	6.569280E-03
4.372587E+03	3.985957E-01	6.486883E-03
4.382239E+03	3.972055E-01	6.416648E-03
4.391892E+03	3.965269E-01	6.358864E-03
4.401544E+03	3.965957E-01	6.313867E-03
4.411197E+03	3.974330E-01	6.281754E-03
4.420849E+03	3.990666E-01	6.262722E-03
4.430502E+03	4.015056E-01	6.256676E-03
4.440154E+03	4.047563E-01	6.263484E-03
4.449807E+03	4.088231E-01	6.282991E-03
4.459459E+03	4.136778E-01	6.314557E-03
4.469112E+03	4.192931E-01	6.357577E-03
4.478764E+03	4.256269E-01	6.411243E-03
4.488417E+03	4.326109E-01	6.474387E-03
4.498069E+03	4.401654E-01	6.545705E-03
4.507722E+03	4.482055E-01	6.623859E-03
4.517375E+03	4.566072E-01	6.706976E-03
4.527027E+03	4.652454E-01	6.793218E-03
4.536680E+03	4.739697E-01	6.880429E-03
4.546332E+03	4.826105E-01	6.966232E-03
4.555985E+03	4.909708E-01	7.047912E-03
4.565637E+03	4.988523E-01	7.122795E-03
4.575290E+03	5.060194E-01	7.187731E-03
4.584942E+03	5.122352E-01	7.239614E-03
4.594595E+03	5.172829E-01	7.275653E-03
4.604247E+03	5.209506E-01	7.293142E-03
4.613900E+03	5.230785E-01	7.290126E-03
4.623552E+03	5.235626E-01	7.265436E-03
4.633205E+03	5.223587E-01	7.218730E-03
4.642857E+03	5.194930E-01	7.150618E-03
4.652510E+03	5.150705E-01	7.062754E-03
4.662162E+03	5.092283E-01	6.957183E-03
4.671815E+03	5.021695E-01	6.836800E-03
4.681467E+03	4.941035E-01	6.704533E-03
4.691120E+03	4.852536E-01	6.563446E-03
4.700772E+03	4.758427E-01	6.416547E-03
4.710425E+03	4.660606E-01	6.266361E-03
4.720077E+03	4.560904E-01	6.115290E-03
4.729730E+03	4.460834E-01	5.965286E-03
4.739382E+03	4.361546E-01	5.817791E-03
4.749035E+03	4.264133E-01	5.674166E-03
4.758687E+03	4.169312E-01	5.535259E-03
4.768340E+03	4.077649E-01	5.401720E-03
4.777992E+03	3.989507E-01	5.273925E-03
4.787645E+03	3.905170E-01	5.152150E-03
4.797297E+03	3.824881E-01	5.036618E-03
4.806950E+03	3.748676E-01	4.927287E-03
4.816602E+03	3.676723E-01	4.824292E-03
4.826255E+03	3.608982E-01	4.727498E-03
4.835907E+03	3.545463E-01	4.636842E-03
4.845560E+03	3.486177E-01	4.552267E-03
4.855212E+03	3.431002E-01	4.473545E-03
4.864865E+03	3.379835E-01	4.400483E-03
4.874517E+03	3.332445E-01	4.332720E-03
4.884170E+03	3.288571E-01	4.269863E-03
4.893822E+03	3.247921E-01	4.211486E-03
4.903475E+03	3.210184E-01	4.157139E-03
4.913127E+03	3.175111E-01	4.106460E-03
4.922780E+03	3.142394E-01	4.059014E-03
4.932432E+03	3.111955E-01	4.014664E-03
4.942085E+03	3.083684E-01	3.973236E-03
4.951737E+03	3.057719E-01	3.934875E-03
4.961390E+03	3.034213E-01	3.899751E-03
4.971042E+03	3.013455E-01	3.868201E-03
4.980695E+03	2.995804E-01	3.840657E-03
4.990347E+03	2.981663E-01	3.817603E-03
5.000000E+03	2.971465E-01	3.799560E-03
5.009653E+03	2.965512E-01	3.786878E-03
5.019305E+03	2.964157E-01	3.779970E-03
5.028958E+03	2.967556E-01	3.778997E-03
5.038610E+03	2.975771E-01	3.783996E-03
5.048263E+03	2.988755E-01	3.794865E-03
5.057915E+03	3.006231E-01	3.811213E-03
5.067568E+03	3.027917E-01	3.832638E-03
5.077220E+03	3.053320E-01	3.858476E-03
5.086873E+03	3.081914E-01	3.888023E-03
5.096525E+03	3.112995E-01	3.920353E-03
5.106178E+03	3.145942E-01	3.954653E-03
5.115830E+03	3.180000E-01	3.989941E-03
5.125483E+03	3.214465E-01	4.025312E-03
5.135135E+03	3.248534E-01	4.059738E-03
5.144788E+03	3.281546E-01	4.092380E-03
5.154440E+03	3.312765E-01	4.122312E-03
5.164093E+03	3.341514E-01	4.148691E-03
5.173745E+03	3.367188E-01	4.170773E-03
5.183398E+03	3.389127E-01	4.187750E-03
5.193050E+03	3.406879E-01	4.199089E-03
5.202703E+03	3.419938E-01	4.204193E-03
5.212355E+03	3.428050E-01	4.202785E-03
5.222008E+03	3.430986E-01	4.194626E-03
5.231660E+03	3.428666E-01	4.179667E-03
5.241313E+03	3.421281E-01	4.158192E-03
5.250965E+03	3.409049E-01	4.130517E-03
5.260618E+03	3.392440E-01	4.097266E-03
5.270270E+03	3.372027E-01	4.059183E-03
5.279923E+03	3.348457E-01	4.017094E-03
5.289575E+03	3.322510E-01	3.971977E-03
5.299228E+03	3.294936E-01	3.924763E-03
5.308880E+03	3.266515E-01	3.876405E-03
5.318533E+03	3.237949E-01	3.827758E-03
5.328185E+03	3.209909E-01	3.779623E-03
5.337838E+03	3.183008E-01	3.732720E-03
5.347490E+03	3.157720E-01	3.687600E-03
5.357143E+03	3.134446E-01	3.644716E-03
5.366795E+03	3.113406E-01	3.604301E-03
5.376448E+03	3.094819E-01	3.566585E-03
5.386100E+03	3.078687E-01	3.531543E-03
5.395753E+03	3.065064E-01	3.499204E-03
5.405405E+03	3.053890E-01	3.469471E-03
5.415058E+03	3.045004E-01	3.442128E-03
5.424710E+03	3.038360E-01	3.417093E-03
5.434363E+03	3.033834E-01	3.394199E-03
5.444015E+03	3.031287E-01	3.373263E-03
5.453668E+03	3.030612E-01	3.354137E-03
5.463320E+03	3.031726E-01	3.336708E-03
5.472973E+03	3.034478E-01	3.320783E-03
5.482625E+03	3.038736E-01	3.306200E-03
5.492278E+03	3.044236E-01	3.292652E-03
5.501931E+03	3.050774E-01	3.279907E-03
5.511583E+03	3.058011E-01	3.267592E-03
5.521236E+03	3.065510E-01	3.255242E-03
5.530888E+03	3.072788E-01	3.242352E-03
5.540541E+03	3.079308E-01	3.228379E-03
5.550193E+03	3.084483E-01	3.212740E-03
5.559846E+03	3.087721E-01	3.194864E-03
5.569498E+03	3.088457E-01	3.174229E-03
5.579151E+03	3.086093E-01	3.150293E-03
5.588803E+03	3.080206E-01	3.122710E-03
5.598456E+03	3.070445E-01	3.091224E-03
5.608108E+03	3.056616E-01	3.055741E-03
5.617761E+03	3.038659E-01	3.016311E-03
5.627413E+03	3.016758E-01	2.973226E-03
5.637066E+03	2.991252E-01	2.926923E-03
5.646718E+03	2.962593E-01	2.877944E-03
5.656371E+03	2.931498E-01	2.827068E-03
5.666023E+03	2.898708E-01	2.775081E-03
5.675676E+03	2.865063E-01	2.722840E-03
5.685328E+03	2.831440E-01	2.671212E-03
5.694981E+03	2.798699E-01	2.621026E-03
5.704633E+03	2.767639E-01	2.573028E-03
5.714286E+03	2.739015E-01	2.527904E-03
5.723938E+03	2.713526E-01	2.486266E-03
5.733591E+03	2.691713E-01	2.448567E-03
5.743243E+03	2.673991E-01	2.415134E-03
5.752896E+03	2.660705E-01	2.386222E-03
5.762548E+03	2.652006E-01	2.361907E-03
5.772201E+03	2.647921E-01	2.342156E-03
5.781853E+03	2.648331E-01	2.326812E-03
5.791506E+03	2.652957E-01	2.315587E-03
5.801158E+03	2.661364E-01	2.308064E-03
5.810811E+03	2.672980E-01	2.303730E-03
5.820463E+03	2.687186E-01	2.302042E-03
5.830116E+03	2.703258E-01	2.302390E-03
5.839768E+03	2.720388E-01	2.304108E-03
5.849421E+03	2.737835E-01	2.306607E-03
5.859073E+03	2.754815E-01	2.309273E-03
5.868726E+03	2.770685E-01	2.311628E-03
5.878378E+03	2.784842E-01	2.313233E-03
5.888031E+03	2.796816E-01	2.313767E-03
5.897683E+03	2.806219E-01	2.312979E-03
5.907336E+03	2.812782E-01	2.310715E-03
5.916988E+03	2.816352E-01	2.306914E-03
5.926641E+03	2.816854E-01	2.301570E-03
5.936293E+03	2.814256E-01	2.294711E-03
5.945946E+03	2.808508E-01	2.286336E-03
5.955598E+03	2.799598E-01	2.276460E-03
5.965251E+03	2.787441E-01	2.264992E-03
5.974903E+03	2.771910E-01	2.251790E-03
5.984556E+03	2.752777E-01	2.236625E-03
5.994208E+03	2.729739E-01	2.219192E-03
6.003861E+03	2.702538E-01	2.199220E-03
6.013514E+03	2.670845E-01	2.176370E-03
6.023166E+03	2.634430E-01	2.150374E-03
6.032819E+03	2.593258E-01	2.121115E-03
6.042471E+03	2.547342E-01	2.088510E-03
6.052124E+03	2.496997E-01	2.052718E-03
6.061776E+03	2.442775E-01	2.014093E-03
6.071429E+03	2.385502E-01	1.973215E-03
6.081081E+03	2.326130E-01	1.930780E-03
6.090734E+03	2.265866E-01	1.887704E-03
6.100386E+03	2.206053E-01	1.845037E-03
6.110039E+03	2.148016E-01	1.803833E-03
6.119691E+03	2.093123E-01	1.765205E-03
6.129344E+03	2.042571E-01	1.730150E-03
6.138996E+03	1.997501E-01	1.699636E-03
6.148649E+03	1.958827E-01	1.674467E-03
6.158301E+03	1.927277E-01	1.655304E-03
6.167954E+03	1.903313E-01	1.642597E-03
6.177606E+03	1.887206E-01	1.636648E-03
6.187259E+03	1.879007E-01	1.637571E-03
6.196911E+03	1.878519E-01	1.645272E-03
6.206564E+03	1.885374E-01	1.659504E-03
6.216216E+03	1.899072E-01	1.679903E-03
6.225869E+03	1.918908E-01	1.705910E-03
6.235521E+03	1.944087E-01	1.736877E-03
6.245174E+03	1.973687E-01	1.772028E-03
6.254826E+03	2.006707E-01	1.810499E-03
6.264479E+03	2.042122E-01	1.851384E-03
6.274131E+03	2.078830E-01	1.893691E-03
6.283784E+03	2.115867E-01	1.936532E-03
6.293436E+03	2.152228E-01	1.978964E-03
6.303089E+03	2.187081E-01	2.020187E-03
6.312741E+03	2.219711E-01	2.059499E-03
6.322394E+03	2.249548E-01	2.096315E-03
6.332046E+03	2.276247E-01	2.130259E-03
6.341699E+03	2.299596E-01	2.161071E-03
6.351351E+03	2.319604E-01	2.188702E-03
6.361004E+03	2.336402E-01	2.213215E-03
6.370656E+03	2.350234E-01	2.234793E-03
6.380309E+03	2.361401E-01	2.253671E-03
6.389961E+03	2.370317E-01	2.270204E-03
6.399614E+03	2.377327E-01	2.284686E-03
6.409266E+03	2.382772E-01	2.297414E-03
6.418919E+03	2.386936E-01	2.308637E-03
6.428571E+03	2.390060E-01	2.318564E-03
6.438224E+03	2.392242E-01	2.327275E-03
6.447876E+03	2.393544E-01	2.334813E-03
6.457529E+03	2.393915E-01	2.341111E-03
6.467181E+03	2.393195E-01	2.346001E-03
6.476834E+03	2.391214E-01	2.349302E-03
6.486486E+03	2.387731E-01	2.350763E-03
6.496139E+03	2.382454E-01	2.350084E-03
6.505792E+03	2.375176E-01	2.347048E-03
6.515444E+03	2.365609E-01	2.341361E-03
6.525097E+03	2.353597E-01	2.332856E-03
6.534749E+03	2.339053E-01	2.321441E-03
6.544402E+03	2.321890E-01	2.307025E-03
6.554054E+03	2.302192E-01	2.289687E-03
6.563707E+03	2.280102E-01	2.269573E-03
6.573359E+03	2.255841E-01	2.246905E-03
6.583012E+03	2.229698E-01	2.221980E-03
6.592664E+03	2.202012E-01	2.195146E-03
6.602317E+03	2.173152E-01	2.166784E-03
6.611969E+03	2.143527E-01	2.137315E-03
6.621622E+03	2.113465E-01	2.107083E-03
6.631274E+03	2.083347E-01	2.076484E-03
6.640927E+03	2.053520E-01	2.045881E-03
6.650579E+03	2.024216E-01	2.015522E-03
6.660232E+03	1.995715E-01	1.985702E-03
6.669884E+03	1.968149E-01	1.956568E-03
6.679537E+03	1.941696E-01	1.928309E-03
6.689189E+03	1.916413E-01	1.900998E-03
6.698842E+03	1.892341E-01	1.874686E-03
6.708494E+03	1.869459E-01	1.849366E-03
6.718147E+03	1.847790E-01	1.825069E-03
6.727799E+03	1.827284E-01	1.801757E-03
6.737452E+03	1.807838E-01	1.779338E-03
6.747104E+03	1.789404E-01	1.757776E-03
6.756757E+03	1.771913E-01	1.737010E-03
6.766409E+03	1.755315E-01	1.717001E-03
6.776062E+03	1.739498E-01	1.697651E-03
6.785714E+03	1.724441E-01	1.678946E-03
6.795367E+03	1.710057E-01	1.660814E-03
6.805019E+03	1.696262E-01	1.643183E-03
6.814672E+03	1.683032E-01	1.626040E-03
6.824324E+03	1.670279E-01	1.609311E-03
6.833977E+03	1.657933E-01	1.592941E-03
6.843629E+03	1.645923E-01	1.576874E-03
6.853282E+03	1.634178E-01	1.561055E-03
6.862934E+03	1.622629E-01	1.545432E-03
6.872587E+03	1.611230E-01	1.529976E-03
6.882239E+03	1.599881E-01	1.514607E-03
6.891892E+03	1.588549E-01	1.499311E-03
6.901544E+03	1.577211E-01	1.484082E-03
6.911197E+03	1.565816E-01	1.468889E-03
6.920849E+03	1.554344E-01	1.453732E-03
6.930502E+03	1.542791E-01	1.438627E-03
6.940154E+03	1.531169E-01	1.423599E-03
6.949807E+03	1.519522E-01	1.408711E-03
6.959459E+03	1.507855E-01	1.393983E-03
6.969112E+03	1.496265E-01	1.379523E-03
6.978764E+03	1.484805E-01	1.365396E-03
6.988417E+03	1.473578E-01	1.351715E-03
6.998069E+03	1.462657E-01	1.338560E-03
7.007722E+03	1.452136E-01	1.326035E-03
7.017375E+03	1.442124E-01	1.314253E-03
7.027027E+03	1.432685E-01	1.303287E-03
7.036680E+03	1.423884E-01	1.293211E-03
7.046332E+03	1.415785E-01	1.284099E-03
7.055985E+03	1.408413E-01	1.275988E-03
7.065637E+03	1.401753E-01	1.268881E-03
7.075290E+03	1.395807E-01	1.262795E-03
7.084942E+03	1.390521E-01	1.257700E-03
7.094595E+03	1.385865E-01	1.253587E-03
7.104247E+03	1.381778E-01	1.250419E-03
7.113900E+03	1.378176E-01	1.248141E-03
7.123552E+03	1.375005E-01	1.246722E-03
7.133205E+03	1.372184E-01	1.246111E-03
7.142857E+03	1.369612E-01	1.246234E-03
7.152510E+03	1.367218E-01	1.247045E-03
7.162162E+03	1.364924E-01	1.248493E-03
7.171815E+03	1.362613E-01	1.250487E-03
7.181467E+03	1.360186E-01	1.252953E-03
7.191120E+03	1.357563E-01	1.255828E-03
7.200772E+03	1.354634E-01	1.259021E-03
7.210425E+03	1.351295E-01	1.262428E-03
7.220077E+03	1.347505E-01	1.265988E-03
7.229730E+03	1.343141E-01	1.269565E-03
7.239382E+03	1.338178E-01	1.273107E-03
7.249035E+03	1.332547E-01	1.276516E-03
7.258687E+03	1.326222E-01	1.279736E-03
7.268340E+03	1.319131E-01	1.282662E-03
7.277992E+03	1.311283E-01	1.285261E-03
7.287645E+03	1.302638E-01	1.287453E-03
7.297297E+03	1.293162E-01	1.289161E-03
7.306950E+03	1.282876E-01	1.290359E-03
7.316602E+03	1.271732E-01	1.290952E-03
7.326255E+03	1.259735E-01	1.290894E-03
7.335907E+03	1.246875E-01	1.290125E-03
7.345560E+03	1.233149E-01	1.288587E-03
7.355212E+03	1.218544E-01	1.286214E-03
7.364865E+03	1.203077E-01	1.282970E-03
7.374517E+03	1.186818E-01	1.278873E-03
7.384170E+03	1.169777E-01	1.273882E-03
7.393822E+03	1.152073E-01	1.268074E-03
7.403475E+03	1.133821E-01	1.261529E-03
7.413127E+03	1.115149E-01	1.254344E-03
7.422780E+03	1.096223E-01	1.246669E-03
7.432432E+03	1.077240E-01	1.238696E-03
7.442085E+03	1.058373E-01	1.230603E-03
7.451737E+03	1.039813E-01	1.222594E-03
7.461390E+03	1.021754E-01	1.214893E-03
7.471042E+03	1.004347E-01	1.207683E-03
7.480695E+03	9.877543E-02	1.201168E-03
7.490347E+03	9.720871E-02	1.195501E-03
