#wls	flux	fluxerr
1.544402E+03	3.245524E-02	1.498848E-03
1.583012E+03	3.323502E-02	1.527288E-03
1.621622E+03	3.404893E-02	1.556750E-03
1.660232E+03	3.490498E-02	1.587558E-03
1.698842E+03	3.580508E-02	1.619749E-03
1.737452E+03	3.675110E-02	1.653357E-03
1.776062E+03	3.774497E-02	1.688413E-03
1.814672E+03	3.879619E-02	1.725283E-03
1.853282E+03	3.990740E-02	1.764014E-03
1.891892E+03	4.107342E-02	1.804306E-03
1.930502E+03	4.231253E-02	1.846887E-03
1.969112E+03	4.361992E-02	1.891458E-03
2.007722E+03	4.500697E-02	1.938422E-03
2.046332E+03	4.646853E-02	1.987456E-03
2.084942E+03	4.801648E-02	2.038963E-03
2.123552E+03	4.966372E-02	2.093373E-03
2.162162E+03	5.140515E-02	2.150339E-03
2.200772E+03	5.325416E-02	2.210285E-03
2.239382E+03	5.520513E-02	2.272830E-03
2.277992E+03	5.729231E-02	2.339222E-03
2.316602E+03	5.948993E-02	2.408228E-03
2.355212E+03	6.183355E-02	2.481105E-03
2.393822E+03	6.431758E-02	2.557416E-03
2.432432E+03	6.695768E-02	2.637562E-03
2.471042E+03	6.975867E-02	2.721490E-03
2.509653E+03	7.273681E-02	2.809574E-03
2.548263E+03	7.590902E-02	2.902179E-03
2.586873E+03	7.926742E-02	2.998695E-03
2.625483E+03	8.284077E-02	3.099885E-03
2.664093E+03	8.665913E-02	3.206503E-03
2.702703E+03	9.071320E-02	3.317801E-03
2.741313E+03	9.503226E-02	3.434427E-03
2.779923E+03	9.964630E-02	3.556992E-03
2.818533E+03	1.045710E-01	3.685533E-03
2.857143E+03	1.098208E-01	3.819996E-03
2.895753E+03	1.154532E-01	3.961773E-03
2.905405E+03	1.169243E-01	3.998385E-03
2.915058E+03	1.184295E-01	4.035750E-03
2.924710E+03	1.199537E-01	4.073336E-03
2.934363E+03	1.214967E-01	4.111128E-03
2.944015E+03	1.230737E-01	4.149631E-03
2.953668E+03	1.246693E-01	4.188307E-03
2.963320E+03	1.263143E-01	4.228182E-03
2.972973E+03	1.279776E-01	4.268200E-03
2.982625E+03	1.296591E-01	4.308341E-03
2.992278E+03	1.313899E-01	4.349631E-03
3.001931E+03	1.331384E-01	4.391008E-03
3.011583E+03	1.349363E-01	4.433496E-03
3.021236E+03	1.367516E-01	4.476033E-03
3.030888E+03	1.385999E-01	4.519119E-03
3.040541E+03	1.404973E-01	4.563254E-03
3.050193E+03	1.424113E-01	4.607374E-03
3.059846E+03	1.443740E-01	4.652499E-03
3.069498E+03	1.463691E-01	4.698085E-03
3.079151E+03	1.483964E-01	4.744106E-03
3.088803E+03	1.504719E-01	4.791060E-03
3.098456E+03	1.525954E-01	4.838921E-03
3.108108E+03	1.547340E-01	4.886623E-03
3.117761E+03	1.569366E-01	4.935697E-03
3.127413E+03	1.591701E-01	4.985078E-03
3.137066E+03	1.614508E-01	5.035257E-03
3.146718E+03	1.637785E-01	5.086204E-03
3.156371E+03	1.661528E-01	5.137890E-03
3.166023E+03	1.685736E-01	5.190284E-03
3.175676E+03	1.710406E-01	5.243357E-03
3.185328E+03	1.735535E-01	5.297077E-03
3.194981E+03	1.761121E-01	5.351415E-03
3.204633E+03	1.787329E-01	5.406850E-03
3.214286E+03	1.814159E-01	5.463347E-03
3.223938E+03	1.841439E-01	5.520366E-03
3.233591E+03	1.869166E-01	5.577874E-03
3.243243E+03	1.897679E-01	5.636855E-03
3.252896E+03	1.926636E-01	5.696262E-03
3.262548E+03	1.956207E-01	5.756571E-03
3.272201E+03	1.986561E-01	5.818248E-03
3.281853E+03	2.017357E-01	5.880263E-03
3.291506E+03	2.048938E-01	5.943584E-03
3.301158E+03	2.081306E-01	6.008179E-03
3.310811E+03	2.114289E-01	6.073522E-03
3.320463E+03	2.147891E-01	6.139589E-03
3.330116E+03	2.182461E-01	6.207340E-03
3.339768E+03	2.217657E-01	6.275766E-03
3.349421E+03	2.253832E-01	6.345824E-03
3.359073E+03	2.290648E-01	6.416522E-03
3.368726E+03	2.328459E-01	6.488812E-03
3.378378E+03	2.367276E-01	6.562679E-03
3.388031E+03	2.406938E-01	6.637630E-03
3.397683E+03	2.447635E-01	6.714141E-03
3.407336E+03	2.489380E-01	6.792198E-03
3.416988E+03	2.532194E-01	6.871807E-03
3.426641E+03	2.576098E-01	6.952970E-03
3.436293E+03	2.621112E-01	7.035689E-03
3.445946E+03	2.667438E-01	7.120445E-03
3.455598E+03	2.714920E-01	7.206763E-03
3.465251E+03	2.763933E-01	7.295576E-03
3.474903E+03	2.814145E-01	7.385931E-03
3.484556E+03	2.865737E-01	7.478246E-03
3.494208E+03	2.918875E-01	7.572883E-03
3.503861E+03	2.973345E-01	7.669212E-03
3.513514E+03	3.029246E-01	7.767420E-03
3.523166E+03	3.086273E-01	7.866661E-03
3.532819E+03	3.144586E-01	7.967277E-03
3.542471E+03	3.203574E-01	8.067668E-03
3.552124E+03	3.263265E-01	8.167865E-03
3.561776E+03	3.323276E-01	8.266875E-03
3.571429E+03	3.382839E-01	8.362782E-03
3.581081E+03	3.442050E-01	8.455836E-03
3.590734E+03	3.500336E-01	8.544647E-03
3.600386E+03	3.557362E-01	8.628441E-03
3.610039E+03	3.612878E-01	8.706669E-03
3.619691E+03	3.666724E-01	8.779014E-03
3.629344E+03	3.719158E-01	8.846165E-03
3.638996E+03	3.769793E-01	8.907270E-03
3.648649E+03	3.818775E-01	8.962755E-03
3.658301E+03	3.866072E-01	9.012615E-03
3.667954E+03	3.911611E-01	9.056766E-03
3.677606E+03	3.955455E-01	9.095428E-03
3.687259E+03	3.997298E-01	9.127985E-03
3.696911E+03	4.037316E-01	9.154931E-03
3.706564E+03	4.075014E-01	9.175236E-03
3.716216E+03	4.110408E-01	9.189048E-03
3.725869E+03	4.143368E-01	9.196190E-03
3.735521E+03	4.173808E-01	9.196591E-03
3.745174E+03	4.201865E-01	9.190672E-03
3.754826E+03	4.227431E-01	9.178315E-03
3.764479E+03	4.250793E-01	9.160265E-03
3.774131E+03	4.272194E-01	9.137148E-03
3.783784E+03	4.291829E-01	9.109480E-03
3.793436E+03	4.310295E-01	9.078604E-03
3.803089E+03	4.328270E-01	9.046002E-03
3.812741E+03	4.346061E-01	9.012336E-03
3.822394E+03	4.364394E-01	8.979112E-03
3.832046E+03	4.383775E-01	8.947345E-03
3.841699E+03	4.404549E-01	8.917687E-03
3.851351E+03	4.426969E-01	8.890579E-03
3.861004E+03	4.450627E-01	8.865138E-03
3.870656E+03	4.475341E-01	8.840947E-03
3.880309E+03	4.500173E-01	8.816122E-03
3.889961E+03	4.524376E-01	8.789213E-03
3.899614E+03	4.547092E-01	8.758609E-03
3.909266E+03	4.567105E-01	8.722066E-03
3.918919E+03	4.583537E-01	8.678062E-03
3.928571E+03	4.595811E-01	8.625704E-03
3.938224E+03	4.603469E-01	8.564350E-03
3.947876E+03	4.606111E-01	8.493502E-03
3.957529E+03	4.604093E-01	8.414067E-03
3.967181E+03	4.597616E-01	8.326651E-03
3.976834E+03	4.587493E-01	8.232941E-03
3.986486E+03	4.574545E-01	8.134590E-03
3.996139E+03	4.559771E-01	8.033508E-03
4.005792E+03	4.544567E-01	7.932232E-03
4.015444E+03	4.529830E-01	7.832346E-03
4.025097E+03	4.516764E-01	7.735900E-03
4.034749E+03	4.506261E-01	7.644339E-03
4.044402E+03	4.498862E-01	7.558459E-03
4.054054E+03	4.494796E-01	7.478500E-03
4.063707E+03	4.494071E-01	7.404332E-03
4.073359E+03	4.496328E-01	7.335218E-03
4.083012E+03	4.501089E-01	7.270257E-03
4.092664E+03	4.507652E-01	7.208222E-03
4.102317E+03	4.515358E-01	7.148003E-03
4.111969E+03	4.523401E-01	7.088299E-03
4.121622E+03	4.531203E-01	7.028217E-03
4.131274E+03	4.538179E-01	6.966889E-03
4.140927E+03	4.543866E-01	6.903674E-03
4.150579E+03	4.547653E-01	6.837737E-03
4.160232E+03	4.548971E-01	6.768343E-03
4.169884E+03	4.547186E-01	6.694695E-03
4.179537E+03	4.541608E-01	6.615957E-03
4.189189E+03	4.531442E-01	6.531183E-03
4.198842E+03	4.516002E-01	6.439628E-03
4.208494E+03	4.494642E-01	6.340644E-03
4.218147E+03	4.466917E-01	6.233902E-03
4.227799E+03	4.432735E-01	6.119581E-03
4.237452E+03	4.392069E-01	5.997949E-03
4.247104E+03	4.345548E-01	5.870163E-03
4.256757E+03	4.293808E-01	5.737342E-03
4.266409E+03	4.237661E-01	5.600798E-03
4.276062E+03	4.178103E-01	5.462031E-03
4.285714E+03	4.116064E-01	5.322395E-03
4.295367E+03	4.052340E-01	5.183017E-03
4.305019E+03	3.987934E-01	5.045237E-03
4.314672E+03	3.923649E-01	4.910088E-03
4.324324E+03	3.860449E-01	4.778756E-03
4.333977E+03	3.799125E-01	4.652164E-03
4.343629E+03	3.740665E-01	4.531431E-03
4.353282E+03	3.686015E-01	4.417574E-03
4.362934E+03	3.636263E-01	4.311738E-03
4.372587E+03	3.592475E-01	4.214985E-03
4.382239E+03	3.555940E-01	4.128594E-03
4.391892E+03	3.527704E-01	4.053509E-03
4.401544E+03	3.508829E-01	3.990655E-03
4.411197E+03	3.500328E-01	3.940862E-03
4.420849E+03	3.502903E-01	3.904588E-03
4.430502E+03	3.517090E-01	3.882091E-03
4.440154E+03	3.543212E-01	3.873395E-03
4.449807E+03	3.581383E-01	3.878307E-03
4.459459E+03	3.631471E-01	3.896387E-03
4.469112E+03	3.693252E-01	3.927131E-03
4.478764E+03	3.766281E-01	3.969836E-03
4.488417E+03	3.849948E-01	4.023668E-03
4.498069E+03	3.943405E-01	4.087594E-03
4.507722E+03	4.045648E-01	4.160476E-03
4.517375E+03	4.155479E-01	4.241036E-03
4.527027E+03	4.271254E-01	4.327600E-03
4.536680E+03	4.391172E-01	4.418407E-03
4.546332E+03	4.512869E-01	4.511196E-03
4.555985E+03	4.633582E-01	4.603383E-03
4.565637E+03	4.750111E-01	4.692020E-03
4.575290E+03	4.858834E-01	4.773814E-03
4.584942E+03	4.956011E-01	4.845412E-03
4.594595E+03	5.037902E-01	4.903510E-03
4.604247E+03	5.101276E-01	4.945298E-03
4.613900E+03	5.143440E-01	4.968441E-03
4.623552E+03	5.162862E-01	4.971690E-03
4.633205E+03	5.158958E-01	4.954667E-03
4.642857E+03	5.132368E-01	4.918104E-03
4.652510E+03	5.084878E-01	4.863768E-03
4.662162E+03	5.018904E-01	4.793954E-03
4.671815E+03	4.937517E-01	4.711527E-03
4.681467E+03	4.843871E-01	4.619376E-03
4.691120E+03	4.741294E-01	4.520528E-03
4.700772E+03	4.632862E-01	4.417745E-03
4.710425E+03	4.521289E-01	4.313437E-03
4.720077E+03	4.409003E-01	4.209743E-03
4.729730E+03	4.297869E-01	4.108277E-03
4.739382E+03	4.189522E-01	4.010443E-03
4.749035E+03	4.085128E-01	3.917218E-03
4.758687E+03	3.985625E-01	3.829380E-03
4.768340E+03	3.891531E-01	3.747321E-03
4.777992E+03	3.803260E-01	3.671350E-03
4.787645E+03	3.720980E-01	3.601560E-03
4.797297E+03	3.644655E-01	3.537856E-03
4.806950E+03	3.574224E-01	3.480132E-03
4.816602E+03	3.509420E-01	3.428094E-03
4.826255E+03	3.450089E-01	3.381564E-03
4.835907E+03	3.395875E-01	3.340171E-03
4.845560E+03	3.346507E-01	3.303636E-03
4.855212E+03	3.301632E-01	3.271600E-03
4.864865E+03	3.260822E-01	3.243630E-03
4.874517E+03	3.223585E-01	3.219230E-03
4.884170E+03	3.189294E-01	3.197766E-03
4.893822E+03	3.157320E-01	3.178597E-03
4.903475E+03	3.126926E-01	3.160964E-03
4.913127E+03	3.097478E-01	3.144205E-03
4.922780E+03	3.068310E-01	3.127618E-03
4.932432E+03	3.038987E-01	3.110729E-03
4.942085E+03	3.009390E-01	3.093382E-03
4.951737E+03	2.979536E-01	3.075560E-03
4.961390E+03	2.949781E-01	3.057603E-03
4.971042E+03	2.920779E-01	3.040170E-03
4.980695E+03	2.893282E-01	3.024032E-03
4.990347E+03	2.868147E-01	3.010087E-03
5.000000E+03	2.846322E-01	2.999345E-03
5.009653E+03	2.828693E-01	2.992769E-03
5.019305E+03	2.815928E-01	2.991102E-03
5.028958E+03	2.808601E-01	2.995004E-03
5.038610E+03	2.807063E-01	3.004902E-03
5.048263E+03	2.811367E-01	3.020907E-03
5.057915E+03	2.821481E-01	3.043040E-03
5.067568E+03	2.837113E-01	3.071039E-03
5.077220E+03	2.857879E-01	3.104534E-03
5.086873E+03	2.883305E-01	3.143049E-03
5.096525E+03	2.912859E-01	3.186037E-03
5.106178E+03	2.945995E-01	3.232926E-03
5.115830E+03	2.982078E-01	3.283035E-03
5.125483E+03	3.020481E-01	3.335680E-03
5.135135E+03	3.060543E-01	3.390135E-03
5.144788E+03	3.101596E-01	3.445651E-03
5.154440E+03	3.142875E-01	3.501364E-03
5.164093E+03	3.183601E-01	3.556383E-03
5.173745E+03	3.222971E-01	3.609785E-03
5.183398E+03	3.260196E-01	3.660650E-03
5.193050E+03	3.294398E-01	3.707952E-03
5.202703E+03	3.324876E-01	3.750858E-03
5.212355E+03	3.350901E-01	3.788498E-03
5.222008E+03	3.371883E-01	3.820156E-03
5.231660E+03	3.387359E-01	3.845257E-03
5.241313E+03	3.397025E-01	3.863412E-03
5.250965E+03	3.400730E-01	3.874400E-03
5.260618E+03	3.398612E-01	3.878341E-03
5.270270E+03	3.390885E-01	3.875444E-03
5.279923E+03	3.378033E-01	3.866234E-03
5.289575E+03	3.360804E-01	3.851547E-03
5.299228E+03	3.339936E-01	3.832215E-03
5.308880E+03	3.316439E-01	3.809389E-03
5.318533E+03	3.291307E-01	3.784212E-03
5.328185E+03	3.265492E-01	3.757783E-03
5.337838E+03	3.239912E-01	3.731168E-03
5.347490E+03	3.215412E-01	3.705352E-03
5.357143E+03	3.192620E-01	3.681072E-03
5.366795E+03	3.172089E-01	3.658979E-03
5.376448E+03	3.154069E-01	3.639376E-03
5.386100E+03	3.138728E-01	3.622468E-03
5.395753E+03	3.126037E-01	3.608233E-03
5.405405E+03	3.115835E-01	3.596494E-03
5.415058E+03	3.107859E-01	3.586956E-03
5.424710E+03	3.101779E-01	3.579243E-03
5.434363E+03	3.097260E-01	3.572977E-03
5.444015E+03	3.093916E-01	3.567716E-03
5.453668E+03	3.091468E-01	3.563143E-03
5.463320E+03	3.089635E-01	3.558941E-03
5.472973E+03	3.088241E-01	3.554913E-03
5.482625E+03	3.087226E-01	3.550996E-03
5.492278E+03	3.086516E-01	3.547112E-03
5.501931E+03	3.086094E-01	3.543248E-03
5.511583E+03	3.085960E-01	3.539410E-03
5.521236E+03	3.085991E-01	3.535465E-03
5.530888E+03	3.085996E-01	3.531205E-03
5.540541E+03	3.085669E-01	3.526286E-03
5.550193E+03	3.084602E-01	3.520256E-03
5.559846E+03	3.082217E-01	3.512470E-03
5.569498E+03	3.077848E-01	3.502187E-03
5.579151E+03	3.070881E-01	3.488730E-03
5.588803E+03	3.060630E-01	3.471351E-03
5.598456E+03	3.046491E-01	3.449396E-03
5.608108E+03	3.028078E-01	3.422466E-03
5.617761E+03	3.005185E-01	3.390373E-03
5.627413E+03	2.977884E-01	3.353239E-03
5.637066E+03	2.946504E-01	3.311480E-03
5.646718E+03	2.911677E-01	3.265852E-03
5.656371E+03	2.874305E-01	3.217403E-03
5.666023E+03	2.835385E-01	3.167283E-03
5.675676E+03	2.796041E-01	3.116773E-03
5.685328E+03	2.757429E-01	3.067183E-03
5.694981E+03	2.720587E-01	3.019673E-03
5.704633E+03	2.686541E-01	2.975384E-03
5.714286E+03	2.656140E-01	2.935252E-03
5.723938E+03	2.630184E-01	2.900147E-03
5.733591E+03	2.609195E-01	2.870625E-03
5.743243E+03	2.593659E-01	2.847199E-03
5.752896E+03	2.583826E-01	2.830117E-03
5.762548E+03	2.579790E-01	2.819455E-03
5.772201E+03	2.581448E-01	2.815074E-03
5.781853E+03	2.588503E-01	2.816626E-03
5.791506E+03	2.600426E-01	2.823514E-03
5.801158E+03	2.616518E-01	2.834965E-03
5.810811E+03	2.635926E-01	2.850045E-03
5.820463E+03	2.657569E-01	2.867584E-03
5.830116E+03	2.680319E-01	2.886376E-03
5.839768E+03	2.702982E-01	2.905149E-03
5.849421E+03	2.724309E-01	2.922587E-03
5.859073E+03	2.743250E-01	2.937596E-03
5.868726E+03	2.758819E-01	2.949157E-03
5.878378E+03	2.770321E-01	2.956570E-03
5.888031E+03	2.777310E-01	2.959403E-03
5.897683E+03	2.779696E-01	2.957603E-03
5.907336E+03	2.777584E-01	2.951319E-03
5.916988E+03	2.771348E-01	2.940988E-03
5.926641E+03	2.761492E-01	2.927174E-03
5.936293E+03	2.748555E-01	2.910475E-03
5.945946E+03	2.733116E-01	2.891525E-03
5.955598E+03	2.715582E-01	2.870759E-03
5.965251E+03	2.696255E-01	2.848486E-03
5.974903E+03	2.675292E-01	2.824861E-03
5.984556E+03	2.652606E-01	2.799778E-03
5.994208E+03	2.628008E-01	2.773025E-03
6.003861E+03	2.601042E-01	2.744102E-03
6.013514E+03	2.571213E-01	2.712471E-03
6.023166E+03	2.537896E-01	2.677456E-03
6.032819E+03	2.500604E-01	2.638522E-03
6.042471E+03	2.458919E-01	2.595203E-03
6.052124E+03	2.412642E-01	2.547266E-03
6.061776E+03	2.361941E-01	2.494860E-03
6.071429E+03	2.307207E-01	2.438367E-03
6.081081E+03	2.249247E-01	2.378612E-03
6.090734E+03	2.189199E-01	2.316768E-03
6.100386E+03	2.128387E-01	2.254208E-03
6.110039E+03	2.068313E-01	2.192501E-03
6.119691E+03	2.010571E-01	2.133316E-03
6.129344E+03	1.956723E-01	2.078301E-03
6.138996E+03	1.908165E-01	2.028931E-03
6.148649E+03	1.866188E-01	1.986580E-03
6.158301E+03	1.831804E-01	1.952333E-03
6.167954E+03	1.805726E-01	1.926961E-03
6.177606E+03	1.788372E-01	1.910931E-03
6.187259E+03	1.779869E-01	1.904402E-03
6.196911E+03	1.780024E-01	1.907193E-03
6.206564E+03	1.788401E-01	1.918866E-03
6.216216E+03	1.804399E-01	1.938804E-03
6.225869E+03	1.827222E-01	1.966175E-03
6.235521E+03	1.855952E-01	2.000014E-03
6.245174E+03	1.889525E-01	2.039194E-03
6.254826E+03	1.926843E-01	2.082541E-03
6.264479E+03	1.966727E-01	2.128788E-03
6.274131E+03	2.007924E-01	2.176581E-03
6.283784E+03	2.049276E-01	2.224657E-03
6.293436E+03	2.089645E-01	2.271771E-03
6.303089E+03	2.128034E-01	2.316821E-03
6.312741E+03	2.163597E-01	2.358865E-03
6.322394E+03	2.195731E-01	2.397219E-03
6.332046E+03	2.224078E-01	2.431466E-03
6.341699E+03	2.248522E-01	2.461451E-03
6.351351E+03	2.269113E-01	2.487199E-03
6.361004E+03	2.286145E-01	2.509009E-03
6.370656E+03	2.299991E-01	2.527265E-03
6.380309E+03	2.311094E-01	2.542432E-03
6.389961E+03	2.319930E-01	2.555015E-03
6.399614E+03	2.326987E-01	2.565535E-03
6.409266E+03	2.332682E-01	2.574439E-03
6.418919E+03	2.337357E-01	2.582093E-03
6.428571E+03	2.341282E-01	2.588787E-03
6.438224E+03	2.344542E-01	2.594603E-03
6.447876E+03	2.347201E-01	2.599610E-03
6.457529E+03	2.349135E-01	2.603658E-03
6.467181E+03	2.350133E-01	2.606510E-03
6.476834E+03	2.349921E-01	2.607856E-03
6.486486E+03	2.348104E-01	2.607250E-03
6.496139E+03	2.344299E-01	2.604262E-03
6.505792E+03	2.338038E-01	2.598365E-03
6.515444E+03	2.328990E-01	2.589190E-03
6.525097E+03	2.316845E-01	2.576387E-03
6.534749E+03	2.301376E-01	2.559703E-03
6.544402E+03	2.282498E-01	2.539043E-03
6.554054E+03	2.260385E-01	2.514604E-03
6.563707E+03	2.235209E-01	2.486581E-03
6.573359E+03	2.207385E-01	2.455440E-03
6.583012E+03	2.177423E-01	2.421759E-03
6.592664E+03	2.145843E-01	2.386124E-03
6.602317E+03	2.113207E-01	2.349168E-03
6.611969E+03	2.080053E-01	2.311500E-03
6.621622E+03	2.046872E-01	2.273676E-03
6.631274E+03	2.014116E-01	2.236208E-03
6.640927E+03	1.982098E-01	2.199451E-03
6.650579E+03	1.951133E-01	2.163764E-03
6.660232E+03	1.921464E-01	2.129425E-03
6.669884E+03	1.893201E-01	2.096561E-03
6.679537E+03	1.866480E-01	2.065329E-03
6.689189E+03	1.841311E-01	2.035745E-03
6.698842E+03	1.817655E-01	2.007772E-03
6.708494E+03	1.795495E-01	1.981396E-03
6.718147E+03	1.774715E-01	1.956492E-03
6.727799E+03	1.755177E-01	1.932913E-03
6.737452E+03	1.736792E-01	1.910567E-03
6.747104E+03	1.719409E-01	1.889291E-03
6.756757E+03	1.702888E-01	1.868937E-03
6.766409E+03	1.687174E-01	1.849451E-03
6.776062E+03	1.672173E-01	1.830734E-03
6.785714E+03	1.657837E-01	1.812740E-03
6.795367E+03	1.644119E-01	1.795424E-03
6.805019E+03	1.631040E-01	1.778816E-03
6.814672E+03	1.618567E-01	1.762885E-03
6.824324E+03	1.606679E-01	1.747616E-03
6.833977E+03	1.595348E-01	1.732984E-03
6.843629E+03	1.584526E-01	1.718946E-03
6.853282E+03	1.574156E-01	1.705445E-03
6.862934E+03	1.564186E-01	1.692433E-03
6.872587E+03	1.554494E-01	1.679787E-03
6.882239E+03	1.545012E-01	1.667444E-03
6.891892E+03	1.535674E-01	1.655338E-03
6.901544E+03	1.526377E-01	1.643368E-03
6.911197E+03	1.517044E-01	1.631465E-03
6.920849E+03	1.507615E-01	1.619571E-03
6.930502E+03	1.498042E-01	1.607647E-03
6.940154E+03	1.488318E-01	1.595695E-03
6.949807E+03	1.478399E-01	1.583679E-03
6.959459E+03	1.468360E-01	1.571689E-03
6.969112E+03	1.458186E-01	1.559721E-03
6.978764E+03	1.447980E-01	1.547895E-03
6.988417E+03	1.437811E-01	1.536291E-03
6.998069E+03	1.427795E-01	1.525047E-03
7.007722E+03	1.418023E-01	1.514265E-03
7.017375E+03	1.408616E-01	1.504087E-03
7.027027E+03	1.399670E-01	1.494622E-03
7.036680E+03	1.391243E-01	1.485944E-03
7.046332E+03	1.383410E-01	1.478140E-03
7.055985E+03	1.376202E-01	1.471255E-03
7.065637E+03	1.369607E-01	1.465286E-03
7.075290E+03	1.363648E-01	1.460268E-03
7.084942E+03	1.358273E-01	1.456158E-03
7.094595E+03	1.353439E-01	1.452922E-03
7.104247E+03	1.349113E-01	1.450535E-03
7.113900E+03	1.345220E-01	1.448931E-03
7.123552E+03	1.341722E-01	1.448081E-03
7.133205E+03	1.338545E-01	1.447916E-03
7.142857E+03	1.335629E-01	1.448384E-03
7.152510E+03	1.332930E-01	1.449448E-03
7.162162E+03	1.330380E-01	1.451048E-03
7.171815E+03	1.327871E-01	1.453075E-03
7.181467E+03	1.325343E-01	1.455472E-03
7.191120E+03	1.322711E-01	1.458155E-03
7.200772E+03	1.319889E-01	1.461034E-03
7.210425E+03	1.316806E-01	1.464030E-03
7.220077E+03	1.313363E-01	1.467020E-03
7.229730E+03	1.309482E-01	1.469901E-03
7.239382E+03	1.305098E-01	1.472580E-03
7.249035E+03	1.300152E-01	1.474972E-03
7.258687E+03	1.294581E-01	1.476981E-03
7.268340E+03	1.288384E-01	1.478580E-03
7.277992E+03	1.281479E-01	1.479648E-03
7.287645E+03	1.273877E-01	1.480170E-03
7.297297E+03	1.265539E-01	1.480068E-03
7.306950E+03	1.256458E-01	1.479303E-03
7.316602E+03	1.246572E-01	1.477768E-03
7.326255E+03	1.235868E-01	1.475411E-03
7.335907E+03	1.224301E-01	1.472140E-03
7.345560E+03	1.211878E-01	1.467924E-03
7.355212E+03	1.198550E-01	1.462664E-03
7.364865E+03	1.184315E-01	1.456316E-03
7.374517E+03	1.169210E-01	1.448881E-03
7.384170E+03	1.153264E-01	1.440352E-03
7.393822E+03	1.136569E-01	1.430804E-03
7.403475E+03	1.119218E-01	1.420315E-03
7.413127E+03	1.101368E-01	1.409044E-03
7.422780E+03	1.083166E-01	1.397153E-03
7.432432E+03	1.064800E-01	1.384854E-03
7.442085E+03	1.046464E-01	1.372383E-03
7.451737E+03	1.028374E-01	1.360008E-03
7.461390E+03	1.010710E-01	1.347963E-03
7.471042E+03	9.936701E-02	1.336515E-03
7.480695E+03	9.774096E-02	1.325880E-03
7.490347E+03	9.620768E-02	1.316277E-03
