#wls	flux	fluxerr
1.544402E+03	6.663344E-03	2.081457E-04
1.583012E+03	6.703872E-03	2.090258E-04
1.621622E+03	6.746962E-03	2.099709E-04
1.660232E+03	6.790211E-03	2.109054E-04
1.698842E+03	6.835916E-03	2.119002E-04
1.737452E+03	6.882847E-03	2.129163E-04
1.776062E+03	6.930948E-03	2.139513E-04
1.814672E+03	6.981342E-03	2.150390E-04
1.853282E+03	7.032795E-03	2.161408E-04
1.891892E+03	7.087623E-03	2.173268E-04
1.930502E+03	7.143401E-03	2.185217E-04
1.969112E+03	7.202459E-03	2.197958E-04
2.007722E+03	7.264747E-03	2.211464E-04
2.046332E+03	7.329038E-03	2.225348E-04
2.084942E+03	7.396486E-03	2.239951E-04
2.123552E+03	7.468247E-03	2.255607E-04
2.162162E+03	7.543115E-03	2.271937E-04
2.200772E+03	7.622261E-03	2.289277E-04
2.239382E+03	7.705691E-03	2.307612E-04
2.277992E+03	7.794599E-03	2.327279E-04
2.316602E+03	7.887835E-03	2.347913E-04
2.355212E+03	7.987814E-03	2.370213E-04
2.393822E+03	8.094605E-03	2.394170E-04
2.432432E+03	8.207138E-03	2.419440E-04
2.471042E+03	8.329068E-03	2.447072E-04
2.509653E+03	8.458215E-03	2.476388E-04
2.548263E+03	8.598302E-03	2.508443E-04
2.586873E+03	8.747250E-03	2.542586E-04
2.625483E+03	8.908875E-03	2.579882E-04
2.664093E+03	9.082386E-03	2.620050E-04
2.702703E+03	9.270558E-03	2.663832E-04
2.741313E+03	9.473914E-03	2.711315E-04
2.779923E+03	9.694235E-03	2.762938E-04
2.818533E+03	9.933404E-03	2.819158E-04
2.857143E+03	1.019341E-02	2.880452E-04
2.895753E+03	1.047637E-02	2.947320E-04
2.905405E+03	1.055083E-02	2.964931E-04
2.915058E+03	1.062796E-02	2.983230E-04
2.924710E+03	1.070548E-02	3.001573E-04
2.934363E+03	1.078456E-02	3.020288E-04
2.944015E+03	1.086637E-02	3.039702E-04
2.953668E+03	1.094979E-02	3.059494E-04
2.963320E+03	1.103483E-02	3.079670E-04
2.972973E+03	1.112152E-02	3.100233E-04
2.982625E+03	1.120989E-02	3.121189E-04
2.992278E+03	1.130110E-02	3.142863E-04
3.001931E+03	1.139404E-02	3.164938E-04
3.011583E+03	1.148872E-02	3.187418E-04
3.021236E+03	1.158517E-02	3.210309E-04
3.030888E+03	1.168458E-02	3.233936E-04
3.040541E+03	1.178581E-02	3.257985E-04
3.050193E+03	1.189006E-02	3.282779E-04
3.059846E+03	1.199619E-02	3.308006E-04
3.069498E+03	1.210424E-02	3.333669E-04
3.079151E+03	1.221540E-02	3.360096E-04
3.088803E+03	1.232853E-02	3.386972E-04
3.098456E+03	1.244484E-02	3.414622E-04
3.108108E+03	1.256319E-02	3.442733E-04
3.117761E+03	1.268478E-02	3.471631E-04
3.127413E+03	1.280849E-02	3.501004E-04
3.137066E+03	1.293552E-02	3.531177E-04
3.146718E+03	1.306591E-02	3.562157E-04
3.156371E+03	1.319852E-02	3.593631E-04
3.166023E+03	1.333456E-02	3.625927E-04
3.175676E+03	1.347409E-02	3.659052E-04
3.185328E+03	1.361597E-02	3.692694E-04
3.194981E+03	1.376141E-02	3.727180E-04
3.204633E+03	1.391047E-02	3.762518E-04
3.214286E+03	1.406200E-02	3.798397E-04
3.223938E+03	1.421842E-02	3.835464E-04
3.233591E+03	1.437741E-02	3.873090E-04
3.243243E+03	1.454021E-02	3.911602E-04
3.252896E+03	1.470805E-02	3.951329E-04
3.262548E+03	1.487862E-02	3.991642E-04
3.272201E+03	1.505315E-02	4.032869E-04
3.281853E+03	1.523171E-02	4.075022E-04
3.291506E+03	1.541434E-02	4.118109E-04
3.301158E+03	1.560111E-02	4.162142E-04
3.310811E+03	1.579208E-02	4.207131E-04
3.320463E+03	1.598732E-02	4.253088E-04
3.330116E+03	1.618809E-02	4.300345E-04
3.339768E+03	1.639205E-02	4.348272E-04
3.349421E+03	1.660168E-02	4.397525E-04
3.359073E+03	1.681585E-02	4.447793E-04
3.368726E+03	1.703462E-02	4.499091E-04
3.378378E+03	1.725930E-02	4.551755E-04
3.388031E+03	1.748875E-02	4.605476E-04
3.397683E+03	1.772303E-02	4.660268E-04
3.407336E+03	1.796348E-02	4.716471E-04
3.416988E+03	1.820894E-02	4.773776E-04
3.426641E+03	1.846074E-02	4.832525E-04
3.436293E+03	1.871773E-02	4.892408E-04
3.445946E+03	1.898000E-02	4.953442E-04
3.455598E+03	1.924890E-02	5.015972E-04
3.465251E+03	1.952455E-02	5.080017E-04
3.474903E+03	1.980577E-02	5.145266E-04
3.484556E+03	2.009394E-02	5.212068E-04
3.494208E+03	2.038789E-02	5.280110E-04
3.503861E+03	2.068900E-02	5.349742E-04
3.513514E+03	2.099738E-02	5.420983E-04
3.523166E+03	2.131314E-02	5.493850E-04
3.532819E+03	2.163509E-02	5.568025E-04
3.542471E+03	2.196459E-02	5.643856E-04
3.552124E+03	2.230174E-02	5.721352E-04
3.561776E+03	2.264529E-02	5.800185E-04
3.571429E+03	2.299789E-02	5.881027E-04
3.581081E+03	2.335696E-02	5.963200E-04
3.590734E+03	2.372510E-02	6.047364E-04
3.600386E+03	2.409961E-02	6.132817E-04
3.610039E+03	2.448171E-02	6.219861E-04
3.619691E+03	2.487124E-02	6.308445E-04
3.629344E+03	2.526801E-02	6.398510E-04
3.638996E+03	2.567173E-02	6.489973E-04
3.648649E+03	2.608204E-02	6.582733E-04
3.658301E+03	2.649720E-02	6.676344E-04
3.667954E+03	2.691945E-02	6.771363E-04
3.677606E+03	2.734695E-02	6.867315E-04
3.687259E+03	2.777914E-02	6.964053E-04
3.696911E+03	2.821543E-02	7.061425E-04
3.706564E+03	2.865528E-02	7.159291E-04
3.716216E+03	2.909812E-02	7.257500E-04
3.725869E+03	2.954344E-02	7.355920E-04
3.735521E+03	2.999075E-02	7.454429E-04
3.745174E+03	3.043967E-02	7.552925E-04
3.754826E+03	3.088982E-02	7.651317E-04
3.764479E+03	3.134102E-02	7.749555E-04
3.774131E+03	3.179307E-02	7.847589E-04
3.783784E+03	3.224588E-02	7.945394E-04
3.793436E+03	3.269937E-02	8.042951E-04
3.803089E+03	3.315357E-02	8.140265E-04
3.812741E+03	3.360839E-02	8.237311E-04
3.822394E+03	3.406376E-02	8.334072E-04
3.832046E+03	3.451952E-02	8.430511E-04
3.841699E+03	3.497393E-02	8.526201E-04
3.851351E+03	3.542795E-02	8.621376E-04
3.861004E+03	3.588242E-02	8.716242E-04
3.870656E+03	3.633212E-02	8.809535E-04
3.880309E+03	3.678037E-02	8.902060E-04
3.889961E+03	3.722295E-02	8.992806E-04
3.899614E+03	3.765838E-02	9.081418E-04
3.909266E+03	3.808792E-02	9.168211E-04
3.918919E+03	3.850540E-02	9.251713E-04
3.928571E+03	3.891192E-02	9.332203E-04
3.938224E+03	3.930556E-02	9.409234E-04
3.947876E+03	3.968161E-02	9.481705E-04
3.957529E+03	4.004127E-02	9.549919E-04
3.967181E+03	4.038157E-02	9.613195E-04
3.976834E+03	4.070126E-02	9.671263E-04
3.986486E+03	4.099930E-02	9.723903E-04
3.996139E+03	4.127499E-02	9.770982E-04
4.005792E+03	4.152802E-02	9.812455E-04
4.015444E+03	4.175689E-02	9.848003E-04
4.025097E+03	4.196336E-02	9.878069E-04
4.034749E+03	4.214796E-02	9.902813E-04
4.044402E+03	4.231014E-02	9.922134E-04
4.054054E+03	4.245099E-02	9.936320E-04
4.063707E+03	4.257173E-02	9.945686E-04
4.073359E+03	4.267503E-02	9.950882E-04
4.083012E+03	4.275969E-02	9.951652E-04
4.092664E+03	4.282984E-02	9.948986E-04
4.102317E+03	4.288440E-02	9.942653E-04
4.111969E+03	4.292498E-02	9.933045E-04
4.121622E+03	4.295576E-02	9.921152E-04
4.131274E+03	4.297453E-02	9.906475E-04
4.140927E+03	4.298547E-02	9.889997E-04
4.150579E+03	4.298890E-02	9.871803E-04
4.160232E+03	4.298642E-02	9.852270E-04
4.169884E+03	4.297956E-02	9.831759E-04
4.179537E+03	4.296854E-02	9.810327E-04
4.189189E+03	4.295723E-02	9.788865E-04
4.198842E+03	4.294329E-02	9.766840E-04
4.208494E+03	4.293037E-02	9.745089E-04
4.218147E+03	4.291851E-02	9.723617E-04
4.227799E+03	4.291004E-02	9.702957E-04
4.237452E+03	4.290381E-02	9.682844E-04
4.247104E+03	4.290221E-02	9.663818E-04
4.256757E+03	4.290654E-02	9.646162E-04
4.266409E+03	4.291709E-02	9.629942E-04
4.276062E+03	4.293650E-02	9.615737E-04
4.285714E+03	4.296537E-02	9.603675E-04
4.295367E+03	4.300548E-02	9.594145E-04
4.305019E+03	4.306003E-02	9.587845E-04
4.314672E+03	4.312899E-02	9.584751E-04
4.324324E+03	4.321590E-02	9.585634E-04
4.333977E+03	4.332336E-02	9.591050E-04
4.343629E+03	4.345416E-02	9.601588E-04
4.353282E+03	4.361022E-02	9.617651E-04
4.362934E+03	4.379476E-02	9.639913E-04
4.372587E+03	4.401207E-02	9.669288E-04
4.382239E+03	4.426459E-02	9.706270E-04
4.391892E+03	4.455573E-02	9.751566E-04
4.401544E+03	4.488900E-02	9.805899E-04
4.411197E+03	4.526874E-02	9.870166E-04
4.420849E+03	4.569607E-02	9.944558E-04
4.430502E+03	4.617374E-02	1.002962E-03
4.440154E+03	4.670629E-02	1.012628E-03
4.449807E+03	4.729339E-02	1.023441E-03
4.459459E+03	4.793713E-02	1.035439E-03
4.469112E+03	4.863765E-02	1.048619E-03
4.478764E+03	4.939294E-02	1.062933E-03
4.488417E+03	5.020083E-02	1.078327E-03
4.498069E+03	5.105890E-02	1.094745E-03
4.507722E+03	5.196103E-02	1.112051E-03
4.517375E+03	5.290173E-02	1.130122E-03
4.527027E+03	5.387166E-02	1.148757E-03
4.536680E+03	5.486098E-02	1.167743E-03
4.546332E+03	5.585837E-02	1.186839E-03
4.555985E+03	5.685245E-02	1.205804E-03
4.565637E+03	5.782853E-02	1.224328E-03
4.575290E+03	5.877262E-02	1.242119E-03
4.584942E+03	5.967080E-02	1.258887E-03
4.594595E+03	6.051115E-02	1.274389E-03
4.604247E+03	6.127930E-02	1.288330E-03
4.613900E+03	6.196800E-02	1.300566E-03
4.623552E+03	6.256985E-02	1.310952E-03
4.633205E+03	6.307778E-02	1.319350E-03
4.642857E+03	6.349287E-02	1.325795E-03
4.652510E+03	6.381538E-02	1.330301E-03
4.662162E+03	6.405130E-02	1.333005E-03
4.671815E+03	6.420570E-02	1.334021E-03
4.681467E+03	6.429150E-02	1.333625E-03
4.691120E+03	6.432103E-02	1.332082E-03
4.700772E+03	6.430656E-02	1.329651E-03
4.710425E+03	6.426204E-02	1.326624E-03
4.720077E+03	6.420233E-02	1.323311E-03
4.729730E+03	6.414031E-02	1.319978E-03
4.739382E+03	6.408671E-02	1.316846E-03
4.749035E+03	6.405255E-02	1.314141E-03
4.758687E+03	6.404890E-02	1.312087E-03
4.768340E+03	6.408421E-02	1.310855E-03
4.777992E+03	6.416538E-02	1.310581E-03
4.787645E+03	6.429738E-02	1.311363E-03
4.797297E+03	6.448202E-02	1.313233E-03
4.806950E+03	6.472134E-02	1.316228E-03
4.816602E+03	6.501396E-02	1.320315E-03
4.826255E+03	6.535607E-02	1.325411E-03
4.835907E+03	6.574152E-02	1.331389E-03
4.845560E+03	6.616197E-02	1.338075E-03
4.855212E+03	6.660687E-02	1.345254E-03
4.864865E+03	6.706377E-02	1.352673E-03
4.874517E+03	6.751986E-02	1.360073E-03
4.884170E+03	6.795720E-02	1.367094E-03
4.893822E+03	6.836216E-02	1.373462E-03
4.903475E+03	6.871702E-02	1.378825E-03
4.913127E+03	6.900573E-02	1.382866E-03
4.922780E+03	6.921336E-02	1.385290E-03
4.932432E+03	6.932816E-02	1.385868E-03
4.942085E+03	6.933847E-02	1.384375E-03
4.951737E+03	6.923856E-02	1.380703E-03
4.961390E+03	6.902388E-02	1.374769E-03
4.971042E+03	6.869541E-02	1.366600E-03
4.980695E+03	6.825957E-02	1.356333E-03
4.990347E+03	6.772416E-02	1.344127E-03
5.000000E+03	6.710306E-02	1.330266E-03
5.009653E+03	6.641047E-02	1.315034E-03
5.019305E+03	6.566512E-02	1.298806E-03
5.028958E+03	6.488460E-02	1.281933E-03
5.038610E+03	6.408943E-02	1.264821E-03
5.048263E+03	6.329759E-02	1.247824E-03
5.057915E+03	6.252864E-02	1.231328E-03
5.067568E+03	6.179977E-02	1.215666E-03
5.077220E+03	6.112555E-02	1.201124E-03
5.086873E+03	6.052002E-02	1.187971E-03
5.096525E+03	5.999656E-02	1.176466E-03
5.106178E+03	5.956562E-02	1.166807E-03
5.115830E+03	5.923487E-02	1.159139E-03
5.125483E+03	5.901258E-02	1.153617E-03
5.135135E+03	5.890335E-02	1.150323E-03
5.144788E+03	5.891257E-02	1.149356E-03
5.154440E+03	5.904231E-02	1.150750E-03
5.164093E+03	5.929563E-02	1.154556E-03
5.173745E+03	5.967347E-02	1.160786E-03
5.183398E+03	6.017478E-02	1.169412E-03
5.193050E+03	6.079973E-02	1.180432E-03
5.202703E+03	6.154654E-02	1.193803E-03
5.212355E+03	6.241036E-02	1.209425E-03
5.222008E+03	6.339117E-02	1.227291E-03
5.231660E+03	6.448257E-02	1.247273E-03
5.241313E+03	6.568083E-02	1.269292E-03
5.250965E+03	6.698053E-02	1.293239E-03
5.260618E+03	6.837440E-02	1.318968E-03
5.270270E+03	6.985710E-02	1.346372E-03
5.279923E+03	7.142044E-02	1.375289E-03
5.289575E+03	7.305830E-02	1.405599E-03
5.299228E+03	7.476310E-02	1.437152E-03
5.308880E+03	7.652702E-02	1.469795E-03
5.318533E+03	7.834056E-02	1.503345E-03
5.328185E+03	8.019684E-02	1.537666E-03
5.337838E+03	8.208743E-02	1.572597E-03
5.347490E+03	8.400363E-02	1.607970E-03
5.357143E+03	8.593641E-02	1.643612E-03
5.366795E+03	8.787625E-02	1.679340E-03
5.376448E+03	8.981136E-02	1.714931E-03
5.386100E+03	9.173392E-02	1.750235E-03
5.395753E+03	9.362859E-02	1.784962E-03
5.405405E+03	9.548525E-02	1.818921E-03
5.415058E+03	9.728747E-02	1.851801E-03
5.424710E+03	9.901890E-02	1.883296E-03
5.434363E+03	1.006618E-01	1.913070E-03
5.444015E+03	1.021972E-01	1.940770E-03
5.453668E+03	1.036054E-01	1.966027E-03
5.463320E+03	1.048685E-01	1.988505E-03
5.472973E+03	1.059652E-01	2.007812E-03
5.482625E+03	1.068797E-01	2.023651E-03
5.492278E+03	1.075944E-01	2.035699E-03
5.501931E+03	1.080968E-01	2.043730E-03
5.511583E+03	1.083804E-01	2.047629E-03
5.521236E+03	1.084412E-01	2.047331E-03
5.530888E+03	1.082785E-01	2.042828E-03
5.540541E+03	1.079005E-01	2.034285E-03
5.550193E+03	1.073165E-01	2.021888E-03
5.559846E+03	1.065446E-01	2.005984E-03
5.569498E+03	1.056051E-01	1.986962E-03
5.579151E+03	1.045199E-01	1.965239E-03
5.588803E+03	1.033189E-01	1.941384E-03
5.598456E+03	1.020265E-01	1.915857E-03
5.608108E+03	1.006732E-01	1.889233E-03
5.617761E+03	9.928750E-02	1.862051E-03
5.627413E+03	9.789707E-02	1.834828E-03
5.637066E+03	9.652789E-02	1.808052E-03
5.646718E+03	9.520363E-02	1.782163E-03
5.656371E+03	9.394518E-02	1.757551E-03
5.666023E+03	9.277025E-02	1.734544E-03
5.675676E+03	9.169293E-02	1.713403E-03
5.685328E+03	9.072360E-02	1.694317E-03
5.694981E+03	8.986873E-02	1.677404E-03
5.704633E+03	8.913067E-02	1.662705E-03
5.714286E+03	8.850958E-02	1.650217E-03
5.723938E+03	8.799672E-02	1.639775E-03
5.733591E+03	8.758625E-02	1.631266E-03
5.743243E+03	8.726406E-02	1.624425E-03
5.752896E+03	8.701469E-02	1.618962E-03
5.762548E+03	8.682029E-02	1.614544E-03
5.772201E+03	8.666128E-02	1.610803E-03
5.781853E+03	8.651876E-02	1.607390E-03
5.791506E+03	8.636898E-02	1.603862E-03
5.801158E+03	8.619546E-02	1.599915E-03
5.810811E+03	8.597867E-02	1.595186E-03
5.820463E+03	8.570303E-02	1.589388E-03
5.830116E+03	8.535764E-02	1.582321E-03
5.839768E+03	8.493023E-02	1.573758E-03
5.849421E+03	8.441842E-02	1.563658E-03
5.859073E+03	8.381862E-02	1.551957E-03
5.868726E+03	8.313214E-02	1.538679E-03
5.878378E+03	8.236334E-02	1.523908E-03
5.888031E+03	8.152082E-02	1.507804E-03
5.897683E+03	8.061091E-02	1.490485E-03
5.907336E+03	7.964801E-02	1.472218E-03
5.916988E+03	7.864354E-02	1.453215E-03
5.926641E+03	7.761167E-02	1.433738E-03
5.936293E+03	7.656896E-02	1.414092E-03
5.945946E+03	7.552807E-02	1.394512E-03
5.955598E+03	7.450748E-02	1.375337E-03
5.965251E+03	7.352105E-02	1.356823E-03
5.974903E+03	7.258335E-02	1.339238E-03
5.984556E+03	7.170777E-02	1.322826E-03
5.994208E+03	7.090757E-02	1.307831E-03
6.003861E+03	7.019165E-02	1.294416E-03
6.013514E+03	6.956831E-02	1.282732E-03
6.023166E+03	6.904374E-02	1.272891E-03
6.032819E+03	6.862208E-02	1.264970E-03
6.042471E+03	6.830642E-02	1.259024E-03
6.052124E+03	6.809510E-02	1.255021E-03
6.061776E+03	6.798555E-02	1.252913E-03
6.071429E+03	6.797436E-02	1.252637E-03
6.081081E+03	6.805223E-02	1.254021E-03
6.090734E+03	6.821316E-02	1.256955E-03
6.100386E+03	6.844666E-02	1.261245E-03
6.110039E+03	6.873925E-02	1.266642E-03
6.119691E+03	6.907719E-02	1.272895E-03
6.129344E+03	6.944547E-02	1.279726E-03
6.138996E+03	6.982938E-02	1.286865E-03
6.148649E+03	7.021240E-02	1.294008E-03
6.158301E+03	7.057659E-02	1.300823E-03
6.167954E+03	7.090601E-02	1.307017E-03
6.177606E+03	7.118755E-02	1.312348E-03
6.187259E+03	7.140766E-02	1.316565E-03
6.196911E+03	7.155876E-02	1.319529E-03
6.206564E+03	7.163593E-02	1.321147E-03
6.216216E+03	7.163771E-02	1.321393E-03
6.225869E+03	7.157209E-02	1.320412E-03
6.235521E+03	7.144508E-02	1.318314E-03
6.245174E+03	7.127575E-02	1.315451E-03
6.254826E+03	7.107955E-02	1.312106E-03
6.264479E+03	7.087855E-02	1.308686E-03
6.274131E+03	7.069451E-02	1.305593E-03
6.283784E+03	7.054916E-02	1.303228E-03
6.293436E+03	7.046321E-02	1.301973E-03
6.303089E+03	7.045541E-02	1.302177E-03
6.312741E+03	7.054184E-02	1.304136E-03
6.322394E+03	7.073523E-02	1.308088E-03
6.332046E+03	7.104462E-02	1.314202E-03
6.341699E+03	7.147494E-02	1.322570E-03
6.351351E+03	7.202826E-02	1.333233E-03
6.361004E+03	7.269796E-02	1.346070E-03
6.370656E+03	7.347875E-02	1.360987E-03
6.380309E+03	7.435804E-02	1.377751E-03
6.389961E+03	7.531604E-02	1.395999E-03
6.399614E+03	7.633500E-02	1.415402E-03
6.409266E+03	7.739065E-02	1.435513E-03
6.418919E+03	7.845422E-02	1.455799E-03
6.428571E+03	7.949785E-02	1.475743E-03
6.438224E+03	8.048918E-02	1.494743E-03
6.447876E+03	8.139718E-02	1.512223E-03
6.457529E+03	8.219511E-02	1.527684E-03
6.467181E+03	8.285160E-02	1.540540E-03
6.476834E+03	8.334343E-02	1.550356E-03
6.486486E+03	8.364827E-02	1.556713E-03
6.496139E+03	8.375398E-02	1.559380E-03
6.505792E+03	8.364703E-02	1.558100E-03
6.515444E+03	8.332519E-02	1.552826E-03
6.525097E+03	8.279032E-02	1.543587E-03
6.534749E+03	8.204833E-02	1.530486E-03
6.544402E+03	8.111551E-02	1.513823E-03
6.554054E+03	8.000742E-02	1.493882E-03
6.563707E+03	7.874332E-02	1.471017E-03
6.573359E+03	7.735011E-02	1.445726E-03
6.583012E+03	7.585131E-02	1.418444E-03
6.592664E+03	7.427288E-02	1.389655E-03
6.602317E+03	7.263889E-02	1.359805E-03
6.611969E+03	7.097711E-02	1.329411E-03
6.621622E+03	6.930886E-02	1.298873E-03
6.631274E+03	6.765484E-02	1.268577E-03
6.640927E+03	6.603448E-02	1.238887E-03
6.650579E+03	6.446017E-02	1.210037E-03
6.660232E+03	6.294561E-02	1.182285E-03
6.669884E+03	6.150159E-02	1.155835E-03
6.679537E+03	6.013347E-02	1.130789E-03
6.689189E+03	5.884423E-02	1.107205E-03
6.698842E+03	5.763849E-02	1.085173E-03
6.708494E+03	5.651517E-02	1.064674E-03
6.718147E+03	5.547293E-02	1.045686E-03
6.727799E+03	5.451040E-02	1.028186E-03
6.737452E+03	5.362176E-02	1.012065E-03
6.747104E+03	5.280413E-02	9.972727E-04
6.756757E+03	5.205421E-02	9.837480E-04
6.766409E+03	5.136520E-02	9.713645E-04
6.776062E+03	5.073479E-02	9.600810E-04
6.785714E+03	5.015747E-02	9.497950E-04
6.795367E+03	4.962816E-02	9.404120E-04
6.805019E+03	4.914518E-02	9.319020E-04
6.814672E+03	4.870302E-02	9.241620E-04
6.824324E+03	4.829966E-02	9.171553E-04
6.833977E+03	4.793235E-02	9.108309E-04
6.843629E+03	4.759857E-02	9.051427E-04
6.853282E+03	4.729607E-02	9.000489E-04
6.862934E+03	4.702271E-02	8.955099E-04
6.872587E+03	4.677546E-02	8.914696E-04
6.882239E+03	4.655341E-02	8.879115E-04
6.891892E+03	4.635465E-02	8.848002E-04
6.901544E+03	4.617637E-02	8.820834E-04
6.911197E+03	4.601784E-02	8.797478E-04
6.920849E+03	4.587751E-02	8.777649E-04
6.930502E+03	4.575296E-02	8.760890E-04
6.940154E+03	4.564311E-02	8.747007E-04
6.949807E+03	4.554823E-02	8.736055E-04
6.959459E+03	4.546686E-02	8.727764E-04
6.969112E+03	4.540003E-02	8.722341E-04
6.978764E+03	4.534713E-02	8.719675E-04
6.988417E+03	4.530886E-02	8.719911E-04
6.998069E+03	4.528629E-02	8.723262E-04
7.007722E+03	4.528065E-02	8.729977E-04
7.017375E+03	4.529433E-02	8.740527E-04
7.027027E+03	4.532775E-02	8.755004E-04
7.036680E+03	4.538120E-02	8.773481E-04
7.046332E+03	4.545789E-02	8.796589E-04
7.055985E+03	4.555679E-02	8.824143E-04
7.065637E+03	4.568057E-02	8.856680E-04
7.075290E+03	4.582761E-02	8.893899E-04
7.084942E+03	4.599891E-02	8.936012E-04
7.094595E+03	4.619404E-02	8.982955E-04
7.104247E+03	4.641128E-02	9.034408E-04
7.113900E+03	4.665044E-02	9.090355E-04
7.123552E+03	4.691001E-02	9.150516E-04
7.133205E+03	4.718814E-02	9.214547E-04
7.142857E+03	4.748151E-02	9.281818E-04
7.152510E+03	4.778873E-02	9.352070E-04
7.162162E+03	4.810600E-02	9.424575E-04
7.171815E+03	4.843051E-02	9.498789E-04
7.181467E+03	4.876047E-02	9.574376E-04
7.191120E+03	4.909313E-02	9.650804E-04
7.200772E+03	4.942387E-02	9.727169E-04
7.210425E+03	4.975391E-02	9.803719E-04
7.220077E+03	5.007854E-02	9.879528E-04
7.229730E+03	5.039923E-02	9.954890E-04
7.239382E+03	5.071498E-02	1.002961E-03
7.249035E+03	5.102670E-02	1.010387E-03
7.258687E+03	5.133721E-02	1.017824E-03
7.268340E+03	5.164750E-02	1.025291E-03
7.277992E+03	5.195982E-02	1.032834E-03
7.287645E+03	5.227609E-02	1.040492E-03
7.297297E+03	5.259761E-02	1.048292E-03
7.306950E+03	5.292590E-02	1.056264E-03
7.316602E+03	5.325802E-02	1.064352E-03
7.326255E+03	5.359487E-02	1.072572E-03
7.335907E+03	5.393295E-02	1.080857E-03
7.345560E+03	5.426932E-02	1.089146E-03
7.355212E+03	5.460034E-02	1.097366E-03
7.364865E+03	5.492191E-02	1.105434E-03
7.374517E+03	5.522952E-02	1.113259E-03
7.384170E+03	5.551840E-02	1.120744E-03
7.393822E+03	5.578375E-02	1.127788E-03
7.403475E+03	5.602102E-02	1.134298E-03
7.413127E+03	5.622615E-02	1.140190E-03
7.422780E+03	5.639585E-02	1.145392E-03
7.432432E+03	5.652796E-02	1.149858E-03
7.442085E+03	5.662152E-02	1.153563E-03
7.451737E+03	5.667708E-02	1.156517E-03
7.461390E+03	5.669669E-02	1.158755E-03
7.471042E+03	5.668269E-02	1.160323E-03
7.480695E+03	5.664265E-02	1.161372E-03
7.490347E+03	5.658008E-02	1.161971E-03
