#wls	flux	fluxerr
1.544402E+03	3.778612E-03	1.665018E-04
1.583012E+03	3.800207E-03	1.671103E-04
1.621622E+03	3.821897E-03	1.677101E-04
1.660232E+03	3.845687E-03	1.683888E-04
1.698842E+03	3.870308E-03	1.690900E-04
1.737452E+03	3.895801E-03	1.698147E-04
1.776062E+03	3.923546E-03	1.706224E-04
1.814672E+03	3.952944E-03	1.714860E-04
1.853282E+03	3.984062E-03	1.724075E-04
1.891892E+03	4.016979E-03	1.733893E-04
1.930502E+03	4.052450E-03	1.744627E-04
1.969112E+03	4.089908E-03	1.756021E-04
2.007722E+03	4.130131E-03	1.768397E-04
2.046332E+03	4.173246E-03	1.781792E-04
2.084942E+03	4.218721E-03	1.795965E-04
2.123552E+03	4.268058E-03	1.811537E-04
2.162162E+03	4.320761E-03	1.828278E-04
2.200772E+03	4.377709E-03	1.846538E-04
2.239382E+03	4.438440E-03	1.866098E-04
2.277992E+03	4.504571E-03	1.887613E-04
2.316602E+03	4.575008E-03	1.910595E-04
2.355212E+03	4.651442E-03	1.935720E-04
2.393822E+03	4.733531E-03	1.962809E-04
2.432432E+03	4.822357E-03	1.992275E-04
2.471042E+03	4.918366E-03	2.024259E-04
2.509653E+03	5.022751E-03	2.059204E-04
2.548263E+03	5.135365E-03	2.096997E-04
2.586873E+03	5.257531E-03	2.138121E-04
2.625483E+03	5.390675E-03	2.183092E-04
2.664093E+03	5.534851E-03	2.231859E-04
2.702703E+03	5.691666E-03	2.284991E-04
2.741313E+03	5.862098E-03	2.342793E-04
2.779923E+03	6.048003E-03	2.405908E-04
2.818533E+03	6.249842E-03	2.474409E-04
2.857143E+03	6.471323E-03	2.549645E-04
2.895753E+03	6.712450E-03	2.631475E-04
2.905405E+03	6.775795E-03	2.652944E-04
2.915058E+03	6.840903E-03	2.675022E-04
2.924710E+03	6.907809E-03	2.697722E-04
2.934363E+03	6.975735E-03	2.720735E-04
2.944015E+03	7.045520E-03	2.744387E-04
2.953668E+03	7.116382E-03	2.768370E-04
2.963320E+03	7.189172E-03	2.793013E-04
2.972973E+03	7.263931E-03	2.818328E-04
2.982625E+03	7.339863E-03	2.844003E-04
2.992278E+03	7.417836E-03	2.870371E-04
3.001931E+03	7.497890E-03	2.897445E-04
3.011583E+03	7.579221E-03	2.924910E-04
3.021236E+03	7.662713E-03	2.953104E-04
3.030888E+03	7.747557E-03	2.981712E-04
3.040541E+03	7.835500E-03	3.011402E-04
3.050193E+03	7.924876E-03	3.041530E-04
3.059846E+03	8.015721E-03	3.072106E-04
3.069498E+03	8.108944E-03	3.103476E-04
3.079151E+03	8.204595E-03	3.135653E-04
3.088803E+03	8.302726E-03	3.168653E-04
3.098456E+03	8.403388E-03	3.202491E-04
3.108108E+03	8.505741E-03	3.236842E-04
3.117761E+03	8.610728E-03	3.272061E-04
3.127413E+03	8.717496E-03	3.307819E-04
3.137066E+03	8.826999E-03	3.344475E-04
3.146718E+03	8.940214E-03	3.382391E-04
3.156371E+03	9.054448E-03	3.420544E-04
3.166023E+03	9.172516E-03	3.459994E-04
3.175676E+03	9.292627E-03	3.500058E-04
3.185328E+03	9.416714E-03	3.541459E-04
3.194981E+03	9.542962E-03	3.583507E-04
3.204633E+03	9.671412E-03	3.626215E-04
3.214286E+03	9.804047E-03	3.670318E-04
3.223938E+03	9.939015E-03	3.715117E-04
3.233591E+03	1.007734E-02	3.760989E-04
3.243243E+03	1.021909E-02	3.807954E-04
3.252896E+03	1.036434E-02	3.856032E-04
3.262548E+03	1.051317E-02	3.905243E-04
3.272201E+03	1.066464E-02	3.955235E-04
3.281853E+03	1.081983E-02	4.006397E-04
3.291506E+03	1.097880E-02	4.058749E-04
3.301158E+03	1.114163E-02	4.112313E-04
3.310811E+03	1.130841E-02	4.167109E-04
3.320463E+03	1.147921E-02	4.223158E-04
3.330116E+03	1.165411E-02	4.280480E-04
3.339768E+03	1.183213E-02	4.338707E-04
3.349421E+03	1.201438E-02	4.398243E-04
3.359073E+03	1.220097E-02	4.459108E-04
3.368726E+03	1.239304E-02	4.521723E-04
3.378378E+03	1.258742E-02	4.584910E-04
3.388031E+03	1.278744E-02	4.649883E-04
3.397683E+03	1.299211E-02	4.716264E-04
3.407336E+03	1.320149E-02	4.784070E-04
3.416988E+03	1.341452E-02	4.852904E-04
3.426641E+03	1.363354E-02	4.923606E-04
3.436293E+03	1.385633E-02	4.995363E-04
3.445946E+03	1.408528E-02	5.069022E-04
3.455598E+03	1.431811E-02	5.143755E-04
3.465251E+03	1.455604E-02	5.219991E-04
3.474903E+03	1.479914E-02	5.297739E-04
3.484556E+03	1.504744E-02	5.377005E-04
3.494208E+03	1.530099E-02	5.457793E-04
3.503861E+03	1.555983E-02	5.540103E-04
3.513514E+03	1.582274E-02	5.623490E-04
3.523166E+03	1.609222E-02	5.708835E-04
3.532819E+03	1.636704E-02	5.795685E-04
3.542471E+03	1.664590E-02	5.883572E-04
3.552124E+03	1.693136E-02	5.973387E-04
3.561776E+03	1.722079E-02	6.064190E-04
3.571429E+03	1.751677E-02	6.156875E-04
3.581081E+03	1.781658E-02	6.250478E-04
3.590734E+03	1.812146E-02	6.345423E-04
3.600386E+03	1.843131E-02	6.441662E-04
3.610039E+03	1.874600E-02	6.539143E-04
3.619691E+03	1.906541E-02	6.637805E-04
3.629344E+03	1.938938E-02	6.737582E-04
3.638996E+03	1.971629E-02	6.837910E-04
3.648649E+03	2.004879E-02	6.939689E-04
3.658301E+03	2.038524E-02	7.042346E-04
3.667954E+03	2.072395E-02	7.145287E-04
3.677606E+03	2.106610E-02	7.248911E-04
3.687259E+03	2.141142E-02	7.353117E-04
3.696911E+03	2.175962E-02	7.457800E-04
3.706564E+03	2.211041E-02	7.562850E-04
3.716216E+03	2.246349E-02	7.668157E-04
3.725869E+03	2.281699E-02	7.773082E-04
3.735521E+03	2.317364E-02	7.878547E-04
3.745174E+03	2.353004E-02	7.983392E-04
3.754826E+03	2.388735E-02	8.088010E-04
3.764479E+03	2.424523E-02	8.192281E-04
3.774131E+03	2.460172E-02	8.295545E-04
3.783784E+03	2.495800E-02	8.398198E-04
3.793436E+03	2.531526E-02	8.500641E-04
3.803089E+03	2.566827E-02	8.601115E-04
3.812741E+03	2.602144E-02	8.701104E-04
3.822394E+03	2.637103E-02	8.799362E-04
3.832046E+03	2.671818E-02	8.896273E-04
3.841699E+03	2.706239E-02	8.991671E-04
3.851351E+03	2.740143E-02	9.084829E-04
3.861004E+03	2.773636E-02	9.176106E-04
3.870656E+03	2.806663E-02	9.265328E-04
3.880309E+03	2.838986E-02	9.351722E-04
3.889961E+03	2.870714E-02	9.435656E-04
3.899614E+03	2.901609E-02	9.516370E-04
3.909266E+03	2.931775E-02	9.594213E-04
3.918919E+03	2.960971E-02	9.668422E-04
3.928571E+03	2.989309E-02	9.739378E-04
3.938224E+03	3.016723E-02	9.806887E-04
3.947876E+03	3.042984E-02	9.870225E-04
3.957529E+03	3.068037E-02	9.929243E-04
3.967181E+03	3.092010E-02	9.984375E-04
3.976834E+03	3.114686E-02	1.003495E-03
3.986486E+03	3.136209E-02	1.008146E-03
3.996139E+03	3.156208E-02	1.012274E-03
4.005792E+03	3.175187E-02	1.016044E-03
4.015444E+03	3.192622E-02	1.019290E-03
4.025097E+03	3.208869E-02	1.022130E-03
4.034749E+03	3.223767E-02	1.024515E-03
4.044402E+03	3.237343E-02	1.026457E-03
4.054054E+03	3.249802E-02	1.028024E-03
4.063707E+03	3.260850E-02	1.029125E-03
4.073359E+03	3.270880E-02	1.029887E-03
4.083012E+03	3.279780E-02	1.030279E-03
4.092664E+03	3.287622E-02	1.030324E-03
4.102317E+03	3.294312E-02	1.029996E-03
4.111969E+03	3.300265E-02	1.029427E-03
4.121622E+03	3.305399E-02	1.028593E-03
4.131274E+03	3.309803E-02	1.027525E-03
4.140927E+03	3.313571E-02	1.026252E-03
4.150579E+03	3.316798E-02	1.024807E-03
4.160232E+03	3.319422E-02	1.023170E-03
4.169884E+03	3.321866E-02	1.021474E-03
4.179537E+03	3.323908E-02	1.019652E-03
4.189189E+03	3.325816E-02	1.017785E-03
4.198842E+03	3.327691E-02	1.015907E-03
4.208494E+03	3.329486E-02	1.014002E-03
4.218147E+03	3.331461E-02	1.012149E-03
4.227799E+03	3.333722E-02	1.010382E-03
4.237452E+03	3.336227E-02	1.008687E-03
4.247104E+03	3.339238E-02	1.007142E-03
4.256757E+03	3.342864E-02	1.005780E-03
4.266409E+03	3.347067E-02	1.004588E-03
4.276062E+03	3.352110E-02	1.003643E-03
4.285714E+03	3.357957E-02	1.002933E-03
4.295367E+03	3.364870E-02	1.002535E-03
4.305019E+03	3.372816E-02	1.002437E-03
4.314672E+03	3.381907E-02	1.002670E-03
4.324324E+03	3.392404E-02	1.003309E-03
4.333977E+03	3.404270E-02	1.004341E-03
4.343629E+03	3.417611E-02	1.005793E-03
4.353282E+03	3.432680E-02	1.007737E-03
4.362934E+03	3.449423E-02	1.010155E-03
4.372587E+03	3.467930E-02	1.013068E-03
4.382239E+03	3.488428E-02	1.016540E-03
4.391892E+03	3.510685E-02	1.020499E-03
4.401544E+03	3.535053E-02	1.025044E-03
4.411197E+03	3.561425E-02	1.030140E-03
4.420849E+03	3.589811E-02	1.035786E-03
4.430502E+03	3.620364E-02	1.042022E-03
4.440154E+03	3.652756E-02	1.048749E-03
4.449807E+03	3.687086E-02	1.055993E-03
4.459459E+03	3.723277E-02	1.063728E-03
4.469112E+03	3.761377E-02	1.071964E-03
4.478764E+03	3.800945E-02	1.080573E-03
4.488417E+03	3.842131E-02	1.089594E-03
4.498069E+03	3.884438E-02	1.098885E-03
4.507722E+03	3.927810E-02	1.108428E-03
4.517375E+03	3.972177E-02	1.118200E-03
4.527027E+03	4.016982E-02	1.128046E-03
4.536680E+03	4.062130E-02	1.137938E-03
4.546332E+03	4.107372E-02	1.147806E-03
4.555985E+03	4.152472E-02	1.157586E-03
4.565637E+03	4.197044E-02	1.167170E-03
4.575290E+03	4.241229E-02	1.176601E-03
4.584942E+03	4.284556E-02	1.185749E-03
4.594595E+03	4.327254E-02	1.194680E-03
4.604247E+03	4.368956E-02	1.203295E-03
4.613900E+03	4.409674E-02	1.211601E-03
4.623552E+03	4.449817E-02	1.219712E-03
4.633205E+03	4.489333E-02	1.227617E-03
4.642857E+03	4.528188E-02	1.235307E-03
4.652510E+03	4.566708E-02	1.242874E-03
4.662162E+03	4.605051E-02	1.250363E-03
4.671815E+03	4.643207E-02	1.257771E-03
4.681467E+03	4.681686E-02	1.265239E-03
4.691120E+03	4.720291E-02	1.272713E-03
4.700772E+03	4.759308E-02	1.280271E-03
4.710425E+03	4.798800E-02	1.287931E-03
4.720077E+03	4.838591E-02	1.295645E-03
4.729730E+03	4.878799E-02	1.303445E-03
4.739382E+03	4.919332E-02	1.311307E-03
4.749035E+03	4.960067E-02	1.319199E-03
4.758687E+03	5.000693E-02	1.327038E-03
4.768340E+03	5.041248E-02	1.334836E-03
4.777992E+03	5.081585E-02	1.342555E-03
4.787645E+03	5.121549E-02	1.350156E-03
4.797297E+03	5.160788E-02	1.357547E-03
4.806950E+03	5.199295E-02	1.364727E-03
4.816602E+03	5.236866E-02	1.371645E-03
4.826255E+03	5.273280E-02	1.378244E-03
4.835907E+03	5.308094E-02	1.384412E-03
4.845560E+03	5.341420E-02	1.390180E-03
4.855212E+03	5.372598E-02	1.395379E-03
4.864865E+03	5.401331E-02	1.399936E-03
4.874517E+03	5.427714E-02	1.403878E-03
4.884170E+03	5.451072E-02	1.407037E-03
4.893822E+03	5.471329E-02	1.409397E-03
4.903475E+03	5.488248E-02	1.410902E-03
4.913127E+03	5.501434E-02	1.411455E-03
4.922780E+03	5.511127E-02	1.411123E-03
4.932432E+03	5.516849E-02	1.409790E-03
4.942085E+03	5.518777E-02	1.407506E-03
4.951737E+03	5.516966E-02	1.404291E-03
4.961390E+03	5.511359E-02	1.400136E-03
4.971042E+03	5.502557E-02	1.395197E-03
4.980695E+03	5.490477E-02	1.389459E-03
4.990347E+03	5.475679E-02	1.383066E-03
5.000000E+03	5.458605E-02	1.376135E-03
5.009653E+03	5.439758E-02	1.368794E-03
5.019305E+03	5.419501E-02	1.361136E-03
5.028958E+03	5.398610E-02	1.353358E-03
5.038610E+03	5.377891E-02	1.345661E-03
5.048263E+03	5.357598E-02	1.338108E-03
5.057915E+03	5.338558E-02	1.330904E-03
5.067568E+03	5.321390E-02	1.324202E-03
5.077220E+03	5.306523E-02	1.318103E-03
5.086873E+03	5.294900E-02	1.312840E-03
5.096525E+03	5.286890E-02	1.308498E-03
5.106178E+03	5.282821E-02	1.305153E-03
5.115830E+03	5.283336E-02	1.302959E-03
5.125483E+03	5.289036E-02	1.302057E-03
5.135135E+03	5.299930E-02	1.302442E-03
5.144788E+03	5.316520E-02	1.304230E-03
5.154440E+03	5.339070E-02	1.307479E-03
5.164093E+03	5.367802E-02	1.312236E-03
5.173745E+03	5.402880E-02	1.318532E-03
5.183398E+03	5.444418E-02	1.326388E-03
5.193050E+03	5.492484E-02	1.335811E-03
5.202703E+03	5.547095E-02	1.346799E-03
5.212355E+03	5.608211E-02	1.359334E-03
5.222008E+03	5.675747E-02	1.373386E-03
5.231660E+03	5.749378E-02	1.388872E-03
5.241313E+03	5.829303E-02	1.405830E-03
5.250965E+03	5.915093E-02	1.424152E-03
5.260618E+03	6.006469E-02	1.443764E-03
5.270270E+03	6.103093E-02	1.464577E-03
5.279923E+03	6.204580E-02	1.486496E-03
5.289575E+03	6.310502E-02	1.509411E-03
5.299228E+03	6.420588E-02	1.533254E-03
5.308880E+03	6.533883E-02	1.557793E-03
5.318533E+03	6.650021E-02	1.582939E-03
5.328185E+03	6.768604E-02	1.608594E-03
5.337838E+03	6.888517E-02	1.634491E-03
5.347490E+03	7.009508E-02	1.660570E-03
5.357143E+03	7.130605E-02	1.686602E-03
5.366795E+03	7.251025E-02	1.712402E-03
5.376448E+03	7.369960E-02	1.737780E-03
5.386100E+03	7.486572E-02	1.762544E-03
5.395753E+03	7.600018E-02	1.786496E-03
5.405405E+03	7.709701E-02	1.809504E-03
5.415058E+03	7.814515E-02	1.831310E-03
5.424710E+03	7.913631E-02	1.851729E-03
5.434363E+03	8.006243E-02	1.870578E-03
5.444015E+03	8.091586E-02	1.887688E-03
5.453668E+03	8.169234E-02	1.902967E-03
5.463320E+03	8.238290E-02	1.916215E-03
5.472973E+03	8.298215E-02	1.927317E-03
5.482625E+03	8.348579E-02	1.936182E-03
5.492278E+03	8.389337E-02	1.942813E-03
5.501931E+03	8.420027E-02	1.947111E-03
5.511583E+03	8.440593E-02	1.949074E-03
5.521236E+03	8.451395E-02	1.948796E-03
5.530888E+03	8.452094E-02	1.946209E-03
5.540541E+03	8.443892E-02	1.941599E-03
5.550193E+03	8.426430E-02	1.934894E-03
5.559846E+03	8.400866E-02	1.926366E-03
5.569498E+03	8.367620E-02	1.916122E-03
5.579151E+03	8.327756E-02	1.904411E-03
5.588803E+03	8.281559E-02	1.891304E-03
5.598456E+03	8.230751E-02	1.877201E-03
5.608108E+03	8.175410E-02	1.862123E-03
5.617761E+03	8.117262E-02	1.846466E-03
5.627413E+03	8.056368E-02	1.830248E-03
5.637066E+03	7.994114E-02	1.813784E-03
5.646718E+03	7.931009E-02	1.797192E-03
5.656371E+03	7.868021E-02	1.780690E-03
5.666023E+03	7.805766E-02	1.764419E-03
5.675676E+03	7.744246E-02	1.748377E-03
5.685328E+03	7.684662E-02	1.732834E-03
5.694981E+03	7.626550E-02	1.717685E-03
5.704633E+03	7.570637E-02	1.703092E-03
5.714286E+03	7.517025E-02	1.689076E-03
5.723938E+03	7.465467E-02	1.675579E-03
5.733591E+03	7.416133E-02	1.662639E-03
5.743243E+03	7.368603E-02	1.650158E-03
5.752896E+03	7.322892E-02	1.638141E-03
5.762548E+03	7.278468E-02	1.626465E-03
5.772201E+03	7.235233E-02	1.615109E-03
5.781853E+03	7.192836E-02	1.603993E-03
5.791506E+03	7.150654E-02	1.592978E-03
5.801158E+03	7.108327E-02	1.581984E-03
5.810811E+03	7.065986E-02	1.571041E-03
5.820463E+03	7.022595E-02	1.559917E-03
5.830116E+03	6.978597E-02	1.548713E-03
5.839768E+03	6.933296E-02	1.537274E-03
5.849421E+03	6.886543E-02	1.525567E-03
5.859073E+03	6.838712E-02	1.513677E-03
5.868726E+03	6.789317E-02	1.501497E-03
5.878378E+03	6.738415E-02	1.489039E-03
5.888031E+03	6.686348E-02	1.476381E-03
5.897683E+03	6.633305E-02	1.463563E-03
5.907336E+03	6.579520E-02	1.450639E-03
5.916988E+03	6.525063E-02	1.437622E-03
5.926641E+03	6.470491E-02	1.424637E-03
5.936293E+03	6.415947E-02	1.411714E-03
5.945946E+03	6.362256E-02	1.399035E-03
5.955598E+03	6.309377E-02	1.386588E-03
5.965251E+03	6.257924E-02	1.374509E-03
5.974903E+03	6.208073E-02	1.362834E-03
5.984556E+03	6.160402E-02	1.351689E-03
5.994208E+03	6.115242E-02	1.341146E-03
6.003861E+03	6.072879E-02	1.331265E-03
6.013514E+03	6.033341E-02	1.322052E-03
6.023166E+03	5.997020E-02	1.313592E-03
6.032819E+03	5.964031E-02	1.305907E-03
6.042471E+03	5.934439E-02	1.299012E-03
6.052124E+03	5.908246E-02	1.292906E-03
6.061776E+03	5.885191E-02	1.287531E-03
6.071429E+03	5.865373E-02	1.282908E-03
6.081081E+03	5.848626E-02	1.278999E-03
6.090734E+03	5.834738E-02	1.275759E-03
6.100386E+03	5.823443E-02	1.273127E-03
6.110039E+03	5.814234E-02	1.270992E-03
6.119691E+03	5.806976E-02	1.269322E-03
6.129344E+03	5.801291E-02	1.268034E-03
6.138996E+03	5.796786E-02	1.267040E-03
6.148649E+03	5.793044E-02	1.266248E-03
6.158301E+03	5.789652E-02	1.265567E-03
6.167954E+03	5.786193E-02	1.264904E-03
6.177606E+03	5.782073E-02	1.264128E-03
6.187259E+03	5.777344E-02	1.263250E-03
6.196911E+03	5.771301E-02	1.262113E-03
6.206564E+03	5.763940E-02	1.260717E-03
6.216216E+03	5.755164E-02	1.259038E-03
6.225869E+03	5.745207E-02	1.257125E-03
6.235521E+03	5.733825E-02	1.254925E-03
6.245174E+03	5.721482E-02	1.252538E-03
6.254826E+03	5.708310E-02	1.249990E-03
6.264479E+03	5.695079E-02	1.247450E-03
6.274131E+03	5.681952E-02	1.244951E-03
6.283784E+03	5.669269E-02	1.242568E-03
6.293436E+03	5.657325E-02	1.240363E-03
6.303089E+03	5.646349E-02	1.238387E-03
6.312741E+03	5.636499E-02	1.236672E-03
6.322394E+03	5.627648E-02	1.235190E-03
6.332046E+03	5.620182E-02	1.234025E-03
6.341699E+03	5.613794E-02	1.233110E-03
6.351351E+03	5.608287E-02	1.232399E-03
6.361004E+03	5.603363E-02	1.231827E-03
6.370656E+03	5.598650E-02	1.231310E-03
6.380309E+03	5.593689E-02	1.230748E-03
6.389961E+03	5.587954E-02	1.230023E-03
6.399614E+03	5.580866E-02	1.229007E-03
6.409266E+03	5.571805E-02	1.227561E-03
6.418919E+03	5.560327E-02	1.225586E-03
6.428571E+03	5.545382E-02	1.222850E-03
6.438224E+03	5.526547E-02	1.219257E-03
6.447876E+03	5.503423E-02	1.214716E-03
6.457529E+03	5.475281E-02	1.209064E-03
6.467181E+03	5.441457E-02	1.202154E-03
6.476834E+03	5.401987E-02	1.193989E-03
6.486486E+03	5.356409E-02	1.184465E-03
6.496139E+03	5.304580E-02	1.173547E-03
6.505792E+03	5.246480E-02	1.161230E-03
6.515444E+03	5.182401E-02	1.147574E-03
6.525097E+03	5.112185E-02	1.132543E-03
6.534749E+03	5.036547E-02	1.116292E-03
6.544402E+03	4.955562E-02	1.098836E-03
6.554054E+03	4.870122E-02	1.080371E-03
6.563707E+03	4.780655E-02	1.060990E-03
6.573359E+03	4.687818E-02	1.040837E-03
6.583012E+03	4.592315E-02	1.020068E-03
6.592664E+03	4.495028E-02	9.988775E-04
6.602317E+03	4.396341E-02	9.773505E-04
6.611969E+03	4.297286E-02	9.557162E-04
6.621622E+03	4.198376E-02	9.340883E-04
6.631274E+03	4.100240E-02	9.126073E-04
6.640927E+03	4.003465E-02	8.914041E-04
6.650579E+03	3.908574E-02	8.705958E-04
6.660232E+03	3.816038E-02	8.502876E-04
6.669884E+03	3.726391E-02	8.306000E-04
6.679537E+03	3.639695E-02	8.115471E-04
6.689189E+03	3.556500E-02	7.932533E-04
6.698842E+03	3.476888E-02	7.757371E-04
6.708494E+03	3.401023E-02	7.590367E-04
6.718147E+03	3.329021E-02	7.431790E-04
6.727799E+03	3.261076E-02	7.282081E-04
6.737452E+03	3.196975E-02	7.140779E-04
6.747104E+03	3.136963E-02	7.008439E-04
6.756757E+03	3.080774E-02	6.884476E-04
6.766409E+03	3.028592E-02	6.769312E-04
6.776062E+03	2.980236E-02	6.662549E-04
6.785714E+03	2.935625E-02	6.564014E-04
6.795367E+03	2.894665E-02	6.473502E-04
6.805019E+03	2.857262E-02	6.390814E-04
6.814672E+03	2.823419E-02	6.315959E-04
6.824324E+03	2.792817E-02	6.248227E-04
6.833977E+03	2.765458E-02	6.187629E-04
6.843629E+03	2.741341E-02	6.134167E-04
6.853282E+03	2.720158E-02	6.087154E-04
6.862934E+03	2.702015E-02	6.046826E-04
6.872587E+03	2.686712E-02	6.012739E-04
6.882239E+03	2.674156E-02	5.984689E-04
6.891892E+03	2.664164E-02	5.962264E-04
6.901544E+03	2.656853E-02	5.945722E-04
6.911197E+03	2.652041E-02	5.934662E-04
6.920849E+03	2.649663E-02	5.928932E-04
6.930502E+03	2.649646E-02	5.928368E-04
6.940154E+03	2.651828E-02	5.932605E-04
6.949807E+03	2.656354E-02	5.941963E-04
6.959459E+03	2.663070E-02	5.956097E-04
6.969112E+03	2.671929E-02	5.974894E-04
6.978764E+03	2.682884E-02	5.998249E-04
6.988417E+03	2.695792E-02	6.025832E-04
6.998069E+03	2.710814E-02	6.058001E-04
7.007722E+03	2.727707E-02	6.094205E-04
7.017375E+03	2.746639E-02	6.134816E-04
7.027027E+03	2.767359E-02	6.179262E-04
7.036680E+03	2.790040E-02	6.227923E-04
7.046332E+03	2.814416E-02	6.280201E-04
7.055985E+03	2.840546E-02	6.336216E-04
7.065637E+03	2.868372E-02	6.395831E-04
7.075290E+03	2.897829E-02	6.458892E-04
7.084942E+03	2.928731E-02	6.524977E-04
7.094595E+03	2.961221E-02	6.594394E-04
7.104247E+03	2.994980E-02	6.666424E-04
7.113900E+03	3.030137E-02	6.741346E-04
7.123552E+03	3.066350E-02	6.818387E-04
7.133205E+03	3.103612E-02	6.897523E-04
7.142857E+03	3.141669E-02	6.978184E-04
7.152510E+03	3.180624E-02	7.060586E-04
7.162162E+03	3.220089E-02	7.143859E-04
7.171815E+03	3.260029E-02	7.227922E-04
7.181467E+03	3.300292E-02	7.312427E-04
7.191120E+03	3.340583E-02	7.396715E-04
7.200772E+03	3.381009E-02	7.481018E-04
7.210425E+03	3.421145E-02	7.564390E-04
7.220077E+03	3.460842E-02	7.646495E-04
7.229730E+03	3.500220E-02	7.727601E-04
7.239382E+03	3.538871E-02	7.806800E-04
7.249035E+03	3.576805E-02	7.884116E-04
7.258687E+03	3.613905E-02	7.959287E-04
7.268340E+03	3.649919E-02	8.031765E-04
7.277992E+03	3.684882E-02	8.101621E-04
7.287645E+03	3.718692E-02	8.168642E-04
7.297297E+03	3.751101E-02	8.232281E-04
7.306950E+03	3.782146E-02	8.292627E-04
7.316602E+03	3.811722E-02	8.349458E-04
7.326255E+03	3.839580E-02	8.402231E-04
7.335907E+03	3.865770E-02	8.451066E-04
7.345560E+03	3.890051E-02	8.495446E-04
7.355212E+03	3.912656E-02	8.535889E-04
7.364865E+03	3.933053E-02	8.571248E-04
7.374517E+03	3.951655E-02	8.602434E-04
7.384170E+03	3.968110E-02	8.628695E-04
7.393822E+03	3.982392E-02	8.649991E-04
7.403475E+03	3.994812E-02	8.667009E-04
7.413127E+03	4.004899E-02	8.678745E-04
7.422780E+03	4.013161E-02	8.686318E-04
7.432432E+03	4.019320E-02	8.689142E-04
7.442085E+03	4.023439E-02	8.687370E-04
7.451737E+03	4.025761E-02	8.681545E-04
7.461390E+03	4.026381E-02	8.671891E-04
7.471042E+03	4.025249E-02	8.658312E-04
7.480695E+03	4.022648E-02	8.641438E-04
7.490347E+03	4.018541E-02	8.621203E-04
