#wls	flux	fluxerr
1.544402E+03	4.874607E-03	8.813675E-04
1.583012E+03	4.893078E-03	8.825075E-04
1.621622E+03	4.911917E-03	8.836358E-04
1.660232E+03	4.932891E-03	8.850661E-04
1.698842E+03	4.956084E-03	8.868087E-04
1.737452E+03	4.979901E-03	8.885731E-04
1.776062E+03	5.006982E-03	8.908257E-04
1.814672E+03	5.035752E-03	8.932796E-04
1.853282E+03	5.067184E-03	8.961016E-04
1.891892E+03	5.101423E-03	8.993099E-04
1.930502E+03	5.138626E-03	9.029242E-04
1.969112E+03	5.178116E-03	9.068179E-04
2.007722E+03	5.221786E-03	9.113138E-04
2.046332E+03	5.269854E-03	9.164387E-04
2.084942E+03	5.320848E-03	9.219254E-04
2.123552E+03	5.376738E-03	9.281044E-04
2.162162E+03	5.437817E-03	9.350121E-04
2.200772E+03	5.503547E-03	9.425409E-04
2.239382E+03	5.575144E-03	9.508838E-04
2.277992E+03	5.653004E-03	9.600905E-04
2.316602E+03	5.738446E-03	9.703642E-04
2.355212E+03	5.830200E-03	9.814682E-04
2.393822E+03	5.930567E-03	9.937668E-04
2.432432E+03	6.040158E-03	1.007335E-03
2.471042E+03	6.158746E-03	1.022104E-03
2.509653E+03	6.287976E-03	1.038317E-03
2.548263E+03	6.428668E-03	1.056070E-03
2.586873E+03	6.582690E-03	1.075632E-03
2.625483E+03	6.750135E-03	1.096969E-03
2.664093E+03	6.932154E-03	1.120222E-03
2.702703E+03	7.131938E-03	1.145849E-03
2.741313E+03	7.348993E-03	1.173707E-03
2.779923E+03	7.586882E-03	1.204299E-03
2.818533E+03	7.846411E-03	1.237672E-03
2.857143E+03	8.129542E-03	1.274052E-03
2.895753E+03	8.440595E-03	1.314018E-03
2.905405E+03	8.522914E-03	1.324588E-03
2.915058E+03	8.606712E-03	1.335331E-03
2.924710E+03	8.692012E-03	1.346251E-03
2.934363E+03	8.779954E-03	1.357522E-03
2.944015E+03	8.870591E-03	1.369150E-03
2.953668E+03	8.961765E-03	1.380799E-03
2.963320E+03	9.055730E-03	1.392816E-03
2.972973E+03	9.152543E-03	1.405206E-03
2.982625E+03	9.251136E-03	1.417803E-03
2.992278E+03	9.351557E-03	1.430613E-03
3.001931E+03	9.454989E-03	1.443814E-03
3.011583E+03	9.560353E-03	1.457239E-03
3.021236E+03	9.667692E-03	1.470892E-03
3.030888E+03	9.778219E-03	1.484955E-03
3.040541E+03	9.892000E-03	1.499436E-03
3.050193E+03	1.000676E-02	1.513987E-03
3.059846E+03	1.012608E-02	1.529147E-03
3.069498E+03	1.024649E-02	1.544388E-03
3.079151E+03	1.037040E-02	1.560073E-03
3.088803E+03	1.049792E-02	1.576212E-03
3.098456E+03	1.062789E-02	1.592631E-03
3.108108E+03	1.076037E-02	1.609334E-03
3.117761E+03	1.089666E-02	1.626513E-03
3.127413E+03	1.103560E-02	1.643992E-03
3.137066E+03	1.117852E-02	1.661964E-03
3.146718E+03	1.132423E-02	1.680249E-03
3.156371E+03	1.147278E-02	1.698852E-03
3.166023E+03	1.162555E-02	1.717973E-03
3.175676E+03	1.178262E-02	1.737621E-03
3.185328E+03	1.194279E-02	1.757611E-03
3.194981E+03	1.210611E-02	1.777951E-03
3.204633E+03	1.227399E-02	1.798843E-03
3.214286E+03	1.244518E-02	1.820098E-03
3.223938E+03	1.262112E-02	1.841924E-03
3.233591E+03	1.280054E-02	1.864128E-03
3.243243E+03	1.298488E-02	1.886919E-03
3.252896E+03	1.317287E-02	1.910105E-03
3.262548E+03	1.336596E-02	1.933894E-03
3.272201E+03	1.356287E-02	1.958092E-03
3.281853E+03	1.376507E-02	1.982910E-03
3.291506E+03	1.397125E-02	2.008151E-03
3.301158E+03	1.418144E-02	2.033817E-03
3.310811E+03	1.439721E-02	2.060127E-03
3.320463E+03	1.461866E-02	2.087088E-03
3.330116E+03	1.484437E-02	2.114493E-03
3.339768E+03	1.507440E-02	2.142345E-03
3.349421E+03	1.531035E-02	2.170865E-03
3.359073E+03	1.555232E-02	2.200061E-03
3.368726E+03	1.579880E-02	2.229713E-03
3.378378E+03	1.604985E-02	2.259824E-03
3.388031E+03	1.630709E-02	2.290617E-03
3.397683E+03	1.656898E-02	2.321867E-03
3.407336E+03	1.683716E-02	2.353801E-03
3.416988E+03	1.711004E-02	2.386186E-03
3.426641E+03	1.738929E-02	2.419250E-03
3.436293E+03	1.767323E-02	2.452755E-03
3.445946E+03	1.796357E-02	2.486928E-03
3.455598E+03	1.825857E-02	2.521523E-03
3.465251E+03	1.855993E-02	2.556768E-03
3.474903E+03	1.886586E-02	2.592409E-03
3.484556E+03	1.917805E-02	2.628675E-03
3.494208E+03	1.949464E-02	2.665300E-03
3.503861E+03	1.981734E-02	2.702513E-03
3.513514E+03	2.014421E-02	2.740043E-03
3.523166E+03	2.047506E-02	2.777859E-03
3.532819E+03	2.081162E-02	2.816189E-03
3.542471E+03	2.115372E-02	2.855004E-03
3.552124E+03	2.149927E-02	2.894015E-03
3.561776E+03	2.184802E-02	2.933183E-03
3.571429E+03	2.220166E-02	2.972732E-03
3.581081E+03	2.255796E-02	3.012356E-03
3.590734E+03	2.291864E-02	3.052280E-03
3.600386E+03	2.328138E-02	3.092193E-03
3.610039E+03	2.364790E-02	3.132315E-03
3.619691E+03	2.401582E-02	3.172330E-03
3.629344E+03	2.438477E-02	3.212184E-03
3.638996E+03	2.475646E-02	3.252103E-03
3.648649E+03	2.512843E-02	3.291759E-03
3.658301E+03	2.550242E-02	3.331378E-03
3.667954E+03	2.587591E-02	3.370628E-03
3.677606E+03	2.625068E-02	3.409740E-03
3.687259E+03	2.662414E-02	3.448378E-03
3.696911E+03	2.699589E-02	3.486488E-03
3.706564E+03	2.736773E-02	3.524306E-03
3.716216E+03	2.773704E-02	3.561494E-03
3.725869E+03	2.810569E-02	3.598292E-03
3.735521E+03	2.846871E-02	3.634066E-03
3.745174E+03	2.883256E-02	3.669646E-03
3.754826E+03	2.918993E-02	3.704101E-03
3.764479E+03	2.954504E-02	3.737973E-03
3.774131E+03	2.989515E-02	3.770916E-03
3.783784E+03	3.024219E-02	3.803181E-03
3.793436E+03	3.058336E-02	3.834419E-03
3.803089E+03	3.091823E-02	3.864581E-03
3.812741E+03	3.124871E-02	3.893914E-03
3.822394E+03	3.156954E-02	3.921768E-03
3.832046E+03	3.188745E-02	3.948989E-03
3.841699E+03	3.219469E-02	3.974623E-03
3.851351E+03	3.249558E-02	3.999214E-03
3.861004E+03	3.278717E-02	4.022405E-03
3.870656E+03	3.306889E-02	4.044141E-03
3.880309E+03	3.334019E-02	4.064365E-03
3.889961E+03	3.360298E-02	4.083321E-03
3.899614E+03	3.385426E-02	4.100657E-03
3.909266E+03	3.409347E-02	4.116318E-03
3.918919E+03	3.432009E-02	4.130257E-03
3.928571E+03	3.453365E-02	4.142432E-03
3.938224E+03	3.473617E-02	4.153100E-03
3.947876E+03	3.492476E-02	4.161931E-03
3.957529E+03	3.509658E-02	4.168606E-03
3.967181E+03	3.525880E-02	4.173993E-03
3.976834E+03	3.540375E-02	4.177199E-03
3.986486E+03	3.553379E-02	4.178522E-03
3.996139E+03	3.564885E-02	4.177974E-03
4.005792E+03	3.575143E-02	4.175865E-03
4.015444E+03	3.583671E-02	4.171651E-03
4.025097E+03	3.590982E-02	4.165948E-03
4.034749E+03	3.596860E-02	4.158520E-03
4.044402E+03	3.601098E-02	4.149149E-03
4.054054E+03	3.604229E-02	4.138467E-03
4.063707E+03	3.606063E-02	4.126271E-03
4.073359E+03	3.606418E-02	4.112370E-03
4.083012E+03	3.605842E-02	4.097405E-03
4.092664E+03	3.604164E-02	4.081197E-03
4.102317E+03	3.601224E-02	4.063577E-03
4.111969E+03	3.597572E-02	4.045182E-03
4.121622E+03	3.592821E-02	4.025587E-03
4.131274E+03	3.587521E-02	4.005422E-03
4.140927E+03	3.581293E-02	3.984273E-03
4.150579E+03	3.574457E-02	3.962506E-03
4.160232E+03	3.567099E-02	3.940225E-03
4.169884E+03	3.559305E-02	3.917533E-03
4.179537E+03	3.551163E-02	3.894534E-03
4.189189E+03	3.542760E-02	3.871327E-03
4.198842E+03	3.533962E-02	3.847771E-03
4.208494E+03	3.525080E-02	3.824209E-03
4.218147E+03	3.516199E-02	3.800738E-03
4.227799E+03	3.507408E-02	3.777453E-03
4.237452E+03	3.498579E-02	3.754218E-03
4.247104E+03	3.490229E-02	3.731588E-03
4.256757E+03	3.482021E-02	3.709200E-03
4.266409E+03	3.474259E-02	3.687376E-03
4.276062E+03	3.466824E-02	3.665986E-03
4.285714E+03	3.460018E-02	3.645347E-03
4.295367E+03	3.453933E-02	3.625549E-03
4.305019E+03	3.448659E-02	3.606682E-03
4.314672E+03	3.444087E-02	3.588621E-03
4.324324E+03	3.440512E-02	3.571669E-03
4.333977E+03	3.437824E-02	3.555700E-03
4.343629E+03	3.436312E-02	3.541007E-03
4.353282E+03	3.436064E-02	3.527664E-03
4.362934E+03	3.436961E-02	3.515541E-03
4.372587E+03	3.439279E-02	3.504907E-03
4.382239E+03	3.442892E-02	3.495619E-03
4.391892E+03	3.448060E-02	3.487930E-03
4.401544E+03	3.454839E-02	3.481878E-03
4.411197E+03	3.463076E-02	3.477297E-03
4.420849E+03	3.473002E-02	3.474403E-03
4.430502E+03	3.484443E-02	3.473007E-03
4.440154E+03	3.497604E-02	3.473297E-03
4.449807E+03	3.512285E-02	3.475061E-03
4.459459E+03	3.528465E-02	3.478266E-03
4.469112E+03	3.546307E-02	3.483055E-03
4.478764E+03	3.565759E-02	3.489367E-03
4.488417E+03	3.586561E-02	3.496932E-03
4.498069E+03	3.608831E-02	3.505855E-03
4.507722E+03	3.632277E-02	3.515841E-03
4.517375E+03	3.656790E-02	3.526778E-03
4.527027E+03	3.682450E-02	3.538734E-03
4.536680E+03	3.708927E-02	3.551387E-03
4.546332E+03	3.736281E-02	3.564790E-03
4.555985E+03	3.764162E-02	3.578607E-03
4.565637E+03	3.792618E-02	3.592881E-03
4.575290E+03	3.821084E-02	3.607079E-03
4.584942E+03	3.850006E-02	3.621626E-03
4.594595E+03	3.878607E-02	3.635794E-03
4.604247E+03	3.907129E-02	3.649817E-03
4.613900E+03	3.935410E-02	3.663551E-03
4.623552E+03	3.963082E-02	3.676661E-03
4.633205E+03	3.989987E-02	3.689014E-03
4.642857E+03	4.015981E-02	3.700489E-03
4.652510E+03	4.041139E-02	3.711169E-03
4.662162E+03	4.065130E-02	3.720764E-03
4.671815E+03	4.088060E-02	3.729386E-03
4.681467E+03	4.109624E-02	3.736769E-03
4.691120E+03	4.129742E-02	3.742853E-03
4.700772E+03	4.148350E-02	3.747592E-03
4.710425E+03	4.165615E-02	3.751151E-03
4.720077E+03	4.181286E-02	3.753315E-03
4.729730E+03	4.195572E-02	3.754285E-03
4.739382E+03	4.208238E-02	3.753862E-03
4.749035E+03	4.219293E-02	3.752064E-03
4.758687E+03	4.228742E-02	3.748909E-03
4.768340E+03	4.236802E-02	3.744596E-03
4.777992E+03	4.243262E-02	3.738950E-03
4.787645E+03	4.248350E-02	3.732181E-03
4.797297E+03	4.251642E-02	3.723924E-03
4.806950E+03	4.253773E-02	3.714746E-03
4.816602E+03	4.254114E-02	3.704105E-03
4.826255E+03	4.253081E-02	3.692373E-03
4.835907E+03	4.250465E-02	3.679374E-03
4.845560E+03	4.246263E-02	3.665116E-03
4.855212E+03	4.240477E-02	3.649608E-03
4.864865E+03	4.233330E-02	3.633049E-03
4.874517E+03	4.224826E-02	3.615450E-03
4.884170E+03	4.214576E-02	3.596484E-03
4.893822E+03	4.203023E-02	3.576538E-03
4.903475E+03	4.190005E-02	3.555480E-03
4.913127E+03	4.175788E-02	3.533540E-03
4.922780E+03	4.160044E-02	3.510447E-03
4.932432E+03	4.143270E-02	3.486626E-03
4.942085E+03	4.125574E-02	3.462173E-03
4.951737E+03	4.106894E-02	3.437035E-03
4.961390E+03	4.087379E-02	3.411342E-03
4.971042E+03	4.067194E-02	3.385234E-03
4.980695E+03	4.046733E-02	3.359037E-03
4.990347E+03	4.025993E-02	3.332748E-03
5.000000E+03	4.005193E-02	3.306547E-03
5.009653E+03	3.984758E-02	3.280780E-03
5.019305E+03	3.964728E-02	3.255474E-03
5.028958E+03	3.945344E-02	3.230822E-03
5.038610E+03	3.927044E-02	3.207174E-03
5.048263E+03	3.909875E-02	3.184558E-03
5.057915E+03	3.894269E-02	3.163315E-03
5.067568E+03	3.880086E-02	3.143318E-03
5.077220E+03	3.868101E-02	3.125183E-03
5.086873E+03	3.857972E-02	3.108618E-03
5.096525E+03	3.850262E-02	3.094059E-03
5.106178E+03	3.844962E-02	3.081483E-03
5.115830E+03	3.842417E-02	3.071148E-03
5.125483E+03	3.842576E-02	3.062994E-03
5.135135E+03	3.845562E-02	3.057098E-03
5.144788E+03	3.851645E-02	3.053656E-03
5.154440E+03	3.860712E-02	3.052556E-03
5.164093E+03	3.872800E-02	3.053808E-03
5.173745E+03	3.888108E-02	3.057546E-03
5.183398E+03	3.906442E-02	3.063598E-03
5.193050E+03	3.927940E-02	3.072050E-03
5.202703E+03	3.952355E-02	3.082689E-03
5.212355E+03	3.979770E-02	3.095558E-03
5.222008E+03	4.009871E-02	3.110395E-03
5.231660E+03	4.042502E-02	3.127061E-03
5.241313E+03	4.077664E-02	3.145539E-03
5.250965E+03	4.114950E-02	3.165500E-03
5.260618E+03	4.154307E-02	3.186889E-03
5.270270E+03	4.195274E-02	3.209339E-03
5.279923E+03	4.237547E-02	3.232607E-03
5.289575E+03	4.281000E-02	3.256589E-03
5.299228E+03	4.325087E-02	3.280864E-03
5.308880E+03	4.369644E-02	3.305302E-03
5.318533E+03	4.414289E-02	3.329613E-03
5.328185E+03	4.458209E-02	3.353183E-03
5.337838E+03	4.501621E-02	3.376183E-03
5.347490E+03	4.543479E-02	3.397833E-03
5.357143E+03	4.584005E-02	3.418308E-03
5.366795E+03	4.622148E-02	3.436835E-03
5.376448E+03	4.658153E-02	3.453616E-03
5.386100E+03	4.690985E-02	3.467897E-03
5.395753E+03	4.720714E-02	3.479752E-03
5.405405E+03	4.747009E-02	3.488959E-03
5.415058E+03	4.769345E-02	3.495158E-03
5.424710E+03	4.787682E-02	3.498346E-03
5.434363E+03	4.801570E-02	3.498223E-03
5.444015E+03	4.811064E-02	3.494859E-03
5.453668E+03	4.816039E-02	3.488194E-03
5.463320E+03	4.816201E-02	3.478047E-03
5.472973E+03	4.811535E-02	3.464440E-03
5.482625E+03	4.802307E-02	3.447598E-03
5.492278E+03	4.788387E-02	3.427459E-03
5.501931E+03	4.770368E-02	3.404480E-03
5.511583E+03	4.747779E-02	3.378352E-03
5.521236E+03	4.721533E-02	3.349757E-03
5.530888E+03	4.691249E-02	3.318450E-03
5.540541E+03	4.657903E-02	3.285147E-03
5.550193E+03	4.621411E-02	3.249812E-03
5.559846E+03	4.582144E-02	3.212727E-03
5.569498E+03	4.540912E-02	3.174477E-03
5.579151E+03	4.497683E-02	3.135056E-03
5.588803E+03	4.452850E-02	3.094752E-03
5.598456E+03	4.407016E-02	3.053994E-03
5.608108E+03	4.360552E-02	3.013048E-03
5.617761E+03	4.313612E-02	2.972024E-03
5.627413E+03	4.266732E-02	2.931299E-03
5.637066E+03	4.220224E-02	2.891086E-03
5.646718E+03	4.174165E-02	2.851438E-03
5.656371E+03	4.128996E-02	2.812656E-03
5.666023E+03	4.084737E-02	2.774749E-03
5.675676E+03	4.041944E-02	2.738092E-03
5.685328E+03	4.000371E-02	2.702513E-03
5.694981E+03	3.960132E-02	2.668082E-03
5.704633E+03	3.921477E-02	2.634964E-03
5.714286E+03	3.884443E-02	2.603177E-03
5.723938E+03	3.849032E-02	2.572715E-03
5.733591E+03	3.815044E-02	2.543440E-03
5.743243E+03	3.782606E-02	2.515429E-03
5.752896E+03	3.751651E-02	2.488635E-03
5.762548E+03	3.721917E-02	2.462878E-03
5.772201E+03	3.693642E-02	2.438312E-03
5.781853E+03	3.666369E-02	2.414632E-03
5.791506E+03	3.639979E-02	2.391757E-03
5.801158E+03	3.614682E-02	2.369824E-03
5.810811E+03	3.590017E-02	2.348529E-03
5.820463E+03	3.565863E-02	2.327792E-03
5.830116E+03	3.542432E-02	2.307754E-03
5.839768E+03	3.519282E-02	2.288125E-03
5.849421E+03	3.496649E-02	2.269061E-03
5.859073E+03	3.473951E-02	2.250184E-03
5.868726E+03	3.451605E-02	2.231768E-03
5.878378E+03	3.429225E-02	2.213564E-03
5.888031E+03	3.407093E-02	2.195755E-03
5.897683E+03	3.384851E-02	2.178115E-03
5.907336E+03	3.362488E-02	2.160636E-03
5.916988E+03	3.340308E-02	2.143516E-03
5.926641E+03	3.318003E-02	2.126556E-03
5.936293E+03	3.295746E-02	2.109868E-03
5.945946E+03	3.273564E-02	2.093465E-03
5.955598E+03	3.251492E-02	2.077369E-03
5.965251E+03	3.229560E-02	2.061596E-03
5.974903E+03	3.207662E-02	2.046077E-03
5.984556E+03	3.185998E-02	2.030937E-03
5.994208E+03	3.164620E-02	2.016208E-03
6.003861E+03	3.143598E-02	2.001931E-03
6.013514E+03	3.123006E-02	1.988151E-03
6.023166E+03	3.102935E-02	1.974924E-03
6.032819E+03	3.083328E-02	1.962210E-03
6.042471E+03	3.064428E-02	1.950163E-03
6.052124E+03	3.046464E-02	1.938925E-03
6.061776E+03	3.029223E-02	1.928358E-03
6.071429E+03	3.012772E-02	1.918504E-03
6.081081E+03	2.997460E-02	1.909582E-03
6.090734E+03	2.983173E-02	1.901514E-03
6.100386E+03	2.969790E-02	1.894214E-03
6.110039E+03	2.957609E-02	1.887865E-03
6.119691E+03	2.946351E-02	1.882285E-03
6.129344E+03	2.936158E-02	1.877557E-03
6.138996E+03	2.927024E-02	1.873671E-03
6.148649E+03	2.918939E-02	1.870618E-03
6.158301E+03	2.911894E-02	1.868385E-03
6.167954E+03	2.905877E-02	1.866960E-03
6.177606E+03	2.900873E-02	1.866332E-03
6.187259E+03	2.896724E-02	1.866392E-03
6.196911E+03	2.893687E-02	1.867304E-03
6.206564E+03	2.891451E-02	1.868864E-03
6.216216E+03	2.890112E-02	1.871130E-03
6.225869E+03	2.889743E-02	1.874147E-03
6.235521E+03	2.889985E-02	1.877679E-03
6.245174E+03	2.890883E-02	1.881752E-03
6.254826E+03	2.892325E-02	1.886291E-03
6.264479E+03	2.894190E-02	1.891211E-03
6.274131E+03	2.896345E-02	1.896424E-03
6.283784E+03	2.898657E-02	1.901837E-03
6.293436E+03	2.900977E-02	1.907348E-03
6.303089E+03	2.903156E-02	1.912853E-03
6.312741E+03	2.905033E-02	1.918242E-03
6.322394E+03	2.906437E-02	1.923393E-03
6.332046E+03	2.907195E-02	1.928186E-03
6.341699E+03	2.906984E-02	1.932397E-03
6.351351E+03	2.905895E-02	1.936078E-03
6.361004E+03	2.903594E-02	1.938998E-03
6.370656E+03	2.899742E-02	1.940918E-03
6.380309E+03	2.894424E-02	1.941883E-03
6.389961E+03	2.887307E-02	1.941658E-03
6.399614E+03	2.878058E-02	1.940007E-03
6.409266E+03	2.866786E-02	1.936985E-03
6.418919E+03	2.853186E-02	1.932374E-03
6.428571E+03	2.836977E-02	1.925966E-03
6.438224E+03	2.818316E-02	1.917852E-03
6.447876E+03	2.796833E-02	1.907763E-03
6.457529E+03	2.772739E-02	1.895826E-03
6.467181E+03	2.745872E-02	1.881913E-03
6.476834E+03	2.716098E-02	1.865914E-03
6.486486E+03	2.683733E-02	1.848031E-03
6.496139E+03	2.648591E-02	1.828119E-03
6.505792E+03	2.611052E-02	1.806424E-03
6.515444E+03	2.571136E-02	1.782947E-03
6.525097E+03	2.528902E-02	1.757715E-03
6.534749E+03	2.484818E-02	1.731039E-03
6.544402E+03	2.438994E-02	1.702988E-03
6.554054E+03	2.391570E-02	1.673649E-03
6.563707E+03	2.343062E-02	1.643376E-03
6.573359E+03	2.293632E-02	1.612276E-03
6.583012E+03	2.243458E-02	1.580471E-03
6.592664E+03	2.193055E-02	1.548320E-03
6.602317E+03	2.142592E-02	1.515943E-03
6.611969E+03	2.092345E-02	1.483534E-03
6.621622E+03	2.042474E-02	1.451209E-03
6.631274E+03	1.993430E-02	1.419294E-03
6.640927E+03	1.945338E-02	1.387879E-03
6.650579E+03	1.898405E-02	1.357119E-03
6.660232E+03	1.852817E-02	1.327153E-03
6.669884E+03	1.808647E-02	1.298042E-03
6.679537E+03	1.766222E-02	1.270027E-03
6.689189E+03	1.725570E-02	1.243137E-03
6.698842E+03	1.686791E-02	1.217453E-03
6.708494E+03	1.649968E-02	1.193045E-03
6.718147E+03	1.615164E-02	1.169967E-03
6.727799E+03	1.582426E-02	1.148263E-03
6.737452E+03	1.551708E-02	1.127908E-03
6.747104E+03	1.523189E-02	1.109042E-03
6.756757E+03	1.496797E-02	1.091623E-03
6.766409E+03	1.472532E-02	1.075657E-03
6.776062E+03	1.450383E-02	1.061149E-03
6.785714E+03	1.430336E-02	1.048093E-03
6.795367E+03	1.412369E-02	1.036484E-03
6.805019E+03	1.396457E-02	1.026310E-03
6.814672E+03	1.382572E-02	1.017559E-03
6.824324E+03	1.370614E-02	1.010163E-03
6.833977E+03	1.360692E-02	1.004209E-03
6.843629E+03	1.352702E-02	9.996283E-04
6.853282E+03	1.346611E-02	9.964022E-04
6.862934E+03	1.342388E-02	9.945120E-04
6.872587E+03	1.339930E-02	9.938884E-04
6.882239E+03	1.339344E-02	9.946146E-04
6.891892E+03	1.340530E-02	9.966209E-04
6.901544E+03	1.343387E-02	9.998377E-04
6.911197E+03	1.348024E-02	1.004349E-03
6.920849E+03	1.354273E-02	1.010033E-03
6.930502E+03	1.362242E-02	1.016974E-03
6.940154E+03	1.371763E-02	1.025049E-03
6.949807E+03	1.382944E-02	1.034343E-03
6.959459E+03	1.395614E-02	1.044730E-03
6.969112E+03	1.409811E-02	1.056239E-03
6.978764E+03	1.425500E-02	1.068847E-03
6.988417E+03	1.442720E-02	1.082584E-03
6.998069E+03	1.461286E-02	1.097314E-03
7.007722E+03	1.481230E-02	1.113060E-03
7.017375E+03	1.502429E-02	1.129732E-03
7.027027E+03	1.524993E-02	1.147413E-03
7.036680E+03	1.548794E-02	1.166006E-03
7.046332E+03	1.573777E-02	1.185471E-03
7.055985E+03	1.599802E-02	1.205702E-03
7.065637E+03	1.626971E-02	1.226776E-03
7.075290E+03	1.655053E-02	1.248517E-03
7.084942E+03	1.684061E-02	1.270935E-03
7.094595E+03	1.713923E-02	1.293976E-03
7.104247E+03	1.744564E-02	1.317581E-03
7.113900E+03	1.775907E-02	1.341692E-03
7.123552E+03	1.807872E-02	1.366247E-03
7.133205E+03	1.840283E-02	1.391111E-03
7.142857E+03	1.873249E-02	1.416367E-03
7.152510E+03	1.906495E-02	1.441804E-03
7.162162E+03	1.940037E-02	1.467433E-03
7.171815E+03	1.973795E-02	1.493195E-03
7.181467E+03	2.007694E-02	1.519028E-03
7.191120E+03	2.041658E-02	1.544876E-03
7.200772E+03	2.075506E-02	1.570601E-03
7.210425E+03	2.109385E-02	1.596312E-03
7.220077E+03	2.143009E-02	1.621792E-03
7.229730E+03	2.176421E-02	1.647073E-03
7.239382E+03	2.209560E-02	1.672108E-03
7.249035E+03	2.242361E-02	1.696847E-03
7.258687E+03	2.274644E-02	1.721154E-03
7.268340E+03	2.306586E-02	1.745162E-03
7.277992E+03	2.337885E-02	1.768643E-03
7.287645E+03	2.368607E-02	1.791647E-03
7.297297E+03	2.398572E-02	1.814037E-03
7.306950E+03	2.427987E-02	1.835970E-03
7.316602E+03	2.456550E-02	1.857220E-03
7.326255E+03	2.484347E-02	1.877851E-03
7.335907E+03	2.511335E-02	1.897833E-03
7.345560E+03	2.537474E-02	1.917135E-03
7.355212E+03	2.562722E-02	1.935727E-03
7.364865E+03	2.586901E-02	1.953476E-03
7.374517E+03	2.610113E-02	1.970460E-03
7.384170E+03	2.632325E-02	1.986652E-03
7.393822E+03	2.653364E-02	2.001922E-03
7.403475E+03	2.673494E-02	2.016467E-03
7.413127E+03	2.692405E-02	2.030054E-03
7.422780E+03	2.710225E-02	2.042780E-03
7.432432E+03	2.726795E-02	2.054525E-03
7.442085E+03	2.742403E-02	2.065505E-03
7.451737E+03	2.756750E-02	2.075495E-03
7.461390E+03	2.769982E-02	2.084606E-03
7.471042E+03	2.781952E-02	2.092727E-03
7.480695E+03	2.792966E-02	2.100089E-03
7.490347E+03	2.802724E-02	2.106467E-03
