#wls	flux	fluxerr
1.591660E+03	2.183960E-03	1.887873E-05
1.631451E+03	2.253674E-03	1.945178E-05
1.671243E+03	2.322858E-03	2.001780E-05
1.711034E+03	2.391068E-03	2.057294E-05
1.750826E+03	2.457773E-03	2.111259E-05
1.790617E+03	2.521575E-03	2.162479E-05
1.830409E+03	2.579581E-03	2.208481E-05
1.870200E+03	2.629367E-03	2.247215E-05
1.909992E+03	2.667583E-03	2.275851E-05
1.949783E+03	2.691541E-03	2.292153E-05
1.989575E+03	2.701045E-03	2.296013E-05
2.029366E+03	2.701910E-03	2.292434E-05
2.069158E+03	2.708162E-03	2.293334E-05
2.108949E+03	2.741011E-03	2.316611E-05
2.148741E+03	2.822201E-03	2.380470E-05
2.188532E+03	2.962784E-03	2.493962E-05
2.228324E+03	3.159500E-03	2.654030E-05
2.268115E+03	3.399209E-03	2.849347E-05
2.307907E+03	3.666762E-03	3.066990E-05
2.347698E+03	3.950771E-03	3.297280E-05
2.387490E+03	4.244979E-03	3.534890E-05
2.427281E+03	4.547412E-03	3.778095E-05
2.467073E+03	4.859669E-03	4.028148E-05
2.506864E+03	5.184667E-03	4.287375E-05
2.546656E+03	5.526926E-03	4.559402E-05
2.586447E+03	5.891193E-03	4.848003E-05
2.626239E+03	6.283176E-03	5.157699E-05
2.666030E+03	6.708927E-03	5.493243E-05
2.705821E+03	7.175426E-03	5.860089E-05
2.745613E+03	7.690809E-03	6.264572E-05
2.785404E+03	8.264409E-03	6.713918E-05
2.825196E+03	8.907340E-03	7.216712E-05
2.864987E+03	9.633396E-03	7.783596E-05
2.904779E+03	1.045853E-02	8.426822E-05
2.944570E+03	1.140316E-02	9.162068E-05
2.984362E+03	1.249050E-02	1.000706E-04
2.994310E+03	1.278813E-02	1.023814E-04
3.004258E+03	1.309669E-02	1.047759E-04
3.014206E+03	1.341662E-02	1.072575E-04
3.024153E+03	1.374912E-02	1.098357E-04
3.034101E+03	1.409493E-02	1.125161E-04
3.044049E+03	1.445515E-02	1.153072E-04
3.053997E+03	1.483047E-02	1.182143E-04
3.063945E+03	1.522096E-02	1.212376E-04
3.073893E+03	1.562702E-02	1.243799E-04
3.083841E+03	1.604966E-02	1.276492E-04
3.093789E+03	1.648863E-02	1.310431E-04
3.103736E+03	1.694460E-02	1.345665E-04
3.113684E+03	1.741755E-02	1.382191E-04
3.123632E+03	1.790882E-02	1.420111E-04
3.133580E+03	1.841759E-02	1.459357E-04
3.143528E+03	1.894438E-02	1.499968E-04
3.153476E+03	1.948963E-02	1.541973E-04
3.163424E+03	2.005334E-02	1.585370E-04
3.173372E+03	2.063460E-02	1.630084E-04
3.183319E+03	2.123426E-02	1.676177E-04
3.193267E+03	2.185108E-02	1.723550E-04
3.203215E+03	2.248476E-02	1.772175E-04
3.213163E+03	2.313402E-02	1.821948E-04
3.223111E+03	2.379806E-02	1.872803E-04
3.233059E+03	2.447544E-02	1.924624E-04
3.243007E+03	2.516439E-02	1.977270E-04
3.252955E+03	2.586235E-02	2.030536E-04
3.262902E+03	2.656728E-02	2.084262E-04
3.272850E+03	2.727633E-02	2.138223E-04
3.282798E+03	2.798584E-02	2.192131E-04
3.292746E+03	2.869267E-02	2.245739E-04
3.302694E+03	2.939242E-02	2.298704E-04
3.312642E+03	3.008129E-02	2.350732E-04
3.322590E+03	3.075428E-02	2.401432E-04
3.332538E+03	3.140657E-02	2.450432E-04
3.342485E+03	3.203319E-02	2.497349E-04
3.352433E+03	3.262900E-02	2.541786E-04
3.362381E+03	3.318888E-02	2.583350E-04
3.372329E+03	3.370715E-02	2.621607E-04
3.382277E+03	3.417934E-02	2.656216E-04
3.392225E+03	3.459967E-02	2.686739E-04
3.402173E+03	3.496472E-02	2.712918E-04
3.412120E+03	3.526964E-02	2.734389E-04
3.422068E+03	3.551118E-02	2.750910E-04
3.432016E+03	3.568690E-02	2.762305E-04
3.441964E+03	3.579485E-02	2.768436E-04
3.451912E+03	3.583510E-02	2.769319E-04
3.461860E+03	3.580798E-02	2.764995E-04
3.471808E+03	3.571496E-02	2.755588E-04
3.481756E+03	3.555934E-02	2.741367E-04
3.491703E+03	3.534503E-02	2.722643E-04
3.501651E+03	3.507807E-02	2.699892E-04
3.511599E+03	3.476367E-02	2.673527E-04
3.521547E+03	3.440970E-02	2.644159E-04
3.531495E+03	3.402380E-02	2.612384E-04
3.541443E+03	3.361462E-02	2.578870E-04
3.551391E+03	3.319030E-02	2.544248E-04
3.561339E+03	3.275973E-02	2.509200E-04
3.571286E+03	3.233250E-02	2.474461E-04
3.581234E+03	3.191658E-02	2.440641E-04
3.591182E+03	3.152119E-02	2.408443E-04
3.601130E+03	3.115444E-02	2.378480E-04
3.611078E+03	3.082353E-02	2.351299E-04
3.621026E+03	3.053547E-02	2.327425E-04
3.630974E+03	3.029686E-02	2.307354E-04
3.640922E+03	3.011289E-02	2.291473E-04
3.650869E+03	2.998893E-02	2.280178E-04
3.660817E+03	2.992816E-02	2.273701E-04
3.670765E+03	2.993389E-02	2.272281E-04
3.680713E+03	3.000819E-02	2.276064E-04
3.690661E+03	3.015247E-02	2.285143E-04
3.700609E+03	3.036656E-02	2.299492E-04
3.710557E+03	3.064984E-02	2.319053E-04
3.720505E+03	3.100030E-02	2.343659E-04
3.730452E+03	3.141500E-02	2.373078E-04
3.740400E+03	3.188946E-02	2.406960E-04
3.750348E+03	3.241812E-02	2.444874E-04
3.760296E+03	3.299367E-02	2.486260E-04
3.770244E+03	3.360720E-02	2.530439E-04
3.780192E+03	3.424936E-02	2.576701E-04
3.790140E+03	4.027738E-02	3.027758E-04
3.791184E+03	4.034453E-02	3.032548E-04
3.792229E+03	4.039014E-02	3.035718E-04
3.793273E+03	4.046464E-02	3.041060E-04
3.794318E+03	4.052741E-02	3.045518E-04
3.795362E+03	4.058431E-02	3.049535E-04
3.796407E+03	4.067008E-02	3.055721E-04
3.797451E+03	4.076370E-02	3.062494E-04
3.798496E+03	4.083240E-02	3.067395E-04
3.799540E+03	4.090256E-02	3.072406E-04
3.800585E+03	4.100158E-02	3.079582E-04
3.801629E+03	4.110603E-02	3.087165E-04
3.802674E+03	4.118212E-02	3.092618E-04
3.803719E+03	4.124697E-02	3.097225E-04
3.804763E+03	4.134021E-02	3.103963E-04
3.805808E+03	4.144420E-02	3.111507E-04
3.806852E+03	4.153602E-02	3.118137E-04
3.807897E+03	4.164300E-02	3.125902E-04
3.808941E+03	4.174513E-02	3.133304E-04
3.809986E+03	4.184432E-02	3.140482E-04
3.811030E+03	4.196507E-02	3.149278E-04
3.812075E+03	4.207801E-02	3.157486E-04
3.813119E+03	4.217629E-02	3.164593E-04
3.814164E+03	4.231083E-02	3.174419E-04
3.815208E+03	4.246249E-02	3.185528E-04
3.816253E+03	4.258481E-02	3.194434E-04
3.817297E+03	4.269886E-02	3.202718E-04
3.818342E+03	4.283839E-02	3.212912E-04
3.819386E+03	4.296763E-02	3.222332E-04
3.820431E+03	4.305822E-02	3.228853E-04
3.821475E+03	4.313809E-02	3.234568E-04
3.822520E+03	4.323507E-02	3.241566E-04
3.823565E+03	4.335805E-02	3.250511E-04
3.824609E+03	4.348108E-02	3.259459E-04
3.825654E+03	4.359186E-02	3.267487E-04
3.826698E+03	4.368843E-02	3.274449E-04
3.827743E+03	4.377965E-02	3.281010E-04
3.828787E+03	4.385081E-02	3.286065E-04
3.829832E+03	4.389699E-02	3.289247E-04
3.830876E+03	4.394417E-02	3.292505E-04
3.831921E+03	4.398938E-02	3.295614E-04
3.832965E+03	4.402385E-02	3.297917E-04
3.834010E+03	4.405828E-02	3.300218E-04
3.835054E+03	4.410207E-02	3.303219E-04
3.836099E+03	4.413950E-02	3.305745E-04
3.837143E+03	4.417642E-02	3.308230E-04
3.838188E+03	4.421928E-02	3.311160E-04
3.839232E+03	4.423955E-02	3.312399E-04
3.840277E+03	4.424367E-02	3.312428E-04
3.841321E+03	4.424875E-02	3.312529E-04
3.842366E+03	4.424307E-02	3.311825E-04
3.843411E+03	4.422218E-02	3.309982E-04
3.844455E+03	4.420716E-02	3.308579E-04
3.845500E+03	4.418872E-02	3.306921E-04
3.846544E+03	4.416979E-02	3.305226E-04
3.847589E+03	4.413615E-02	3.302430E-04
3.848633E+03	4.409660E-02	3.299193E-04
3.849678E+03	4.407471E-02	3.297278E-04
3.850722E+03	4.403665E-02	3.294154E-04
3.851767E+03	4.398728E-02	3.290184E-04
3.852811E+03	4.393254E-02	3.285812E-04
3.853856E+03	4.388611E-02	3.282064E-04
3.854900E+03	4.386717E-02	3.280372E-04
3.855945E+03	4.384283E-02	3.278276E-04
3.856989E+03	4.379785E-02	3.274638E-04
3.858034E+03	4.374846E-02	3.270670E-04
3.859078E+03	4.370988E-02	3.267511E-04
3.860123E+03	4.367179E-02	3.264390E-04
3.861167E+03	4.361944E-02	3.260202E-04
3.862212E+03	4.356070E-02	3.255539E-04
3.863257E+03	4.347936E-02	3.249188E-04
3.864301E+03	4.342208E-02	3.244634E-04
3.865346E+03	4.335008E-02	3.238983E-04
3.866390E+03	4.327213E-02	3.232887E-04
3.867435E+03	4.318929E-02	3.226428E-04
3.868479E+03	4.310299E-02	3.219711E-04
3.869524E+03	4.302601E-02	3.213691E-04
3.870568E+03	4.296327E-02	3.208736E-04
3.871613E+03	4.291971E-02	3.205214E-04
3.872657E+03	4.285404E-02	3.200042E-04
3.873702E+03	4.280506E-02	3.196116E-04
3.874746E+03	4.273295E-02	3.190466E-04
3.875791E+03	4.267510E-02	3.185879E-04
3.876835E+03	4.263398E-02	3.182543E-04
3.877880E+03	4.260219E-02	3.179904E-04
3.878924E+03	4.255614E-02	3.176201E-04
3.879969E+03	4.246875E-02	3.169414E-04
3.881013E+03	4.237351E-02	3.162041E-04
3.882058E+03	4.231465E-02	3.157385E-04
3.883103E+03	4.225182E-02	3.152434E-04
3.884147E+03	4.221805E-02	3.149651E-04
3.885192E+03	4.214833E-02	3.144187E-04
3.886236E+03	4.207664E-02	3.138577E-04
3.887281E+03	4.202071E-02	3.134143E-04
3.888325E+03	4.196623E-02	3.129819E-04
3.889370E+03	4.189602E-02	3.124321E-04
3.890414E+03	4.179377E-02	3.116436E-04
3.891459E+03	4.173581E-02	3.111855E-04
3.892503E+03	4.170595E-02	3.109369E-04
3.893548E+03	4.164995E-02	3.104935E-04
3.894592E+03	4.159250E-02	3.100394E-04
3.895637E+03	4.155029E-02	3.096990E-04
3.896681E+03	4.152682E-02	3.094982E-04
3.897726E+03	4.146636E-02	3.090219E-04
3.898770E+03	4.142022E-02	3.086523E-04
3.899815E+03	4.137753E-02	3.083085E-04
3.900859E+03	4.135551E-02	3.081188E-04
3.901904E+03	4.130192E-02	3.076940E-04
3.902949E+03	4.121980E-02	3.070566E-04
3.903993E+03	4.109671E-02	3.061142E-04
3.905038E+03	4.100467E-02	3.054033E-04
3.906082E+03	4.095551E-02	3.050118E-04
3.907127E+03	4.086788E-02	3.043339E-04
3.908171E+03	4.080935E-02	3.038728E-04
3.909216E+03	4.072416E-02	3.032133E-04
3.910260E+03	4.067005E-02	3.027852E-04
3.911305E+03	4.062532E-02	3.024272E-04
3.912349E+03	4.057613E-02	3.020359E-04
3.913394E+03	4.053383E-02	3.016960E-04
3.914438E+03	4.046439E-02	3.011542E-04
3.915483E+03	4.039888E-02	3.006417E-04
3.916527E+03	4.035313E-02	3.002764E-04
3.917572E+03	4.027677E-02	2.996833E-04
3.918616E+03	4.022014E-02	2.992372E-04
3.919661E+03	4.018768E-02	2.989709E-04
3.920706E+03	4.014684E-02	2.986424E-04
3.921750E+03	4.010547E-02	2.983099E-04
3.922795E+03	4.006759E-02	2.980035E-04
3.923839E+03	4.003461E-02	2.977336E-04
3.924884E+03	3.997452E-02	2.972621E-04
3.925928E+03	3.992919E-02	2.969005E-04
3.926973E+03	3.989670E-02	2.966344E-04
3.928017E+03	3.986128E-02	2.963465E-04
3.929062E+03	3.982581E-02	2.960584E-04
3.930106E+03	3.974246E-02	2.954144E-04
3.931151E+03	3.966153E-02	2.947885E-04
3.932195E+03	3.961126E-02	2.943906E-04
3.933240E+03	3.955601E-02	2.939557E-04
3.934284E+03	3.947803E-02	2.933520E-04
3.935329E+03	3.944650E-02	2.930936E-04
3.936373E+03	3.941401E-02	2.928280E-04
3.937418E+03	3.937109E-02	2.924851E-04
3.938462E+03	3.934945E-02	2.923002E-04
3.939507E+03	3.930703E-02	2.919610E-04
3.940552E+03	3.927599E-02	2.917065E-04
3.941596E+03	3.928007E-02	2.917128E-04
3.942641E+03	3.926831E-02	2.916014E-04
3.943685E+03	3.926447E-02	2.915490E-04
3.944730E+03	3.925124E-02	2.914268E-04
3.945774E+03	3.925185E-02	2.914074E-04
3.946819E+03	3.925247E-02	2.913880E-04
3.947863E+03	3.923082E-02	2.912034E-04
3.948908E+03	3.919878E-02	2.909417E-04
3.949952E+03	3.917566E-02	2.907462E-04
3.950997E+03	3.916638E-02	2.906535E-04
3.952041E+03	3.918286E-02	2.907519E-04
3.953086E+03	3.915773E-02	2.905417E-04
3.954130E+03	3.915441E-02	2.904932E-04
3.955175E+03	3.916989E-02	2.905843E-04
3.956219E+03	3.915320E-02	2.904366E-04
3.957264E+03	3.911523E-02	2.901312E-04
3.958308E+03	3.909606E-02	2.899653E-04
3.959353E+03	3.911601E-02	2.900895E-04
3.960398E+03	3.910775E-02	2.900045E-04
3.961442E+03	3.909749E-02	2.899047E-04
3.962487E+03	3.915118E-02	2.902791E-04
3.963531E+03	3.922614E-02	2.908112E-04
3.964576E+03	3.926795E-02	2.910973E-04
3.965620E+03	3.928894E-02	2.912292E-04
3.966665E+03	3.935260E-02	2.916772E-04
3.967709E+03	3.940830E-02	2.920662E-04
3.968754E+03	3.949723E-02	2.927015E-04
3.969798E+03	3.960802E-02	2.934985E-04
3.970843E+03	3.969056E-02	2.940862E-04
3.971887E+03	3.977262E-02	2.946702E-04
3.972932E+03	3.988345E-02	2.954672E-04
3.973976E+03	3.997298E-02	2.961065E-04
3.975021E+03	4.004321E-02	2.966025E-04
3.976065E+03	4.014568E-02	2.973374E-04
3.977110E+03	4.023877E-02	2.980025E-04
3.978154E+03	4.030804E-02	2.984913E-04
3.979199E+03	4.039519E-02	2.991124E-04
3.980244E+03	4.051264E-02	2.999577E-04
3.981288E+03	4.062615E-02	3.007737E-04
3.982333E+03	4.072329E-02	3.014684E-04
3.983377E+03	4.081104E-02	3.020934E-04
3.984422E+03	4.088488E-02	3.026155E-04
3.985466E+03	4.094385E-02	3.030274E-04
3.986511E+03	4.101575E-02	3.035350E-04
3.987555E+03	4.106486E-02	3.038737E-04
3.988600E+03	4.109905E-02	3.041021E-04
3.989644E+03	4.114617E-02	3.044261E-04
3.990689E+03	4.118383E-02	3.046801E-04
3.991733E+03	4.124788E-02	3.051293E-04
3.992778E+03	4.133974E-02	3.057841E-04
3.993822E+03	4.141524E-02	3.063177E-04
3.994867E+03	4.144799E-02	3.065352E-04
3.995911E+03	4.147084E-02	3.066795E-04
3.996956E+03	4.150163E-02	3.068824E-04
3.998000E+03	4.150560E-02	3.068870E-04
3.999045E+03	4.152351E-02	3.069946E-04
4.000090E+03	4.155184E-02	3.071793E-04
4.001134E+03	4.156231E-02	3.072319E-04
4.002179E+03	4.155535E-02	3.071557E-04
4.003223E+03	4.151607E-02	3.068407E-04
4.004268E+03	4.147579E-02	3.065183E-04
4.005312E+03	4.144746E-02	3.062843E-04
4.006357E+03	4.142111E-02	3.060649E-04
4.007401E+03	4.143505E-02	3.061433E-04
4.008446E+03	4.142113E-02	3.060159E-04
4.009490E+03	4.137539E-02	3.056534E-04
4.010535E+03	4.135898E-02	3.055077E-04
4.011579E+03	4.133064E-02	3.052738E-04
4.012624E+03	4.129631E-02	3.049958E-04
4.013668E+03	4.126894E-02	3.047692E-04
4.014713E+03	4.119927E-02	3.042303E-04
4.015757E+03	4.109524E-02	3.034378E-04
4.016802E+03	4.099766E-02	3.026931E-04
4.017846E+03	4.089556E-02	3.019150E-04
4.018891E+03	4.076161E-02	3.009021E-04
4.019936E+03	4.063060E-02	2.999110E-04
4.020980E+03	4.051302E-02	2.990192E-04
4.022025E+03	4.039741E-02	2.981421E-04
4.023069E+03	4.029871E-02	2.973899E-04
4.024114E+03	4.017560E-02	2.964576E-04
4.025158E+03	4.005794E-02	2.955659E-04
4.026203E+03	3.995323E-02	2.947697E-04
4.027247E+03	3.985247E-02	2.940029E-04
4.028292E+03	3.974274E-02	2.931700E-04
4.029336E+03	3.962201E-02	2.922562E-04
4.030381E+03	3.948429E-02	2.912171E-04
4.031425E+03	3.929225E-02	2.897777E-04
4.032470E+03	3.913204E-02	2.885732E-04
4.033514E+03	3.898878E-02	2.874939E-04
4.034559E+03	3.884698E-02	2.864255E-04
4.035603E+03	3.870717E-02	2.853720E-04
4.036648E+03	3.856532E-02	2.843036E-04
4.037692E+03	3.842543E-02	2.832498E-04
4.038737E+03	3.828855E-02	2.822184E-04
4.039782E+03	3.813913E-02	2.810949E-04
4.040826E+03	3.799519E-02	2.800118E-04
4.041871E+03	3.784124E-02	2.788551E-04
4.042915E+03	3.775213E-02	2.781764E-04
4.043960E+03	3.766156E-02	2.774871E-04
4.045004E+03	3.755495E-02	2.766797E-04
4.046049E+03	3.747180E-02	2.760453E-04
4.047093E+03	3.739862E-02	2.754844E-04
4.048138E+03	3.730697E-02	2.747876E-04
4.049182E+03	3.718731E-02	2.738846E-04
4.050227E+03	3.712407E-02	2.733973E-04
4.051271E+03	3.708681E-02	2.731013E-04
4.052316E+03	3.706003E-02	2.728826E-04
4.053360E+03	3.701229E-02	2.725097E-04
4.054405E+03	3.698899E-02	2.723166E-04
4.055449E+03	3.696521E-02	2.721201E-04
4.056494E+03	3.692343E-02	2.717912E-04
4.057538E+03	3.692212E-02	2.717602E-04
4.058583E+03	3.690381E-02	2.716040E-04
4.059628E+03	3.687353E-02	2.713599E-04
4.060672E+03	3.681721E-02	2.709242E-04
4.061717E+03	3.675940E-02	2.704775E-04
4.062761E+03	3.675910E-02	2.704541E-04
4.063806E+03	3.677780E-02	2.705705E-04
4.064850E+03	3.677950E-02	2.705618E-04
4.065895E+03	3.674617E-02	2.702954E-04
4.066939E+03	3.673987E-02	2.702279E-04
4.067984E+03	3.676861E-02	2.704182E-04
4.069028E+03	3.681434E-02	2.707333E-04
4.070073E+03	3.683505E-02	2.708645E-04
4.071117E+03	3.684628E-02	2.709259E-04
4.072162E+03	3.688405E-02	2.711824E-04
4.073206E+03	3.693282E-02	2.715198E-04
4.074251E+03	3.700166E-02	2.720047E-04
4.075295E+03	3.705096E-02	2.723459E-04
4.076340E+03	3.708127E-02	2.725474E-04
4.077385E+03	3.716615E-02	2.731500E-04
4.078429E+03	3.724205E-02	2.736865E-04
4.079474E+03	3.728890E-02	2.740096E-04
4.080518E+03	3.737935E-02	2.746528E-04
4.081563E+03	3.745628E-02	2.751967E-04
4.082607E+03	3.750470E-02	2.755311E-04
4.083652E+03	3.752304E-02	2.756444E-04
4.084696E+03	3.757899E-02	2.760341E-04
4.085741E+03	3.764095E-02	2.764677E-04
4.086785E+03	3.772199E-02	2.770415E-04
4.087830E+03	3.779803E-02	2.775785E-04
4.088874E+03	3.783796E-02	2.778502E-04
4.089919E+03	3.790953E-02	2.783542E-04
4.090963E+03	3.798512E-02	2.788877E-04
4.092008E+03	3.803613E-02	2.792406E-04
4.093052E+03	3.811926E-02	2.798294E-04
4.094097E+03	3.821848E-02	2.805361E-04
4.095141E+03	3.827659E-02	2.809409E-04
4.096186E+03	3.832718E-02	2.812905E-04
4.097231E+03	3.836473E-02	2.815445E-04
4.098275E+03	3.844592E-02	2.821186E-04
4.099320E+03	3.852717E-02	2.826930E-04
4.100364E+03	3.859287E-02	2.831533E-04
4.101409E+03	3.863902E-02	2.834702E-04
4.102453E+03	3.868013E-02	2.837500E-04
4.103498E+03	3.874638E-02	2.842141E-04
4.104542E+03	3.880810E-02	2.846451E-04
4.105587E+03	3.882669E-02	2.847596E-04
4.106631E+03	3.881210E-02	2.846308E-04
4.107676E+03	3.881360E-02	2.846200E-04
4.108720E+03	3.880604E-02	2.845427E-04
4.109765E+03	3.878242E-02	2.843478E-04
4.110809E+03	3.873016E-02	2.839430E-04
4.111854E+03	3.868393E-02	2.835824E-04
4.112898E+03	3.864975E-02	2.833102E-04
4.113943E+03	3.859794E-02	2.829088E-04
4.114987E+03	3.856778E-02	2.826662E-04
4.116032E+03	3.855168E-02	2.825267E-04
4.117077E+03	3.851897E-02	2.822654E-04
4.118121E+03	3.847266E-02	2.819047E-04
4.119166E+03	3.840428E-02	2.813822E-04
4.120210E+03	3.835293E-02	2.809846E-04
4.121255E+03	3.831669E-02	2.806978E-04
4.122299E+03	3.824773E-02	2.801713E-04
4.123344E+03	3.817878E-02	2.796451E-04
4.124388E+03	3.809973E-02	2.790449E-04
4.125433E+03	3.804432E-02	2.786180E-04
4.126477E+03	3.795471E-02	2.779407E-04
4.127522E+03	3.785651E-02	2.772006E-04
4.128566E+03	3.774419E-02	2.763572E-04
4.129611E+03	3.763588E-02	2.755434E-04
4.130655E+03	3.755272E-02	2.749138E-04
4.131700E+03	3.747254E-02	2.743061E-04
4.132744E+03	3.738082E-02	2.736140E-04
4.133789E+03	3.729053E-02	2.729326E-04
4.134833E+03	3.721687E-02	2.723730E-04
4.135878E+03	3.712659E-02	2.716918E-04
4.136923E+03	3.704232E-02	2.710547E-04
4.137967E+03	3.694244E-02	2.703035E-04
4.139012E+03	3.680976E-02	2.693125E-04
4.140056E+03	3.667254E-02	2.682884E-04
4.141101E+03	3.658012E-02	2.675922E-04
4.142145E+03	3.647862E-02	2.668297E-04
4.143190E+03	3.635746E-02	2.659236E-04
4.144234E+03	3.624987E-02	2.651167E-04
4.145279E+03	3.614480E-02	2.643286E-04
4.146323E+03	3.601043E-02	2.633262E-04
4.147368E+03	3.590733E-02	2.625527E-04
4.148412E+03	3.580468E-02	2.617826E-04
4.149457E+03	3.569197E-02	2.609390E-04
4.150501E+03	3.560442E-02	2.602795E-04
4.151546E+03	3.551889E-02	2.596350E-04
4.152590E+03	3.540356E-02	2.587726E-04
4.153635E+03	3.529175E-02	2.579362E-04
4.154679E+03	3.519454E-02	2.572066E-04
4.155724E+03	3.508422E-02	2.563814E-04
4.156769E+03	3.496829E-02	2.555152E-04
4.157813E+03	3.487457E-02	2.548115E-04
4.158858E+03	3.476770E-02	2.540118E-04
4.159902E+03	3.464818E-02	2.531199E-04
4.160947E+03	3.450593E-02	2.520620E-04
4.161991E+03	3.437422E-02	2.510813E-04
4.163036E+03	3.432028E-02	2.506688E-04
4.164080E+03	3.428151E-02	2.503671E-04
4.165125E+03	3.423208E-02	2.499877E-04
4.166169E+03	3.416855E-02	2.495053E-04
4.167214E+03	3.405898E-02	2.486869E-04
4.168258E+03	3.399387E-02	2.481933E-04
4.169303E+03	3.394948E-02	2.478509E-04
4.170347E+03	3.384795E-02	2.470915E-04
4.171392E+03	3.374085E-02	2.462916E-04
4.172436E+03	3.366204E-02	2.456982E-04
4.173481E+03	3.358169E-02	2.450938E-04
4.174525E+03	3.351043E-02	2.445558E-04
4.175570E+03	3.346899E-02	2.442355E-04
4.176615E+03	3.343564E-02	2.439742E-04
4.177659E+03	3.339267E-02	2.436429E-04
4.178704E+03	3.335475E-02	2.433484E-04
4.179748E+03	3.332188E-02	2.430909E-04
4.180793E+03	3.327738E-02	2.427485E-04
4.181837E+03	3.322324E-02	2.423359E-04
4.182882E+03	3.318630E-02	2.420489E-04
4.183926E+03	3.314784E-02	2.417507E-04
4.184971E+03	3.309824E-02	2.413714E-04
4.186015E+03	3.303799E-02	2.409145E-04
4.187060E+03	3.297368E-02	2.404281E-04
4.188104E+03	3.292404E-02	2.400488E-04
4.189149E+03	3.288807E-02	2.397691E-04
4.190193E+03	3.284601E-02	2.394451E-04
4.191238E+03	3.281306E-02	2.391876E-04
4.192282E+03	3.278467E-02	2.389633E-04
4.193327E+03	3.274917E-02	2.386874E-04
4.194371E+03	3.271063E-02	2.383893E-04
4.195416E+03	3.268222E-02	2.381650E-04
4.196461E+03	3.265988E-02	2.379851E-04
4.197505E+03	3.260257E-02	2.375503E-04
4.198550E+03	3.252699E-02	2.369826E-04
4.199594E+03	3.248436E-02	2.366550E-04
4.200639E+03	3.248228E-02	2.366228E-04
4.201683E+03	3.248425E-02	2.366201E-04
4.202728E+03	3.243652E-02	2.362556E-04
