#wls	flux	fluxerr
1.591660E+03	1.226951E-03	1.856065E-05
1.631451E+03	1.257519E-03	1.899820E-05
1.671243E+03	1.286283E-03	1.940670E-05
1.711034E+03	1.313163E-03	1.978501E-05
1.750826E+03	1.337627E-03	2.012520E-05
1.790617E+03	1.358730E-03	2.041316E-05
1.830409E+03	1.375367E-03	2.063248E-05
1.870200E+03	1.385891E-03	2.075878E-05
1.909992E+03	1.388873E-03	2.077107E-05
1.949783E+03	1.383040E-03	2.065081E-05
1.989575E+03	1.368948E-03	2.040696E-05
2.029366E+03	1.349656E-03	2.008563E-05
2.069158E+03	1.332508E-03	1.979635E-05
2.108949E+03	1.327986E-03	1.969442E-05
2.148741E+03	1.346176E-03	1.992814E-05
2.188532E+03	1.391499E-03	2.056098E-05
2.228324E+03	1.462079E-03	2.156293E-05
2.268115E+03	1.551163E-03	2.283231E-05
2.307907E+03	1.651048E-03	2.425421E-05
2.347698E+03	1.755376E-03	2.573423E-05
2.387490E+03	1.859890E-03	2.720949E-05
2.427281E+03	1.962218E-03	2.864507E-05
2.467073E+03	2.061194E-03	3.002401E-05
2.506864E+03	2.156437E-03	3.134082E-05
2.546656E+03	2.247755E-03	3.259289E-05
2.586447E+03	2.334725E-03	3.377425E-05
2.626239E+03	2.417169E-03	3.488255E-05
2.666030E+03	2.494439E-03	3.590874E-05
2.705821E+03	2.565877E-03	3.684372E-05
2.745613E+03	2.630622E-03	3.767557E-05
2.785404E+03	2.687660E-03	3.839042E-05
2.825196E+03	2.736089E-03	3.897610E-05
2.864987E+03	2.774886E-03	3.941895E-05
2.904779E+03	2.803888E-03	3.971764E-05
2.944570E+03	2.823625E-03	3.988079E-05
2.984362E+03	2.835360E-03	3.992721E-05
2.994310E+03	2.837165E-03	3.992240E-05
3.004258E+03	2.838569E-03	3.991176E-05
3.014206E+03	2.839643E-03	3.989630E-05
3.024153E+03	2.840416E-03	3.987644E-05
3.034101E+03	2.840998E-03	3.985374E-05
3.044049E+03	2.841647E-03	3.983179E-05
3.053997E+03	2.842184E-03	3.980813E-05
3.063945E+03	2.842725E-03	3.978434E-05
3.073893E+03	2.843248E-03	3.976012E-05
3.083841E+03	2.843804E-03	3.973621E-05
3.093789E+03	2.844385E-03	3.971248E-05
3.103736E+03	2.845057E-03	3.968985E-05
3.113684E+03	2.845825E-03	3.966837E-05
3.123632E+03	2.846702E-03	3.964824E-05
3.133580E+03	2.847774E-03	3.963065E-05
3.143528E+03	2.849130E-03	3.961682E-05
3.153476E+03	2.850807E-03	3.960725E-05
3.163424E+03	2.852848E-03	3.960256E-05
3.173372E+03	2.855369E-03	3.960430E-05
3.183319E+03	2.858486E-03	3.961408E-05
3.183435E+03	2.684655E-03	3.720469E-05
3.184614E+03	2.678680E-03	3.711817E-05
3.185793E+03	2.672624E-03	3.703052E-05
3.186972E+03	2.666445E-03	3.694120E-05
3.188151E+03	2.660184E-03	3.685075E-05
3.189331E+03	2.653801E-03	3.675862E-05
3.190510E+03	2.647295E-03	3.666482E-05
3.191689E+03	2.640628E-03	3.656880E-05
3.192868E+03	2.633879E-03	3.647165E-05
3.194047E+03	2.626928E-03	3.637174E-05
3.195226E+03	2.618869E-03	3.625648E-05
3.196406E+03	2.605793E-03	3.607182E-05
3.197585E+03	2.592316E-03	3.588163E-05
3.198763E+03	2.581162E-03	3.572363E-05
3.199943E+03	2.572609E-03	3.560164E-05
3.201122E+03	2.566302E-03	3.551076E-05
3.202301E+03	2.558056E-03	3.539307E-05
3.203481E+03	2.549213E-03	3.526714E-05
3.204660E+03	2.543052E-03	3.517833E-05
3.205838E+03	2.536927E-03	3.509004E-05
3.207018E+03	2.531392E-03	3.500992E-05
3.208197E+03	2.528067E-03	3.496038E-05
3.209376E+03	2.518372E-03	3.482277E-05
3.210556E+03	2.507329E-03	3.466653E-05
3.211735E+03	2.503875E-03	3.461525E-05
3.212913E+03	2.493969E-03	3.447479E-05
3.214093E+03	2.482238E-03	3.430912E-05
3.215272E+03	2.476280E-03	3.422328E-05
3.216451E+03	2.470596E-03	3.414123E-05
3.217631E+03	2.463127E-03	3.403453E-05
3.218809E+03	2.457475E-03	3.395296E-05
3.219988E+03	2.452968E-03	3.388722E-05
3.221168E+03	2.448815E-03	3.382639E-05
3.222347E+03	2.443471E-03	3.374910E-05
3.223526E+03	2.442245E-03	3.372871E-05
3.224706E+03	2.438441E-03	3.367271E-05
3.225884E+03	2.430392E-03	3.355811E-05
3.227063E+03	2.424123E-03	3.346811E-05
3.228243E+03	2.421024E-03	3.342188E-05
3.229422E+03	2.420699E-03	3.341395E-05
3.230601E+03	2.418428E-03	3.337917E-05
3.231780E+03	2.418099E-03	3.337119E-05
3.232959E+03	2.415944E-03	3.333801E-05
3.234138E+03	2.414302E-03	3.331192E-05
3.235318E+03	2.410158E-03	3.325130E-05
3.236497E+03	2.408115E-03	3.321968E-05
3.237676E+03	2.408731E-03	3.322474E-05
3.238855E+03	2.412444E-03	3.327251E-05
3.240034E+03	2.408411E-03	3.321344E-05
3.241213E+03	2.404334E-03	3.315379E-05
3.242393E+03	2.401289E-03	3.310836E-05
3.243572E+03	2.397168E-03	3.304810E-05
3.244751E+03	2.397536E-03	3.304975E-05
3.245930E+03	2.400289E-03	3.308426E-05
3.247109E+03	2.397633E-03	3.304422E-05
3.248288E+03	2.398277E-03	3.304964E-05
3.249468E+03	2.398601E-03	3.305067E-05
3.250647E+03	2.397571E-03	3.303303E-05
3.251825E+03	2.400240E-03	3.306636E-05
3.253005E+03	2.404502E-03	3.312161E-05
3.254184E+03	2.406971E-03	3.315216E-05
3.255363E+03	2.405339E-03	3.312623E-05
3.256543E+03	2.404582E-03	3.311233E-05
3.257722E+03	2.406531E-03	3.313571E-05
3.258900E+03	2.412344E-03	3.321227E-05
3.260080E+03	2.416963E-03	3.327237E-05
3.261259E+03	2.417915E-03	3.328199E-05
3.262438E+03	2.421815E-03	3.333218E-05
3.263618E+03	2.421252E-03	3.332092E-05
3.264796E+03	2.424115E-03	3.335682E-05
3.265975E+03	2.423907E-03	3.335045E-05
3.267155E+03	2.427208E-03	3.339236E-05
3.268334E+03	2.430947E-03	3.344028E-05
3.269513E+03	2.433689E-03	3.347447E-05
3.270693E+03	2.435753E-03	3.349932E-05
3.271871E+03	2.438094E-03	3.352799E-05
3.273050E+03	2.441314E-03	3.356872E-05
3.274230E+03	2.443934E-03	3.360120E-05
3.275409E+03	2.445995E-03	3.362598E-05
3.276588E+03	2.448654E-03	3.365898E-05
3.277767E+03	2.452751E-03	3.371172E-05
3.278946E+03	2.453053E-03	3.371230E-05
3.280125E+03	2.452994E-03	3.370792E-05
3.281305E+03	2.451615E-03	3.368540E-05
3.282484E+03	2.448956E-03	3.364529E-05
3.283663E+03	2.448213E-03	3.363152E-05
3.284842E+03	2.451786E-03	3.367702E-05
3.286021E+03	2.445124E-03	3.358194E-05
3.287200E+03	2.444297E-03	3.356700E-05
3.288380E+03	2.441428E-03	3.352404E-05
3.289559E+03	2.448598E-03	3.361890E-05
3.290738E+03	2.453247E-03	3.367915E-05
3.291917E+03	2.449895E-03	3.362954E-05
3.293096E+03	2.452103E-03	3.365625E-05
3.294275E+03	2.460513E-03	3.376809E-05
3.295455E+03	2.465563E-03	3.383377E-05
3.296634E+03	2.471134E-03	3.390658E-05
3.297812E+03	2.478626E-03	3.400576E-05
3.298992E+03	2.490645E-03	3.416699E-05
3.300171E+03	2.504950E-03	3.435954E-05
3.301350E+03	2.510324E-03	3.442956E-05
3.302530E+03	2.518744E-03	3.454133E-05
3.303709E+03	2.521875E-03	3.458056E-05
3.304887E+03	2.532140E-03	3.471758E-05
3.306067E+03	2.537476E-03	3.478700E-05
3.307246E+03	2.548105E-03	3.492895E-05
3.308425E+03	2.557772E-03	3.505770E-05
3.309605E+03	2.567001E-03	3.518039E-05
3.310783E+03	2.584171E-03	3.541189E-05
3.311962E+03	2.597735E-03	3.559392E-05
3.313142E+03	2.613428E-03	3.580508E-05
3.314321E+03	2.632495E-03	3.606240E-05
3.315500E+03	2.642015E-03	3.618891E-05
3.316680E+03	2.656312E-03	3.638081E-05
3.317858E+03	2.664712E-03	3.649190E-05
3.319037E+03	2.670463E-03	3.656670E-05
3.320217E+03	2.689786E-03	3.682729E-05
3.321396E+03	2.702647E-03	3.699937E-05
3.322575E+03	2.714266E-03	3.715440E-05
3.323755E+03	2.729221E-03	3.735505E-05
3.324933E+03	2.745504E-03	3.757384E-05
3.326112E+03	2.757250E-03	3.773049E-05
3.327292E+03	2.768275E-03	3.787723E-05
3.328471E+03	2.782718E-03	3.807070E-05
3.329650E+03	2.803032E-03	3.834443E-05
3.330829E+03	2.821943E-03	3.859892E-05
3.332008E+03	2.831530E-03	3.872583E-05
3.333187E+03	2.847914E-03	3.894566E-05
3.334367E+03	2.858752E-03	3.908959E-05
3.335546E+03	2.870114E-03	3.924066E-05
3.336725E+03	2.882041E-03	3.939942E-05
3.337904E+03	2.890390E-03	3.950922E-05
3.339083E+03	2.905458E-03	3.971085E-05
3.340262E+03	2.926768E-03	3.999771E-05
3.341442E+03	2.943211E-03	4.021802E-05
3.342621E+03	2.959537E-03	4.043666E-05
3.343799E+03	2.973893E-03	4.062835E-05
3.344979E+03	2.994734E-03	4.090858E-05
3.346158E+03	3.017674E-03	4.121740E-05
3.347337E+03	3.031878E-03	4.140685E-05
3.348517E+03	3.049064E-03	4.163698E-05
3.349696E+03	3.063518E-03	4.182975E-05
3.350874E+03	3.079784E-03	4.204721E-05
3.352054E+03	3.096095E-03	4.226523E-05
3.353233E+03	3.108580E-03	4.243098E-05
3.354412E+03	3.132028E-03	4.274632E-05
3.355592E+03	3.152860E-03	4.302587E-05
3.356771E+03	3.177974E-03	4.336379E-05
3.357949E+03	3.194421E-03	4.358338E-05
3.359129E+03	3.211597E-03	4.381287E-05
3.360308E+03	3.227001E-03	4.401814E-05
3.361487E+03	3.249749E-03	4.432352E-05
3.362667E+03	3.270365E-03	4.459974E-05
3.363845E+03	3.289004E-03	4.484896E-05
3.365024E+03	3.305753E-03	4.507233E-05
3.366204E+03	3.327873E-03	4.536888E-05
3.367383E+03	3.349389E-03	4.565712E-05
3.368562E+03	3.368448E-03	4.591180E-05
3.369742E+03	3.385937E-03	4.614504E-05
3.370920E+03	3.406296E-03	4.641732E-05
3.372099E+03	3.426333E-03	4.668515E-05
3.373279E+03	3.446374E-03	4.695297E-05
3.374458E+03	3.467754E-03	4.723898E-05
3.375637E+03	3.489176E-03	4.752547E-05
3.376816E+03	3.509432E-03	4.779603E-05
3.377995E+03	3.527871E-03	4.804177E-05
3.379174E+03	3.541869E-03	4.822700E-05
3.380354E+03	3.563711E-03	4.851895E-05
3.381533E+03	3.581068E-03	4.874980E-05
3.382712E+03	3.596327E-03	4.895203E-05
3.383891E+03	3.615187E-03	4.920321E-05
3.385070E+03	3.631542E-03	4.942024E-05
3.386250E+03	3.647616E-03	4.963341E-05
3.387429E+03	3.664019E-03	4.985099E-05
3.388608E+03	3.678038E-03	5.003609E-05
3.389788E+03	3.688861E-03	5.017766E-05
3.390966E+03	3.700252E-03	5.032693E-05
3.392145E+03	3.710513E-03	5.046080E-05
3.393325E+03	3.719195E-03	5.057316E-05
3.394504E+03	3.727232E-03	5.067671E-05
3.395683E+03	3.740690E-03	5.085394E-05
3.396862E+03	3.756948E-03	5.106919E-05
3.398041E+03	3.768793E-03	5.122440E-05
3.399220E+03	3.776954E-03	5.132950E-05
3.400400E+03	3.784428E-03	5.142524E-05
3.401579E+03	3.795670E-03	5.157215E-05
3.402758E+03	3.806668E-03	5.171571E-05
3.403936E+03	3.814389E-03	5.181472E-05
3.405116E+03	3.821906E-03	5.191093E-05
3.406295E+03	3.823954E-03	5.193284E-05
3.407474E+03	3.823369E-03	5.191898E-05
3.408654E+03	3.828131E-03	5.197772E-05
3.409832E+03	3.833623E-03	5.204635E-05
3.411011E+03	3.832304E-03	5.202252E-05
3.412191E+03	3.838728E-03	5.210377E-05
3.413370E+03	3.846367E-03	5.220150E-05
3.414549E+03	3.850722E-03	5.225463E-05
3.415729E+03	3.853943E-03	5.229235E-05
3.416907E+03	3.858175E-03	5.234379E-05
3.418086E+03	3.861924E-03	5.238865E-05
3.419266E+03	3.863967E-03	5.241035E-05
3.420445E+03	3.864590E-03	5.241279E-05
3.421624E+03	3.867765E-03	5.244984E-05
3.422804E+03	3.865221E-03	5.240931E-05
3.423982E+03	3.864706E-03	5.239631E-05
3.425162E+03	3.868978E-03	5.244819E-05
3.426341E+03	3.873531E-03	5.250388E-05
3.427520E+03	3.874188E-03	5.250674E-05
3.428700E+03	3.872167E-03	5.247331E-05
3.429878E+03	3.874690E-03	5.250144E-05
3.431057E+03	3.869458E-03	5.242450E-05
3.432237E+03	3.870029E-03	5.242618E-05
3.433416E+03	3.869181E-03	5.240864E-05
3.434595E+03	3.869263E-03	5.240370E-05
3.435775E+03	3.869062E-03	5.239491E-05
3.436953E+03	3.868453E-03	5.238060E-05
3.438132E+03	3.863208E-03	5.230353E-05
3.439312E+03	3.866214E-03	5.233816E-05
3.440491E+03	3.866576E-03	5.233698E-05
3.441670E+03	3.867629E-03	5.234516E-05
3.442849E+03	3.870590E-03	5.237916E-05
3.444028E+03	3.872537E-03	5.239942E-05
3.445207E+03	3.866756E-03	5.231512E-05
3.446386E+03	3.867033E-03	5.231278E-05
3.447566E+03	3.865520E-03	5.228621E-05
3.448745E+03	3.864412E-03	5.226515E-05
3.449923E+03	3.864889E-03	5.226550E-05
3.451103E+03	3.863780E-03	5.224441E-05
3.452282E+03	3.859293E-03	5.217764E-05
3.453461E+03	3.857855E-03	5.215212E-05
3.454641E+03	3.858776E-03	5.215847E-05
3.455820E+03	3.862872E-03	5.220772E-05
3.456998E+03	3.863263E-03	5.220691E-05
3.458178E+03	3.860559E-03	5.216424E-05
3.459357E+03	3.857733E-03	5.211995E-05
3.460536E+03	3.857959E-03	5.211689E-05
3.461716E+03	3.853949E-03	5.205661E-05
3.462894E+03	3.857430E-03	5.209752E-05
3.464074E+03	3.860546E-03	5.213348E-05
3.465253E+03	3.862032E-03	5.214741E-05
3.466432E+03	3.866121E-03	5.219648E-05
3.467612E+03	3.863819E-03	5.215926E-05
3.468791E+03	3.863021E-03	5.214234E-05
3.469969E+03	3.862182E-03	5.212487E-05
3.471149E+03	3.861748E-03	5.211286E-05
3.472328E+03	3.861113E-03	5.209815E-05
3.473507E+03	3.860474E-03	5.208337E-05
3.474687E+03	3.859548E-03	5.206473E-05
3.475865E+03	3.858462E-03	5.204393E-05
3.477044E+03	3.856963E-03	5.201755E-05
3.478224E+03	3.858485E-03	5.203191E-05
3.479403E+03	3.859474E-03	5.203908E-05
3.480582E+03	3.855894E-03	5.198465E-05
3.481762E+03	3.855658E-03	5.197530E-05
3.482940E+03	3.853220E-03	5.193627E-05
3.484119E+03	3.853185E-03	5.192963E-05
3.485298E+03	3.856742E-03	5.197139E-05
3.486478E+03	3.860094E-03	5.201037E-05
3.487657E+03	3.865038E-03	5.207079E-05
3.488836E+03	3.869941E-03	5.213063E-05
3.490015E+03	3.873662E-03	5.217453E-05
3.491194E+03	3.879829E-03	5.225137E-05
3.492373E+03	3.887511E-03	5.234858E-05
3.493553E+03	3.890455E-03	5.238196E-05
3.494732E+03	3.895075E-03	5.243791E-05
3.495910E+03	3.899980E-03	5.249766E-05
3.497090E+03	3.904845E-03	5.255685E-05
3.498269E+03	3.908690E-03	5.260232E-05
3.499448E+03	3.912943E-03	5.265324E-05
3.500628E+03	3.915847E-03	5.268599E-05
3.501807E+03	3.917202E-03	5.269790E-05
3.502985E+03	3.921904E-03	5.275483E-05
3.504165E+03	3.927384E-03	5.282219E-05
3.505344E+03	3.928898E-03	5.283621E-05
3.506524E+03	3.933195E-03	5.288763E-05
3.507703E+03	3.939002E-03	5.295934E-05
3.508881E+03	3.943503E-03	5.301347E-05
3.510061E+03	3.948739E-03	5.307745E-05
3.511240E+03	3.949110E-03	5.307604E-05
3.512419E+03	3.954635E-03	5.314389E-05
3.513599E+03	3.957457E-03	5.317539E-05
3.514778E+03	3.961960E-03	5.322946E-05
3.515956E+03	3.964048E-03	5.325108E-05
3.517136E+03	3.967734E-03	5.329414E-05
3.518315E+03	3.975346E-03	5.338992E-05
3.519494E+03	3.980054E-03	5.344667E-05
3.520674E+03	3.982961E-03	5.347922E-05
3.521852E+03	3.988817E-03	5.355136E-05
3.523031E+03	3.990252E-03	5.356412E-05
3.524210E+03	3.991850E-03	5.357908E-05
3.525390E+03	3.993736E-03	5.359787E-05
3.526569E+03	3.997301E-03	5.363918E-05
3.527748E+03	4.000208E-03	5.367167E-05
3.528927E+03	4.005492E-03	5.373602E-05
3.530106E+03	4.004019E-03	5.370972E-05
3.531285E+03	4.008773E-03	5.376693E-05
3.532465E+03	4.006482E-03	5.372963E-05
3.533644E+03	4.007178E-03	5.373241E-05
3.534823E+03	4.011071E-03	5.377804E-05
3.536002E+03	4.014349E-03	5.381542E-05
3.537181E+03	4.020865E-03	5.389618E-05
3.538360E+03	4.027830E-03	5.398293E-05
3.539540E+03	4.028243E-03	5.398185E-05
3.540719E+03	4.029598E-03	5.399339E-05
3.541897E+03	4.030829E-03	5.400326E-05
3.543077E+03	4.032265E-03	5.401586E-05
3.544256E+03	4.032673E-03	5.401471E-05
3.545436E+03	4.031775E-03	5.399603E-05
3.546615E+03	4.033741E-03	5.401573E-05
3.547794E+03	4.032511E-03	5.399261E-05
3.548973E+03	4.031160E-03	5.396787E-05
3.550152E+03	4.028617E-03	5.392719E-05
3.551331E+03	4.030707E-03	5.394851E-05
3.552511E+03	4.032592E-03	5.396708E-05
3.553690E+03	4.031688E-03	5.394832E-05
3.554868E+03	4.033944E-03	5.397185E-05
3.556048E+03	4.030744E-03	5.392236E-05
3.557227E+03	4.030126E-03	5.390743E-05
3.558406E+03	4.030204E-03	5.390180E-05
3.559586E+03	4.033568E-03	5.394011E-05
3.560765E+03	4.036809E-03	5.397676E-05
3.561943E+03	4.036726E-03	5.396896E-05
3.563123E+03	4.036599E-03	5.396057E-05
3.564302E+03	4.037584E-03	5.396703E-05
3.565481E+03	4.039261E-03	5.398275E-05
3.566660E+03	4.038849E-03	5.397053E-05
3.567840E+03	4.038890E-03	5.396435E-05
3.569018E+03	4.040447E-03	5.397844E-05
3.570197E+03	4.039991E-03	5.396563E-05
3.571377E+03	4.037977E-03	5.393200E-05
3.572556E+03	4.039410E-03	5.394441E-05
3.573735E+03	4.039982E-03	5.394532E-05
3.574914E+03	4.042692E-03	5.397476E-05
3.576093E+03	4.043673E-03	5.398111E-05
3.577272E+03	4.043956E-03	5.397815E-05
3.578452E+03	4.043912E-03	5.397080E-05
3.579631E+03	4.041855E-03	5.393660E-05
3.580810E+03	4.042263E-03	5.393528E-05
3.581989E+03	4.047850E-03	5.400306E-05
3.583168E+03	4.048134E-03	5.400007E-05
3.584348E+03	4.048622E-03	5.399981E-05
3.585527E+03	4.047880E-03	5.398312E-05
3.586706E+03	4.047261E-03	5.396808E-05
3.587885E+03	4.046021E-03	5.394477E-05
3.589064E+03	4.048445E-03	5.397029E-05
3.590243E+03	4.050949E-03	5.399687E-05
3.591423E+03	4.053373E-03	5.402238E-05
3.592602E+03	4.055264E-03	5.404076E-05
3.593781E+03	4.057441E-03	5.406295E-05
3.594960E+03	4.057191E-03	5.405280E-05
3.596139E+03	4.056528E-03	5.403714E-05
3.597318E+03	4.058215E-03	5.405278E-05
3.598498E+03	4.062370E-03	5.410127E-05
3.599677E+03	4.065166E-03	5.413165E-05
3.600856E+03	4.063929E-03	5.410833E-05
3.602035E+03	4.061084E-03	5.406360E-05
3.603214E+03	4.057704E-03	5.401175E-05
3.604393E+03	4.052966E-03	5.394184E-05
3.605573E+03	4.052138E-03	5.392397E-05
3.606752E+03	4.050530E-03	5.389572E-05
3.607930E+03	4.049825E-03	5.387949E-05
3.609110E+03	4.049823E-03	5.387260E-05
3.610289E+03	4.049777E-03	5.386513E-05
3.611468E+03	4.045613E-03	5.380291E-05
3.612648E+03	4.045238E-03	5.379105E-05
3.613827E+03	4.045356E-03	5.378576E-05
3.615005E+03	4.046136E-03	5.378927E-05
3.616185E+03	4.044402E-03	5.375935E-05
3.617364E+03	4.042049E-03	5.372121E-05
3.618543E+03	4.038707E-03	5.366993E-05
3.619723E+03	4.035526E-03	5.362079E-05
3.620901E+03	4.030326E-03	5.354484E-05
3.622080E+03	4.026901E-03	5.349249E-05
3.623260E+03	4.021535E-03	5.341436E-05
3.624439E+03	4.018560E-03	5.336799E-05
3.625618E+03	4.015046E-03	5.331448E-05
3.626798E+03	4.011454E-03	5.325994E-05
3.627976E+03	4.009591E-03	5.322837E-05
3.629155E+03	4.003972E-03	5.314694E-05
3.630335E+03	4.003226E-03	5.313019E-05
3.631514E+03	3.999009E-03	5.306739E-05
3.632693E+03	3.993637E-03	5.298927E-05
3.633873E+03	3.985540E-03	5.287502E-05
3.635051E+03	3.976947E-03	5.275421E-05
3.636230E+03	3.964884E-03	5.258741E-05
3.637410E+03	3.953937E-03	5.243544E-05
3.638589E+03	3.942860E-03	5.228178E-05
3.639768E+03	3.935291E-03	5.217467E-05
3.640947E+03	3.925908E-03	5.204353E-05
3.642126E+03	3.917221E-03	5.192165E-05
3.643305E+03	3.904156E-03	5.174176E-05
3.644485E+03	3.894644E-03	5.160900E-05
3.645664E+03	3.882150E-03	5.143677E-05
3.646843E+03	3.868502E-03	5.124929E-05
3.648022E+03	3.853032E-03	5.103771E-05
3.649201E+03	3.836443E-03	5.081136E-05
3.650380E+03	3.817249E-03	5.055057E-05
3.651560E+03	3.798712E-03	5.029854E-05
3.652739E+03	3.780212E-03	5.004706E-05
3.653917E+03	3.765677E-03	4.984814E-05
3.655097E+03	3.748042E-03	4.960821E-05
3.656276E+03	3.733626E-03	4.941097E-05
3.657455E+03	3.716935E-03	4.918365E-05
3.658635E+03	3.697222E-03	4.891641E-05
3.659814E+03	3.678207E-03	4.865847E-05
3.660992E+03	3.659938E-03	4.841045E-05
3.662172E+03	3.637400E-03	4.810604E-05
3.663351E+03	3.613867E-03	4.778854E-05
3.664530E+03	3.597901E-03	4.757118E-05
3.665710E+03	3.572375E-03	4.722748E-05
3.666889E+03	3.552677E-03	4.696090E-05
3.668067E+03	3.531902E-03	4.668015E-05
3.669247E+03	3.510627E-03	4.639287E-05
3.670426E+03	3.489594E-03	4.610886E-05
3.671605E+03	3.469635E-03	4.583910E-05
3.672785E+03	3.451121E-03	4.558850E-05
3.673963E+03	3.436829E-03	4.539372E-05
3.675142E+03	3.421993E-03	4.519181E-05
3.676322E+03	3.403761E-03	4.494510E-05
3.677501E+03	3.386062E-03	4.470549E-05
3.678680E+03	3.367657E-03	4.445662E-05
3.679860E+03	3.356085E-03	4.429800E-05
3.681038E+03	3.339333E-03	4.407106E-05
3.682217E+03	3.324109E-03	4.386434E-05
3.683397E+03	3.309215E-03	4.366200E-05
3.684576E+03	3.298130E-03	4.350998E-05
3.685755E+03	3.282320E-03	4.329568E-05
3.686934E+03	3.270237E-03	4.313057E-05
3.688113E+03	3.257902E-03	4.296218E-05
3.689292E+03	3.242913E-03	4.275884E-05
3.690472E+03	3.228210E-03	4.255931E-05
3.691651E+03	3.213466E-03	4.235930E-05
3.692830E+03	3.197806E-03	4.214727E-05
3.694009E+03	3.184215E-03	4.196253E-05
3.695188E+03	3.169669E-03	4.176529E-05
3.696367E+03	3.154208E-03	4.155602E-05
3.697547E+03	3.140280E-03	4.136700E-05
3.698726E+03	3.128382E-03	4.120476E-05
3.699905E+03	3.117187E-03	4.105183E-05
3.701084E+03	3.104207E-03	4.087541E-05
3.702263E+03	3.097572E-03	4.078260E-05
3.703442E+03	3.087617E-03	4.064609E-05
3.704622E+03	3.083679E-03	4.058881E-05
3.705801E+03	3.080155E-03	4.053699E-05
3.706979E+03	3.077752E-03	4.049993E-05
3.708159E+03	3.078006E-03	4.049783E-05
3.709338E+03	3.077471E-03	4.048536E-05
3.710517E+03	3.079220E-03	4.050293E-05
3.711697E+03	3.080721E-03	4.051722E-05
3.712876E+03	3.084964E-03	4.056756E-05
3.714054E+03	3.087213E-03	4.059168E-05
3.715234E+03	3.087138E-03	4.058521E-05
3.716413E+03	3.089763E-03	4.061425E-05
3.717592E+03	3.093344E-03	4.065584E-05
3.718772E+03	3.095888E-03	4.068378E-05
3.719950E+03	3.098390E-03	4.071117E-05
