#wls	flux	fluxerr
1.591660E+03	7.376492E-04	6.298918E-06
1.631451E+03	7.516997E-04	6.410815E-06
1.671243E+03	7.643389E-04	6.510195E-06
1.711034E+03	7.752763E-04	6.594621E-06
1.750826E+03	7.844339E-04	6.663475E-06
1.790617E+03	7.911233E-04	6.710970E-06
1.830409E+03	7.948925E-04	6.733353E-06
1.870200E+03	7.948776E-04	6.723420E-06
1.909992E+03	7.903042E-04	6.674764E-06
1.949783E+03	7.806716E-04	6.583337E-06
1.989575E+03	7.663897E-04	6.452791E-06
2.029366E+03	7.495361E-04	6.300785E-06
2.069158E+03	7.340864E-04	6.160799E-06
2.108949E+03	7.259936E-04	6.082663E-06
2.148741E+03	7.304672E-04	6.109644E-06
2.188532E+03	7.497202E-04	6.259668E-06
2.228324E+03	7.822157E-04	6.519257E-06
2.268115E+03	8.239712E-04	6.854651E-06
2.307907E+03	8.707249E-04	7.229995E-06
2.347698E+03	9.192913E-04	7.618608E-06
2.387490E+03	9.672816E-04	8.000596E-06
2.427281E+03	1.013654E-03	8.367340E-06
2.467073E+03	1.057573E-03	8.711986E-06
2.506864E+03	1.098882E-03	9.033330E-06
2.546656E+03	1.137238E-03	9.328642E-06
2.586447E+03	1.172548E-03	9.597296E-06
2.626239E+03	1.204635E-03	9.837949E-06
2.666030E+03	1.233437E-03	1.005026E-05
2.705821E+03	1.258537E-03	1.023097E-05
2.745613E+03	1.279946E-03	1.038036E-05
2.785404E+03	1.297504E-03	1.049734E-05
2.825196E+03	1.311187E-03	1.058192E-05
2.864987E+03	1.321127E-03	1.063538E-05
2.904779E+03	1.327853E-03	1.066217E-05
2.944570E+03	1.332099E-03	1.066839E-05
2.984362E+03	1.334879E-03	1.066228E-05
2.994310E+03	1.335532E-03	1.066032E-05
3.004258E+03	1.336184E-03	1.065833E-05
3.014206E+03	1.336845E-03	1.065638E-05
3.024153E+03	1.337632E-03	1.065539E-05
3.034101E+03	1.338563E-03	1.065552E-05
3.044049E+03	1.339747E-03	1.065761E-05
3.053997E+03	1.341133E-03	1.066128E-05
3.063945E+03	1.342851E-03	1.066754E-05
3.073893E+03	1.344812E-03	1.067569E-05
3.083841E+03	1.347063E-03	1.068608E-05
3.093789E+03	1.349648E-03	1.069907E-05
3.103736E+03	1.352575E-03	1.071472E-05
3.113684E+03	1.355892E-03	1.073339E-05
3.123632E+03	1.359570E-03	1.075486E-05
3.133580E+03	1.363699E-03	1.077982E-05
3.143528E+03	1.368294E-03	1.080840E-05
3.153476E+03	1.373408E-03	1.084098E-05
3.163424E+03	1.379016E-03	1.087738E-05
3.173372E+03	1.385174E-03	1.091802E-05
3.183319E+03	1.391936E-03	1.096333E-05
3.193267E+03	1.399319E-03	1.101342E-05
3.203215E+03	1.407374E-03	1.106868E-05
3.213163E+03	1.416117E-03	1.112923E-05
3.223111E+03	1.425598E-03	1.119544E-05
3.233059E+03	1.435827E-03	1.126739E-05
3.243007E+03	1.446815E-03	1.134514E-05
3.252955E+03	1.458603E-03	1.142901E-05
3.262902E+03	1.471197E-03	1.151902E-05
3.272850E+03	1.484595E-03	1.161515E-05
3.282798E+03	1.498861E-03	1.171788E-05
3.292746E+03	1.513953E-03	1.182686E-05
3.302694E+03	1.529858E-03	1.194199E-05
3.312642E+03	1.546560E-03	1.206311E-05
3.322590E+03	1.564102E-03	1.219055E-05
3.332538E+03	1.582392E-03	1.232358E-05
3.342485E+03	1.601433E-03	1.246221E-05
3.352433E+03	1.621191E-03	1.260616E-05
3.362381E+03	1.641599E-03	1.275489E-05
3.372329E+03	1.662619E-03	1.290809E-05
3.382277E+03	1.684243E-03	1.306570E-05
3.392225E+03	1.706339E-03	1.322668E-05
3.402173E+03	1.728932E-03	1.339120E-05
3.412120E+03	1.751895E-03	1.355828E-05
3.422068E+03	1.775228E-03	1.372792E-05
3.432016E+03	2.816701E-03	2.176427E-05
3.434006E+03	2.804223E-03	2.166438E-05
3.435995E+03	2.787696E-03	2.153325E-05
3.437985E+03	2.774062E-03	2.142449E-05
3.439975E+03	2.765240E-03	2.135293E-05
3.441964E+03	2.753873E-03	2.126174E-05
3.443954E+03	2.740839E-03	2.115771E-05
3.445943E+03	2.730236E-03	2.107247E-05
3.447933E+03	2.719160E-03	2.098361E-05
3.449922E+03	2.713058E-03	2.093315E-05
3.451912E+03	2.699843E-03	2.082782E-05
3.453902E+03	2.689527E-03	2.074490E-05
3.455891E+03	2.686369E-03	2.071719E-05
3.457881E+03	2.675472E-03	2.062982E-05
3.459870E+03	2.668047E-03	2.056925E-05
3.461860E+03	2.665605E-03	2.054710E-05
3.463849E+03	2.660147E-03	2.050171E-05
3.465839E+03	2.650009E-03	2.042027E-05
3.467829E+03	2.632588E-03	2.028274E-05
3.469818E+03	2.621709E-03	2.019565E-05
3.471808E+03	2.609368E-03	2.009733E-05
3.473797E+03	2.604198E-03	2.005425E-05
3.475787E+03	2.610259E-03	2.009766E-05
3.477776E+03	2.606124E-03	2.006256E-05
3.479766E+03	2.604588E-03	2.004748E-05
3.481756E+03	2.606068E-03	2.005561E-05
3.483745E+03	2.605205E-03	2.004570E-05
3.485735E+03	2.606475E-03	2.005220E-05
3.487724E+03	2.613263E-03	2.010115E-05
3.489714E+03	2.627344E-03	2.020617E-05
3.491703E+03	2.641690E-03	2.031318E-05
3.493693E+03	2.645515E-03	2.033927E-05
3.495683E+03	2.642149E-03	2.031007E-05
3.497672E+03	2.647745E-03	2.034976E-05
3.499662E+03	2.653759E-03	2.039264E-05
3.501651E+03	2.655029E-03	2.039906E-05
3.503641E+03	2.654786E-03	2.039385E-05
3.505630E+03	2.659966E-03	2.043030E-05
3.507620E+03	2.667390E-03	2.048396E-05
3.509610E+03	2.677425E-03	2.055764E-05
3.511599E+03	2.686366E-03	2.062291E-05
3.513589E+03	2.689567E-03	2.064409E-05
3.515578E+03	2.686295E-03	2.061559E-05
3.517568E+03	2.685841E-03	2.060871E-05
3.519558E+03	2.689876E-03	2.063628E-05
3.521547E+03	2.691510E-03	2.064540E-05
3.523537E+03	2.691627E-03	2.064290E-05
3.525526E+03	2.695977E-03	2.067285E-05
3.527516E+03	2.691964E-03	2.063868E-05
3.529505E+03	2.678802E-03	2.053437E-05
3.531495E+03	2.673424E-03	2.048977E-05
3.533485E+03	2.666997E-03	2.043713E-05
3.535474E+03	2.681645E-03	2.054597E-05
3.537464E+03	2.711989E-03	2.077503E-05
3.539453E+03	2.737373E-03	2.096601E-05
3.541443E+03	2.752718E-03	2.108004E-05
3.543432E+03	2.765661E-03	2.117565E-05
3.545422E+03	2.776461E-03	2.125481E-05
3.547412E+03	2.779567E-03	2.127506E-05
3.549401E+03	2.775291E-03	2.123880E-05
3.551391E+03	2.758966E-03	2.111036E-05
3.553380E+03	2.769403E-03	2.118669E-05
3.555370E+03	2.789639E-03	2.133796E-05
3.557359E+03	2.797883E-03	2.139745E-05
3.559349E+03	2.812470E-03	2.150543E-05
3.561339E+03	2.814953E-03	2.152083E-05
3.563328E+03	2.806898E-03	2.145567E-05
3.565318E+03	2.807858E-03	2.145943E-05
3.567307E+03	2.817892E-03	2.153252E-05
3.569297E+03	2.820165E-03	2.154629E-05
3.571286E+03	2.825796E-03	2.158571E-05
3.573276E+03	2.827493E-03	2.159506E-05
3.575266E+03	2.812868E-03	2.147976E-05
3.577255E+03	2.795193E-03	2.134122E-05
3.579245E+03	2.786488E-03	2.127120E-05
3.581234E+03	2.793166E-03	2.131860E-05
3.583224E+03	2.799111E-03	2.136039E-05
3.585213E+03	2.800802E-03	2.136971E-05
3.587203E+03	2.801653E-03	2.137262E-05
3.589193E+03	2.796251E-03	2.132782E-05
3.591182E+03	2.791057E-03	2.128463E-05
3.593172E+03	2.803785E-03	2.137810E-05
3.595161E+03	2.820671E-03	2.150323E-05
3.597151E+03	2.835090E-03	2.160952E-05
3.599141E+03	2.857509E-03	2.177674E-05
3.601130E+03	2.861420E-03	2.180286E-05
3.603120E+03	2.864278E-03	2.182097E-05
3.605109E+03	2.881451E-03	2.194809E-05
3.607099E+03	2.888735E-03	2.199986E-05
3.609088E+03	2.886704E-03	2.198068E-05
3.611078E+03	2.879145E-03	2.191942E-05
3.613068E+03	2.872214E-03	2.186296E-05
3.615057E+03	2.876078E-03	2.188867E-05
3.617047E+03	2.880995E-03	2.192238E-05
3.619036E+03	2.884387E-03	2.194448E-05
3.621026E+03	2.875450E-03	2.187278E-05
3.623015E+03	2.877366E-03	2.188364E-05
3.625005E+03	2.883236E-03	2.192457E-05
3.626995E+03	2.890689E-03	2.197752E-05
3.628984E+03	2.878741E-03	2.188296E-05
3.630974E+03	2.872220E-03	2.182969E-05
3.632963E+03	2.869021E-03	2.180167E-05
3.634953E+03	2.861177E-03	2.173837E-05
3.636942E+03	2.858925E-03	2.171756E-05
3.638932E+03	2.855932E-03	2.169114E-05
3.640922E+03	2.840693E-03	2.157173E-05
3.642911E+03	2.829883E-03	2.148598E-05
3.644901E+03	2.822133E-03	2.142348E-05
3.646890E+03	2.806352E-03	2.130005E-05
3.648880E+03	2.794633E-03	2.120749E-05
3.650869E+03	2.775461E-03	2.105841E-05
3.652859E+03	2.764156E-03	2.096905E-05
3.654849E+03	2.754485E-03	2.089212E-05
3.656838E+03	2.731544E-03	2.071458E-05
3.658828E+03	2.710287E-03	2.054986E-05
3.660817E+03	2.684582E-03	2.035148E-05
3.662807E+03	2.654055E-03	2.011662E-05
3.664796E+03	2.618018E-03	1.984007E-05
3.666786E+03	2.581122E-03	1.955711E-05
3.668776E+03	2.561620E-03	1.940602E-05
3.670765E+03	2.536555E-03	1.921285E-05
3.672755E+03	2.514182E-03	1.904012E-05
3.674744E+03	2.492171E-03	1.887019E-05
3.676734E+03	2.464488E-03	1.865737E-05
3.678723E+03	2.450617E-03	1.854917E-05
3.680713E+03	2.435735E-03	1.843336E-05
3.682703E+03	2.418728E-03	1.830151E-05
3.684692E+03	2.406644E-03	1.820694E-05
3.686682E+03	2.392436E-03	1.809634E-05
3.688671E+03	2.375361E-03	1.796409E-05
3.690661E+03	2.349163E-03	1.776290E-05
3.692651E+03	2.317229E-03	1.751843E-05
3.694640E+03	2.294300E-03	1.734209E-05
3.696630E+03	2.279850E-03	1.722989E-05
3.698619E+03	2.259293E-03	1.707159E-05
3.700609E+03	2.242444E-03	1.694135E-05
3.702598E+03	2.232754E-03	1.686523E-05
3.704588E+03	2.229004E-03	1.683400E-05
3.706578E+03	2.224670E-03	1.679836E-05
3.708567E+03	2.221503E-03	1.677154E-05
3.710557E+03	2.211590E-03	1.669382E-05
3.712546E+03	2.197372E-03	1.658363E-05
3.714536E+03	2.189844E-03	1.652395E-05
3.716525E+03	2.194001E-03	1.655245E-05
3.718515E+03	2.194440E-03	1.655289E-05
3.720505E+03	2.194934E-03	1.655375E-05
3.722494E+03	2.205634E-03	1.663156E-05
3.724484E+03	2.211978E-03	1.667650E-05
3.726473E+03	2.206892E-03	1.663527E-05
3.728463E+03	2.211431E-03	1.666659E-05
3.730452E+03	2.232570E-03	1.682298E-05
3.732442E+03	2.246161E-03	1.692245E-05
3.734432E+03	2.260609E-03	1.702834E-05
3.736421E+03	2.273785E-03	1.712461E-05
3.738411E+03	2.302776E-03	1.733994E-05
3.740400E+03	2.333376E-03	1.756730E-05
3.742390E+03	2.353284E-03	1.771409E-05
3.744379E+03	2.378418E-03	1.790017E-05
3.746369E+03	2.408729E-03	1.812513E-05
3.748359E+03	2.437453E-03	1.833808E-05
3.750348E+03	2.466188E-03	1.855103E-05
3.752338E+03	2.502183E-03	1.881850E-05
3.754327E+03	2.539630E-03	1.909680E-05
3.756317E+03	2.564774E-03	1.928251E-05
3.758306E+03	2.599101E-03	1.953717E-05
3.760296E+03	2.631466E-03	1.977700E-05
3.762286E+03	2.664058E-03	2.001844E-05
3.764275E+03	2.693833E-03	2.023865E-05
3.766265E+03	2.724368E-03	2.046447E-05
3.768254E+03	2.756461E-03	2.070192E-05
3.770244E+03	2.788781E-03	2.094098E-05
3.772233E+03	2.828801E-03	2.123778E-05
3.774223E+03	2.866007E-03	2.151334E-05
3.776213E+03	2.904829E-03	2.180093E-05
3.778202E+03	2.946070E-03	2.210657E-05
3.780192E+03	2.990533E-03	2.243627E-05
3.782181E+03	3.035226E-03	2.276759E-05
3.784171E+03	3.082770E-03	2.312016E-05
3.786161E+03	3.131508E-03	2.348156E-05
3.788150E+03	3.176628E-03	2.381571E-05
3.790140E+03	3.224065E-03	2.416711E-05
3.792129E+03	3.284627E-03	2.461674E-05
3.794119E+03	3.344622E-03	2.506197E-05
3.796108E+03	3.394635E-03	2.543225E-05
3.798098E+03	3.447771E-03	2.582580E-05
3.800088E+03	3.502531E-03	2.623137E-05
3.802077E+03	3.565347E-03	2.669711E-05
3.804067E+03	3.637449E-03	2.723221E-05
3.806056E+03	3.706366E-03	2.774327E-05
3.808046E+03	3.779059E-03	2.828242E-05
3.810035E+03	3.856176E-03	2.885447E-05
3.812025E+03	3.920888E-03	2.933352E-05
3.814015E+03	3.987285E-03	2.982500E-05
3.816004E+03	4.049581E-03	3.028563E-05
3.817994E+03	4.112865E-03	3.075348E-05
3.819983E+03	4.188457E-03	3.131318E-05
3.821973E+03	4.268208E-03	3.190377E-05
3.823962E+03	4.336991E-03	3.241218E-05
3.825952E+03	4.407679E-03	3.293464E-05
3.827942E+03	4.476892E-03	3.344589E-05
3.829931E+03	4.552949E-03	3.400808E-05
3.831921E+03	4.617492E-03	3.448409E-05
3.833910E+03	4.676689E-03	3.492000E-05
3.835900E+03	4.745959E-03	3.543095E-05
3.837889E+03	4.818368E-03	3.596515E-05
3.839879E+03	4.883283E-03	3.644324E-05
3.841869E+03	4.951555E-03	3.694619E-05
3.843858E+03	5.017757E-03	3.743353E-05
3.845848E+03	5.082323E-03	3.790848E-05
3.847837E+03	5.151483E-03	3.841753E-05
3.849827E+03	5.214806E-03	3.888287E-05
3.851816E+03	5.281816E-03	3.937552E-05
3.853806E+03	5.346374E-03	3.984972E-05
3.855796E+03	5.402834E-03	4.026341E-05
3.857785E+03	5.459318E-03	4.067712E-05
3.859775E+03	5.514746E-03	4.108281E-05
3.861764E+03	5.568042E-03	4.147249E-05
3.863754E+03	5.615974E-03	4.182206E-05
3.865744E+03	5.670389E-03	4.221979E-05
3.867733E+03	5.732910E-03	4.267771E-05
3.869723E+03	5.793841E-03	4.312363E-05
3.871712E+03	5.859107E-03	4.360165E-05
3.873702E+03	5.930331E-03	4.412382E-05
3.875691E+03	5.999966E-03	4.463399E-05
3.877681E+03	6.065855E-03	4.511612E-05
3.879671E+03	6.123677E-03	4.553807E-05
3.881660E+03	6.184223E-03	4.598013E-05
3.883650E+03	6.239936E-03	4.638609E-05
3.885639E+03	6.292433E-03	4.676801E-05
3.887629E+03	6.347651E-03	4.717001E-05
3.889618E+03	6.394255E-03	4.750785E-05
3.891608E+03	6.440335E-03	4.784169E-05
3.893598E+03	6.483195E-03	4.815148E-05
3.895587E+03	6.523914E-03	4.844527E-05
3.897577E+03	6.565190E-03	4.874308E-05
3.899566E+03	6.610805E-03	4.907299E-05
3.901556E+03	6.651575E-03	4.936682E-05
3.903545E+03	6.689121E-03	4.963661E-05
3.905535E+03	6.725057E-03	4.989437E-05
3.907525E+03	6.753977E-03	5.009998E-05
3.909514E+03	6.776418E-03	5.025747E-05
3.911504E+03	6.801577E-03	5.043505E-05
3.913493E+03	6.821875E-03	5.057653E-05
3.915483E+03	6.837310E-03	5.068190E-05
3.917472E+03	6.848419E-03	5.075517E-05
3.919462E+03	6.862242E-03	5.084853E-05
3.921452E+03	6.876073E-03	5.094190E-05
3.923441E+03	6.881786E-03	5.097511E-05
3.925431E+03	6.885874E-03	5.099627E-05
3.927420E+03	6.894845E-03	5.105357E-05
3.929410E+03	6.904360E-03	5.111488E-05
3.931399E+03	6.909002E-03	5.114009E-05
3.933389E+03	6.919072E-03	5.120546E-05
3.935379E+03	6.930230E-03	5.127886E-05
3.937368E+03	6.940851E-03	5.134825E-05
3.939358E+03	6.950393E-03	5.140963E-05
3.941347E+03	6.956685E-03	5.144696E-05
3.943337E+03	6.965151E-03	5.150033E-05
3.945326E+03	6.960588E-03	5.145737E-05
3.947316E+03	6.951137E-03	5.137830E-05
3.949306E+03	6.943858E-03	5.131530E-05
3.951295E+03	6.937119E-03	5.125631E-05
3.953285E+03	6.925488E-03	5.116120E-05
3.955274E+03	6.908420E-03	5.102596E-05
3.957264E+03	6.891889E-03	5.089473E-05
3.959254E+03	6.876438E-03	5.077152E-05
3.961243E+03	6.857720E-03	5.062424E-05
3.963233E+03	6.833556E-03	5.043681E-05
3.965222E+03	6.805029E-03	5.021725E-05
3.967212E+03	6.774315E-03	4.998163E-05
3.969201E+03	6.746313E-03	4.976609E-05
3.971191E+03	6.722654E-03	4.958266E-05
3.973181E+03	6.698443E-03	4.939523E-05
3.975170E+03	6.668231E-03	4.916361E-05
3.977160E+03	6.634194E-03	4.890388E-05
3.979149E+03	6.594148E-03	4.859996E-05
3.981139E+03	6.557359E-03	4.832014E-05
3.983128E+03	6.525462E-03	4.807646E-05
3.985118E+03	6.489193E-03	4.780066E-05
3.987108E+03	6.452361E-03	4.752081E-05
3.989097E+03	6.423697E-03	4.730121E-05
3.991087E+03	6.401569E-03	4.712980E-05
3.993076E+03	6.366884E-03	4.686602E-05
3.995066E+03	6.327273E-03	4.656607E-05
3.997055E+03	6.296923E-03	4.633439E-05
3.999045E+03	6.273664E-03	4.615495E-05
4.001035E+03	6.252032E-03	4.598754E-05
4.003024E+03	6.232032E-03	4.583218E-05
4.005014E+03	6.212022E-03	4.567682E-05
4.007003E+03	6.193645E-03	4.553350E-05
4.008993E+03	6.174167E-03	4.538215E-05
4.010982E+03	6.157965E-03	4.525492E-05
4.012972E+03	6.150502E-03	4.519195E-05
4.014962E+03	6.137571E-03	4.508883E-05
4.016951E+03	6.124634E-03	4.498570E-05
4.018941E+03	6.114426E-03	4.490265E-05
4.020930E+03	6.093271E-03	4.473924E-05
4.022920E+03	6.066635E-03	4.453566E-05
4.024909E+03	6.045459E-03	4.437223E-05
4.026899E+03	6.020992E-03	4.418470E-05
4.028889E+03	5.994872E-03	4.398511E-05
4.030878E+03	5.967099E-03	4.377346E-05
4.032868E+03	5.943700E-03	4.359397E-05
4.034857E+03	5.921932E-03	4.342650E-05
4.036847E+03	5.895225E-03	4.322288E-05
4.038836E+03	5.863572E-03	4.298307E-05
4.040826E+03	5.833548E-03	4.275529E-05
4.042816E+03	5.799675E-03	4.249939E-05
4.044805E+03	5.764692E-03	4.223544E-05
4.046795E+03	5.728046E-03	4.195940E-05
4.048784E+03	5.691933E-03	4.168736E-05
4.050774E+03	5.654162E-03	4.140329E-05
4.052764E+03	5.610881E-03	4.107897E-05
4.054753E+03	5.565933E-03	4.074256E-05
4.056743E+03	5.518223E-03	4.038606E-05
4.058732E+03	5.469779E-03	4.002431E-05
4.060722E+03	5.425490E-03	3.969310E-05
4.062711E+03	5.384151E-03	3.938358E-05
4.064701E+03	5.350767E-03	3.913235E-05
4.066691E+03	5.317315E-03	3.888071E-05
4.068680E+03	5.282091E-03	3.861620E-05
4.070670E+03	5.243437E-03	3.832672E-05
4.072659E+03	5.208731E-03	3.806619E-05
4.074649E+03	5.174287E-03	3.780767E-05
4.076638E+03	5.140981E-03	3.755756E-05
4.078628E+03	5.108268E-03	3.731187E-05
4.080618E+03	5.078957E-03	3.709111E-05
4.082607E+03	5.045780E-03	3.684220E-05
4.084597E+03	5.017212E-03	3.662702E-05
4.086586E+03	4.988692E-03	3.641227E-05
4.088576E+03	4.959879E-03	3.619547E-05
4.090565E+03	4.931832E-03	3.598432E-05
4.092555E+03	4.899578E-03	3.574256E-05
4.094545E+03	4.871394E-03	3.553058E-05
4.096534E+03	4.846232E-03	3.534071E-05
4.098524E+03	4.823873E-03	3.517134E-05
4.100513E+03	4.797915E-03	3.497580E-05
4.102503E+03	4.772115E-03	3.478147E-05
4.104492E+03	4.747020E-03	3.459235E-05
4.106482E+03	4.725118E-03	3.442657E-05
4.108472E+03	4.710831E-03	3.431632E-05
4.110461E+03	4.695651E-03	3.419960E-05
4.112451E+03	4.674995E-03	3.404304E-05
4.114440E+03	4.661905E-03	3.394163E-05
4.116430E+03	4.651020E-03	3.385631E-05
4.118419E+03	4.645273E-03	3.380841E-05
4.120409E+03	4.644665E-03	3.379792E-05
4.122399E+03	4.637975E-03	3.374319E-05
4.124388E+03	4.628069E-03	3.366508E-05
4.126378E+03	4.626352E-03	3.364656E-05
4.128367E+03	4.628843E-03	3.365864E-05
4.130357E+03	4.633992E-03	3.369004E-05
4.132347E+03	4.641467E-03	3.373834E-05
4.134336E+03	4.646564E-03	3.376934E-05
4.136326E+03	4.654933E-03	3.382410E-05
4.138315E+03	4.665081E-03	3.389176E-05
4.140305E+03	4.669966E-03	3.392118E-05
4.142294E+03	4.673798E-03	3.394294E-05
4.144284E+03	4.680737E-03	3.398724E-05
4.146274E+03	4.691618E-03	3.406015E-05
4.148263E+03	4.700672E-03	3.411978E-05
4.150253E+03	4.712783E-03	3.420156E-05
4.152242E+03	4.722790E-03	3.426806E-05
4.154232E+03	4.729526E-03	3.431080E-05
4.156221E+03	4.742369E-03	3.439782E-05
4.158211E+03	4.755167E-03	3.448448E-05
4.160201E+03	4.765411E-03	3.455260E-05
4.162190E+03	4.772715E-03	3.459937E-05
4.164180E+03	4.777301E-03	3.462643E-05
4.166169E+03	4.788667E-03	3.470261E-05
4.168159E+03	4.797484E-03	3.476030E-05
4.170148E+03	4.803912E-03	3.480066E-05
4.172138E+03	4.811007E-03	3.484584E-05
4.174128E+03	4.810652E-03	3.483705E-05
4.176117E+03	4.809239E-03	3.482060E-05
4.178107E+03	4.808994E-03	3.481262E-05
4.180096E+03	4.810196E-03	3.481511E-05
4.182086E+03	4.808392E-03	3.479585E-05
4.184075E+03	4.801407E-03	3.473912E-05
4.186065E+03	4.800490E-03	3.472630E-05
4.188055E+03	4.797735E-03	3.470018E-05
4.190044E+03	4.787897E-03	3.462286E-05
4.192034E+03	4.779453E-03	3.455565E-05
4.194023E+03	4.779809E-03	3.455208E-05
4.196013E+03	4.777492E-03	3.452918E-05
4.198002E+03	4.774948E-03	3.450466E-05
4.199992E+03	4.775473E-03	3.450232E-05
4.201982E+03	4.776442E-03	3.450319E-05
4.203971E+03	4.782157E-03	3.453833E-05
4.205961E+03	4.788992E-03	3.458155E-05
4.207950E+03	4.792364E-03	3.459976E-05
4.209940E+03	4.796409E-03	3.462281E-05
4.211929E+03	4.793469E-03	3.459545E-05
4.213919E+03	4.791426E-03	3.457457E-05
4.215909E+03	4.794184E-03	3.458834E-05
4.217898E+03	4.799180E-03	3.461824E-05
4.219888E+03	4.804963E-03	3.465382E-05
4.221877E+03	4.807782E-03	3.466800E-05
4.223867E+03	4.812000E-03	3.469228E-05
4.225857E+03	4.813252E-03	3.469516E-05
4.227846E+03	4.820439E-03	3.474081E-05
4.229836E+03	4.828969E-03	3.479613E-05
4.231825E+03	4.837558E-03	3.485186E-05
4.233815E+03	4.845368E-03	3.490196E-05
4.235804E+03	4.853682E-03	3.495567E-05
4.237794E+03	4.862899E-03	3.501586E-05
4.239784E+03	4.871331E-03	3.507038E-05
4.241773E+03	4.882346E-03	3.514348E-05
4.243763E+03	4.899586E-03	3.526135E-05
4.245752E+03	4.914366E-03	3.536149E-05
4.247742E+03	4.930163E-03	3.546890E-05
4.249731E+03	4.941363E-03	3.554321E-05
4.251721E+03	4.952850E-03	3.561956E-05
4.253711E+03	4.963389E-03	3.568907E-05
4.255700E+03	4.972413E-03	3.574767E-05
4.257690E+03	4.984190E-03	3.582603E-05
4.259679E+03	4.993333E-03	3.588544E-05
4.261669E+03	5.002483E-03	3.594488E-05
4.263658E+03	5.010171E-03	3.599380E-05
4.265648E+03	5.007749E-03	3.597008E-05
4.267638E+03	5.004482E-03	3.594031E-05
4.269627E+03	5.006105E-03	3.594566E-05
4.271617E+03	5.009019E-03	3.596028E-05
4.273606E+03	5.009682E-03	3.595873E-05
4.275596E+03	5.010799E-03	3.596045E-05
4.277585E+03	5.012923E-03	3.596940E-05
4.279575E+03	5.012012E-03	3.595657E-05
4.281565E+03	5.007104E-03	3.591507E-05
4.283554E+03	5.003937E-03	3.588608E-05
4.285544E+03	4.997054E-03	3.583045E-05
4.287533E+03	4.987402E-03	3.575501E-05
4.289523E+03	4.969865E-03	3.562306E-05
