#wls	flux	fluxerr
1.591660E+03	3.643569E-04	7.652458E-06
1.631451E+03	3.687449E-04	7.743888E-06
1.671243E+03	3.722059E-04	7.815816E-06
1.711034E+03	3.747972E-04	7.869449E-06
1.750826E+03	3.763591E-04	7.901438E-06
1.790617E+03	3.766484E-04	7.906683E-06
1.830409E+03	3.755401E-04	7.882570E-06
1.870200E+03	3.726247E-04	7.820514E-06
1.909992E+03	3.675650E-04	7.713448E-06
1.949783E+03	3.603911E-04	7.562024E-06
1.989575E+03	3.511692E-04	7.367643E-06
2.029366E+03	3.409666E-04	7.152713E-06
2.069158E+03	3.317289E-04	6.958053E-06
2.108949E+03	3.259605E-04	6.836180E-06
2.148741E+03	3.259575E-04	6.835214E-06
2.188532E+03	3.326112E-04	6.973797E-06
2.228324E+03	3.450322E-04	7.233222E-06
2.268115E+03	3.613713E-04	7.574676E-06
2.307907E+03	3.796143E-04	7.955906E-06
2.347698E+03	3.983373E-04	8.347053E-06
2.387490E+03	4.166628E-04	8.729723E-06
2.427281E+03	4.341215E-04	9.094085E-06
2.467073E+03	4.506341E-04	9.438480E-06
2.506864E+03	4.661698E-04	9.762269E-06
2.546656E+03	4.808236E-04	1.006745E-05
2.586447E+03	4.947757E-04	1.035779E-05
2.626239E+03	5.081656E-04	1.063623E-05
2.666030E+03	5.210903E-04	1.090478E-05
2.705821E+03	5.338668E-04	1.117010E-05
2.745613E+03	5.466163E-04	1.143470E-05
2.785404E+03	5.596871E-04	1.170587E-05
2.825196E+03	5.731989E-04	1.198611E-05
2.864987E+03	5.874579E-04	1.228181E-05
2.904779E+03	6.026123E-04	1.259605E-05
2.944570E+03	6.190020E-04	1.293591E-05
2.984362E+03	6.370054E-04	1.330929E-05
2.994310E+03	6.418583E-04	1.340996E-05
3.004258E+03	6.467938E-04	1.351233E-05
3.014206E+03	6.519138E-04	1.361855E-05
3.024153E+03	6.571849E-04	1.372791E-05
3.034101E+03	6.626395E-04	1.384108E-05
3.044049E+03	6.683594E-04	1.395978E-05
3.053997E+03	6.742961E-04	1.408299E-05
3.063945E+03	6.804963E-04	1.421168E-05
3.073893E+03	6.869133E-04	1.434488E-05
3.083841E+03	6.935953E-04	1.448360E-05
3.093789E+03	7.005436E-04	1.462786E-05
3.103736E+03	7.077594E-04	1.477768E-05
3.113684E+03	7.152452E-04	1.493312E-05
3.123632E+03	7.229553E-04	1.509322E-05
3.133580E+03	7.309870E-04	1.526001E-05
3.143528E+03	7.392956E-04	1.543255E-05
3.153476E+03	7.478831E-04	1.561089E-05
3.163424E+03	7.567996E-04	1.579607E-05
3.173372E+03	7.659998E-04	1.598715E-05
3.183319E+03	7.755332E-04	1.618515E-05
3.193267E+03	7.854016E-04	1.639012E-05
3.203215E+03	7.956066E-04	1.660208E-05
3.213163E+03	8.061006E-04	1.682004E-05
3.223111E+03	8.169812E-04	1.704604E-05
3.233059E+03	8.282480E-04	1.728006E-05
3.243007E+03	8.398521E-04	1.752108E-05
3.252955E+03	8.518411E-04	1.777010E-05
3.262902E+03	8.641632E-04	1.802603E-05
3.272850E+03	8.769145E-04	1.829087E-05
3.282798E+03	8.900428E-04	1.856354E-05
3.292746E+03	9.035928E-04	1.884496E-05
3.302694E+03	9.175104E-04	1.913401E-05
3.312642E+03	9.318900E-04	1.943265E-05
3.322590E+03	9.466755E-04	1.973971E-05
3.332538E+03	9.618605E-04	2.005506E-05
3.342485E+03	9.775395E-04	2.038066E-05
3.352433E+03	9.936549E-04	2.071530E-05
3.362381E+03	1.010200E-03	2.105885E-05
3.372329E+03	1.027271E-03	2.141332E-05
3.382277E+03	1.044810E-03	2.177750E-05
3.392225E+03	1.062813E-03	2.215129E-05
3.402173E+03	1.081433E-03	2.253786E-05
3.412120E+03	1.100563E-03	2.293503E-05
3.422068E+03	1.120310E-03	2.334497E-05
3.432016E+03	1.140622E-03	2.376665E-05
3.441964E+03	1.161667E-03	2.420351E-05
3.451912E+03	1.183400E-03	2.465466E-05
3.461860E+03	1.205942E-03	2.512259E-05
3.471808E+03	1.229259E-03	2.560658E-05
3.481756E+03	1.253535E-03	2.611048E-05
3.491703E+03	1.278744E-03	2.663375E-05
3.501651E+03	1.305030E-03	2.717936E-05
3.511599E+03	1.332434E-03	2.774815E-05
3.521547E+03	1.361055E-03	2.834222E-05
3.531495E+03	1.390892E-03	2.896151E-05
3.541443E+03	1.422058E-03	2.960837E-05
3.551391E+03	1.454562E-03	3.028299E-05
3.561339E+03	1.488418E-03	3.098564E-05
3.571286E+03	1.523756E-03	3.171905E-05
3.581234E+03	1.560546E-03	3.248256E-05
3.591182E+03	1.598871E-03	3.327790E-05
3.601130E+03	1.638764E-03	3.410574E-05
3.611078E+03	1.680315E-03	3.496797E-05
3.621026E+03	1.723561E-03	3.586533E-05
3.630974E+03	1.768598E-03	3.679981E-05
3.640922E+03	1.815402E-03	3.777091E-05
3.650869E+03	1.864185E-03	3.878302E-05
3.660817E+03	1.914857E-03	3.983429E-05
3.670765E+03	1.967564E-03	4.092770E-05
3.680713E+03	2.022260E-03	4.206232E-05
3.690661E+03	2.079072E-03	4.324077E-05
3.700609E+03	2.137995E-03	4.446291E-05
3.710557E+03	2.198942E-03	4.572696E-05
3.720505E+03	2.262058E-03	4.703589E-05
3.730452E+03	2.327278E-03	4.838838E-05
3.740400E+03	2.394450E-03	4.978123E-05
3.750348E+03	2.463517E-03	5.121324E-05
3.760296E+03	2.534456E-03	5.268391E-05
3.770244E+03	2.607012E-03	5.418798E-05
3.780192E+03	2.681091E-03	5.572346E-05
3.790140E+03	2.756358E-03	5.728336E-05
3.800088E+03	2.832635E-03	5.886399E-05
3.810035E+03	2.909567E-03	6.045797E-05
3.819983E+03	2.986754E-03	6.205698E-05
3.829931E+03	3.063824E-03	6.365328E-05
3.839879E+03	3.140368E-03	6.523841E-05
3.849827E+03	3.215946E-03	6.680319E-05
3.859775E+03	3.289950E-03	6.833501E-05
3.869723E+03	3.361969E-03	6.982534E-05
3.879671E+03	3.431444E-03	7.126258E-05
3.889618E+03	3.497884E-03	7.263657E-05
3.899566E+03	3.560828E-03	7.393770E-05
3.909514E+03	3.619679E-03	7.515364E-05
3.919462E+03	3.674102E-03	7.627741E-05
3.929410E+03	3.723663E-03	7.730007E-05
3.939358E+03	3.767984E-03	7.821377E-05
3.949306E+03	3.806975E-03	7.901666E-05
3.959254E+03	3.840242E-03	7.970062E-05
3.969201E+03	3.867699E-03	8.026385E-05
3.979149E+03	3.889399E-03	8.070754E-05
3.989097E+03	3.905336E-03	8.103152E-05
3.999045E+03	3.915519E-03	8.123608E-05
4.008993E+03	3.920310E-03	8.132872E-05
4.018941E+03	3.919935E-03	8.131415E-05
4.028889E+03	3.914627E-03	8.119725E-05
4.038836E+03	3.904947E-03	8.098968E-05
4.048784E+03	3.891247E-03	8.069876E-05
4.058732E+03	3.874051E-03	8.033534E-05
4.068680E+03	3.853837E-03	7.990942E-05
4.078628E+03	3.831235E-03	7.943403E-05
4.088576E+03	3.806753E-03	7.891972E-05
4.098524E+03	3.780889E-03	7.837685E-05
4.108472E+03	3.754246E-03	7.781788E-05
4.118419E+03	3.727234E-03	7.725135E-05
4.128367E+03	3.700461E-03	7.668986E-05
4.138315E+03	3.674227E-03	7.613963E-05
4.148263E+03	3.649086E-03	7.561212E-05
4.158211E+03	3.625338E-03	7.511353E-05
4.168159E+03	3.603471E-03	7.465399E-05
4.178107E+03	3.583678E-03	7.423748E-05
4.188055E+03	3.566404E-03	7.387319E-05
4.198002E+03	3.551946E-03	7.356729E-05
4.207950E+03	3.540550E-03	7.332484E-05
4.217898E+03	3.532478E-03	7.315125E-05
4.227846E+03	3.527984E-03	7.305176E-05
4.237794E+03	3.527412E-03	7.303349E-05
4.247742E+03	3.530881E-03	7.309885E-05
4.257690E+03	3.538657E-03	7.325336E-05
4.267638E+03	3.550996E-03	7.350227E-05
4.277585E+03	3.568128E-03	7.385032E-05
4.287533E+03	3.590188E-03	7.430031E-05
4.297481E+03	3.617432E-03	7.485744E-05
4.307429E+03	3.650060E-03	7.552589E-05
4.317377E+03	3.688236E-03	7.630898E-05
4.327325E+03	3.732065E-03	7.720889E-05
4.337273E+03	3.781754E-03	7.822982E-05
4.347221E+03	3.837374E-03	7.937326E-05
4.357168E+03	3.898958E-03	8.063981E-05
4.367116E+03	3.966517E-03	8.202968E-05
4.377064E+03	4.039955E-03	8.354087E-05
4.387012E+03	4.119143E-03	8.517068E-05
4.396960E+03	4.203822E-03	8.691369E-05
4.406908E+03	4.293631E-03	8.876244E-05
4.416856E+03	4.387993E-03	9.070494E-05
4.426804E+03	4.486393E-03	9.273054E-05
4.436751E+03	4.587906E-03	9.482011E-05
4.446699E+03	4.691783E-03	9.695814E-05
4.456647E+03	4.796871E-03	9.912079E-05
4.466595E+03	4.902021E-03	1.012843E-04
4.476543E+03	5.006111E-03	1.034255E-04
4.486491E+03	5.107716E-03	1.055150E-04
4.496439E+03	5.205545E-03	1.075261E-04
4.506387E+03	5.298237E-03	1.094307E-04
4.516334E+03	5.384404E-03	1.112002E-04
4.526282E+03	5.462851E-03	1.128100E-04
4.536230E+03	5.532370E-03	1.142351E-04
4.546178E+03	5.592047E-03	1.154567E-04
4.556126E+03	5.641024E-03	1.164571E-04
4.566074E+03	5.678797E-03	1.172262E-04
4.576022E+03	5.705046E-03	1.177572E-04
4.585970E+03	5.719689E-03	1.180485E-04
4.595917E+03	5.722962E-03	1.181052E-04
4.605865E+03	5.715192E-03	1.179340E-04
4.615813E+03	5.697045E-03	1.175486E-04
4.625761E+03	5.669307E-03	1.169655E-04
4.635709E+03	5.632969E-03	1.162051E-04
4.645657E+03	5.589120E-03	1.152899E-04
4.655605E+03	5.538861E-03	1.142426E-04
4.665553E+03	5.483454E-03	1.130893E-04
4.675500E+03	5.424082E-03	1.118545E-04
4.685448E+03	5.361891E-03	1.105618E-04
4.695396E+03	5.298019E-03	1.092347E-04
4.705344E+03	5.233455E-03	1.078936E-04
4.715292E+03	5.169251E-03	1.065601E-04
4.725240E+03	5.106151E-03	1.052497E-04
4.735188E+03	5.044948E-03	1.039785E-04
4.745135E+03	4.986139E-03	1.027570E-04
4.755083E+03	4.930272E-03	1.015963E-04
4.765031E+03	4.877618E-03	1.005020E-04
4.774979E+03	4.828251E-03	9.947571E-05
4.784927E+03	4.782290E-03	9.851976E-05
4.794875E+03	4.739845E-03	9.763639E-05
4.804823E+03	4.700856E-03	9.682437E-05
4.814771E+03	4.665179E-03	9.608073E-05
4.824718E+03	4.632772E-03	9.540459E-05
4.834666E+03	4.603452E-03	9.479213E-05
4.844614E+03	4.577062E-03	9.424012E-05
4.854562E+03	4.553467E-03	9.374577E-05
4.864510E+03	4.532393E-03	9.330342E-05
4.874458E+03	4.513714E-03	9.291046E-05
4.884406E+03	4.497247E-03	9.256309E-05
4.894354E+03	4.482981E-03	9.226113E-05
4.904301E+03	4.470788E-03	9.200187E-05
4.914249E+03	4.460688E-03	9.178572E-05
4.924197E+03	4.452865E-03	9.161650E-05
4.934145E+03	4.447449E-03	9.149682E-05
4.944093E+03	4.444667E-03	9.143135E-05
4.954041E+03	4.444810E-03	9.142608E-05
4.963989E+03	4.448247E-03	9.148858E-05
4.973937E+03	4.455276E-03	9.162494E-05
4.983884E+03	4.466227E-03	9.184195E-05
4.993832E+03	4.481462E-03	9.214702E-05
5.003780E+03	4.501303E-03	9.254674E-05
5.013728E+03	4.525880E-03	9.304376E-05
5.023676E+03	4.555403E-03	9.364239E-05
5.033624E+03	4.589985E-03	9.434491E-05
5.043572E+03	4.629663E-03	9.515207E-05
5.053520E+03	4.674468E-03	9.606444E-05
5.063467E+03	4.724328E-03	9.708055E-05
5.073415E+03	4.779067E-03	9.819677E-05
5.083363E+03	4.838495E-03	9.940913E-05
5.093311E+03	4.902435E-03	1.007140E-04
5.103259E+03	4.970604E-03	1.021055E-04
5.113207E+03	5.042667E-03	1.035768E-04
5.123155E+03	5.118201E-03	1.051191E-04
5.133103E+03	5.196878E-03	1.067258E-04
5.143050E+03	5.278124E-03	1.083849E-04
5.152998E+03	5.361466E-03	1.100868E-04
5.162946E+03	5.446323E-03	1.118195E-04
5.172894E+03	5.532128E-03	1.135715E-04
5.182842E+03	5.618089E-03	1.153263E-04
5.192790E+03	5.703532E-03	1.170703E-04
5.202738E+03	5.787691E-03	1.187876E-04
5.212686E+03	5.869807E-03	1.204627E-04
5.222633E+03	5.948922E-03	1.220760E-04
5.232581E+03	6.024243E-03	1.236112E-04
5.242529E+03	6.094902E-03	1.250506E-04
5.252477E+03	6.160048E-03	1.263766E-04
5.262425E+03	6.218790E-03	1.275710E-04
5.272373E+03	6.270473E-03	1.286205E-04
5.282321E+03	6.314248E-03	1.295077E-04
5.292269E+03	6.349457E-03	1.302191E-04
5.302216E+03	6.375584E-03	1.307441E-04
5.312164E+03	6.392147E-03	1.310730E-04
5.322112E+03	6.398691E-03	1.311965E-04
5.332060E+03	6.394940E-03	1.311089E-04
5.342008E+03	6.380725E-03	1.308068E-04
5.351956E+03	6.356053E-03	1.302905E-04
5.361904E+03	6.320876E-03	1.295590E-04
5.371851E+03	6.275445E-03	1.286175E-04
5.381799E+03	6.220076E-03	1.274725E-04
5.391747E+03	6.155209E-03	1.261331E-04
5.401695E+03	6.081337E-03	1.246095E-04
5.411643E+03	5.999198E-03	1.229167E-04
5.421591E+03	5.909518E-03	1.210698E-04
5.431539E+03	5.813193E-03	1.190871E-04
5.441487E+03	5.711222E-03	1.169891E-04
5.451434E+03	5.604749E-03	1.147992E-04
5.461382E+03	5.494873E-03	1.125401E-04
5.471330E+03	5.382824E-03	1.102368E-04
5.481278E+03	5.269906E-03	1.079161E-04
5.491226E+03	5.157286E-03	1.056020E-04
5.501174E+03	5.046344E-03	1.033225E-04
5.511122E+03	4.938304E-03	1.011029E-04
5.521070E+03	4.834314E-03	9.896660E-05
5.531017E+03	4.735510E-03	9.693678E-05
5.540965E+03	4.643035E-03	9.503687E-05
5.550913E+03	4.557779E-03	9.328502E-05
5.560861E+03	4.480729E-03	9.170143E-05
5.570809E+03	4.412640E-03	9.030149E-05
5.580757E+03	4.354237E-03	8.909999E-05
5.590705E+03	4.306207E-03	8.811096E-05
5.600653E+03	4.269113E-03	8.734586E-05
5.610600E+03	4.243444E-03	8.681466E-05
5.620548E+03	4.229643E-03	8.652637E-05
5.630496E+03	4.228078E-03	8.648847E-05
5.640444E+03	4.239064E-03	8.670733E-05
5.650392E+03	4.262859E-03	8.718821E-05
5.660340E+03	4.299701E-03	8.793591E-05
5.670288E+03	4.349699E-03	8.895262E-05
5.680236E+03	4.412852E-03	9.023824E-05
5.690183E+03	4.489128E-03	9.179209E-05
5.700131E+03	4.578334E-03	9.361018E-05
5.710079E+03	4.680133E-03	9.568556E-05
5.720027E+03	4.794027E-03	9.800802E-05
5.729975E+03	4.919260E-03	1.005621E-04
5.739923E+03	5.055022E-03	1.033311E-04
5.749871E+03	5.200111E-03	1.062905E-04
5.759819E+03	5.353126E-03	1.094116E-04
5.769766E+03	5.512421E-03	1.126608E-04
5.779714E+03	5.676167E-03	1.160006E-04
5.789662E+03	5.842142E-03	1.193858E-04
5.799610E+03	6.008191E-03	1.227721E-04
5.809558E+03	6.171800E-03	1.261083E-04
5.819506E+03	6.330666E-03	1.293473E-04
5.829454E+03	6.482361E-03	1.324395E-04
5.839402E+03	6.624581E-03	1.353380E-04
5.849349E+03	6.755446E-03	1.380043E-04
5.859297E+03	6.873090E-03	1.404004E-04
5.869245E+03	6.976176E-03	1.424990E-04
5.879193E+03	7.063668E-03	1.442790E-04
5.889141E+03	7.134843E-03	1.457256E-04
5.899089E+03	7.189517E-03	1.468353E-04
5.909037E+03	7.227744E-03	1.476091E-04
5.918985E+03	7.249969E-03	1.480562E-04
5.928932E+03	7.257207E-03	1.481973E-04
5.938880E+03	7.250589E-03	1.480557E-04
5.948828E+03	7.231426E-03	1.476580E-04
5.958776E+03	7.201641E-03	1.470437E-04
5.968724E+03	7.162853E-03	1.462457E-04
5.978672E+03	7.117136E-03	1.453064E-04
5.988620E+03	7.066275E-03	1.442624E-04
5.998568E+03	7.012232E-03	1.431537E-04
6.008515E+03	6.956697E-03	1.420147E-04
6.018463E+03	6.901357E-03	1.408800E-04
6.028411E+03	6.847550E-03	1.397768E-04
6.038359E+03	6.796539E-03	1.387309E-04
6.048307E+03	6.749132E-03	1.377587E-04
6.058255E+03	6.706259E-03	1.368794E-04
6.068203E+03	6.668244E-03	1.360994E-04
6.078150E+03	6.635319E-03	1.354235E-04
6.088098E+03	6.607696E-03	1.348560E-04
6.098046E+03	6.585024E-03	1.343898E-04
6.107994E+03	6.567032E-03	1.340192E-04
6.117942E+03	6.553138E-03	1.337325E-04
6.127890E+03	6.542701E-03	1.335165E-04
6.137838E+03	6.534995E-03	1.333564E-04
6.147786E+03	6.529241E-03	1.332363E-04
6.157733E+03	6.524539E-03	1.331379E-04
6.167681E+03	6.520252E-03	1.330481E-04
6.177629E+03	6.515540E-03	1.329498E-04
6.187577E+03	6.509754E-03	1.328298E-04
6.197525E+03	6.502509E-03	1.326802E-04
6.207473E+03	6.493394E-03	1.324927E-04
6.217421E+03	6.482123E-03	1.322613E-04
6.227369E+03	6.468507E-03	1.319824E-04
6.237316E+03	6.452663E-03	1.316581E-04
6.247264E+03	6.434417E-03	1.312850E-04
6.257212E+03	6.414029E-03	1.308684E-04
6.267160E+03	6.391607E-03	1.304106E-04
6.277108E+03	6.367388E-03	1.299162E-04
6.287056E+03	6.341685E-03	1.293918E-04
6.297004E+03	6.314795E-03	1.288434E-04
6.306952E+03	6.287245E-03	1.282817E-04
6.316899E+03	6.259476E-03	1.277157E-04
6.326847E+03	6.232143E-03	1.271589E-04
6.336795E+03	6.205747E-03	1.266213E-04
6.346743E+03	6.181041E-03	1.261184E-04
6.356691E+03	6.158587E-03	1.256617E-04
6.366639E+03	6.139154E-03	1.252668E-04
6.376587E+03	6.123300E-03	1.249452E-04
6.386535E+03	6.111461E-03	1.247057E-04
6.396482E+03	6.103861E-03	1.245528E-04
6.406430E+03	6.100402E-03	1.244847E-04
6.416378E+03	6.100637E-03	1.244922E-04
6.426326E+03	6.103804E-03	1.245597E-04
6.436274E+03	6.108695E-03	1.246625E-04
6.446222E+03	6.114311E-03	1.247804E-04
6.456170E+03	6.119289E-03	1.248854E-04
6.466118E+03	6.122309E-03	1.249507E-04
6.476065E+03	6.122359E-03	1.249556E-04
6.486013E+03	6.118100E-03	1.248727E-04
6.495961E+03	6.108753E-03	1.246861E-04
6.505909E+03	6.093594E-03	1.243810E-04
6.515857E+03	6.072073E-03	1.239463E-04
6.525805E+03	6.043874E-03	1.233753E-04
6.535753E+03	6.008981E-03	1.226679E-04
6.545701E+03	5.967578E-03	1.218276E-04
6.555648E+03	5.919859E-03	1.208585E-04
6.565596E+03	5.866369E-03	1.197717E-04
6.575544E+03	5.807532E-03	1.185757E-04
6.585492E+03	5.743923E-03	1.172824E-04
6.595440E+03	5.676328E-03	1.159077E-04
6.605388E+03	5.605275E-03	1.144624E-04
6.615336E+03	5.531623E-03	1.129640E-04
6.625284E+03	5.456027E-03	1.114259E-04
6.635231E+03	5.379303E-03	1.098647E-04
6.645179E+03	5.302199E-03	1.082957E-04
6.655127E+03	5.225399E-03	1.067330E-04
6.665075E+03	5.149789E-03	1.051944E-04
6.675023E+03	5.075961E-03	1.036923E-04
6.684971E+03	5.004735E-03	1.022432E-04
6.694919E+03	4.936694E-03	1.008591E-04
6.704866E+03	4.872480E-03	9.955319E-05
6.714814E+03	4.812477E-03	9.833325E-05
6.724762E+03	4.757301E-03	9.721188E-05
6.734710E+03	4.707172E-03	9.619363E-05
6.744658E+03	4.662362E-03	9.528407E-05
6.754606E+03	4.623185E-03	9.448958E-05
6.764554E+03	4.589573E-03	9.380885E-05
6.774502E+03	4.561751E-03	9.324647E-05
6.784449E+03	4.539564E-03	9.279927E-05
6.794397E+03	4.523042E-03	9.246794E-05
6.804345E+03	4.511832E-03	9.224522E-05
6.814293E+03	4.505898E-03	9.213045E-05
6.824241E+03	4.504885E-03	9.211637E-05
6.834189E+03	4.508394E-03	9.219485E-05
6.844137E+03	4.516109E-03	9.235943E-05
6.854085E+03	4.527619E-03	9.260171E-05
6.864032E+03	4.542428E-03	9.291161E-05
6.873980E+03	4.560228E-03	9.328278E-05
6.883928E+03	4.580471E-03	9.370410E-05
6.893876E+03	4.602843E-03	9.416909E-05
6.903824E+03	4.626941E-03	9.466954E-05
6.913772E+03	4.652565E-03	9.520138E-05
6.923720E+03	4.679530E-03	9.576079E-05
6.933668E+03	4.707713E-03	9.634531E-05
6.943615E+03	4.737015E-03	9.695287E-05
6.953563E+03	4.767460E-03	9.758400E-05
6.963511E+03	4.799198E-03	9.824179E-05
6.973459E+03	4.832372E-03	9.892912E-05
6.983407E+03	4.867073E-03	9.964791E-05
6.993355E+03	4.903488E-03	1.004020E-04
7.003303E+03	4.941888E-03	1.011969E-04
7.013251E+03	4.982395E-03	1.020351E-04
7.023198E+03	5.025188E-03	1.029204E-04
7.033146E+03	5.070432E-03	1.038561E-04
7.043094E+03	5.118250E-03	1.048447E-04
7.053042E+03	5.168789E-03	1.058894E-04
7.062990E+03	5.221921E-03	1.069873E-04
7.072938E+03	5.277662E-03	1.081390E-04
7.082886E+03	5.335879E-03	1.093417E-04
7.092834E+03	5.396331E-03	1.105905E-04
7.102781E+03	5.458662E-03	1.118780E-04
7.112729E+03	5.522331E-03	1.131933E-04
7.122677E+03	5.586824E-03	1.145258E-04
7.132625E+03	5.651342E-03	1.158590E-04
7.142573E+03	5.715135E-03	1.171777E-04
7.152521E+03	5.777169E-03	1.184606E-04
7.162469E+03	5.836401E-03	1.196864E-04
7.172417E+03	5.891707E-03	1.208319E-04
7.182364E+03	5.942011E-03	1.218750E-04
7.192312E+03	5.985947E-03	1.227878E-04
7.202260E+03	6.022567E-03	1.235508E-04
7.212208E+03	6.050628E-03	1.241383E-04
7.222156E+03	6.069315E-03	1.245336E-04
7.232104E+03	6.077815E-03	1.247200E-04
7.242052E+03	6.075732E-03	1.246893E-04
7.252000E+03	6.062848E-03	1.244369E-04
7.261947E+03	6.039014E-03	1.239598E-04
7.271895E+03	6.004766E-03	1.232688E-04
7.281843E+03	5.960686E-03	1.223758E-04
7.291791E+03	5.907419E-03	1.212941E-04
7.301739E+03	5.846075E-03	1.200463E-04
7.311687E+03	5.777826E-03	1.186565E-04
7.321635E+03	5.703911E-03	1.171501E-04
7.331583E+03	5.625535E-03	1.155518E-04
7.341530E+03	5.544066E-03	1.138897E-04
7.351478E+03	5.460736E-03	1.121890E-04
7.361426E+03	5.376625E-03	1.104720E-04
7.371374E+03	5.292805E-03	1.087606E-04
7.381322E+03	5.210276E-03	1.070754E-04
7.391270E+03	5.129842E-03	1.054330E-04
7.401218E+03	5.052397E-03	1.038517E-04
7.411165E+03	4.978602E-03	1.023451E-04
7.421113E+03	4.909278E-03	1.009302E-04
7.431061E+03	4.844887E-03	9.961634E-05
7.441009E+03	4.786160E-03	9.841877E-05
7.450957E+03	4.733471E-03	9.734515E-05
7.460905E+03	4.687498E-03	9.640943E-05
7.470853E+03	4.648715E-03	9.562144E-05
7.480801E+03	4.617500E-03	9.498897E-05
7.490748E+03	4.594253E-03	9.452032E-05
7.500696E+03	4.579415E-03	9.422460E-05
7.510644E+03	4.573174E-03	9.410575E-05
7.520592E+03	4.575813E-03	9.416959E-05
7.530540E+03	4.587325E-03	9.441610E-05
7.540488E+03	4.607778E-03	9.484669E-05
7.550436E+03	4.636951E-03	9.545690E-05
7.560384E+03	4.674776E-03	9.624535E-05
7.570331E+03	4.720766E-03	9.720209E-05
7.580279E+03	4.774572E-03	9.831998E-05
7.590227E+03	4.835596E-03	9.958674E-05
7.600175E+03	4.903357E-03	1.009925E-04
7.610123E+03	4.976940E-03	1.025185E-04
7.620071E+03	5.055616E-03	1.041497E-04
7.630019E+03	5.138173E-03	1.058612E-04
7.639967E+03	5.223512E-03	1.076304E-04
7.649914E+03	5.310319E-03	1.094302E-04
7.659862E+03	5.397268E-03	1.112332E-04
7.669810E+03	5.482660E-03	1.130046E-04
7.679758E+03	5.565038E-03	1.147141E-04
7.689706E+03	5.642829E-03	1.163295E-04
7.699654E+03	5.714488E-03	1.178187E-04
7.709602E+03	5.778631E-03	1.191532E-04
7.719550E+03	5.833663E-03	1.203001E-04
