#wls	flux	fluxerr
1.591660E+03	3.635171E-04	7.919299E-06
1.631451E+03	3.676583E-04	8.001698E-06
1.671243E+03	3.709587E-04	8.065458E-06
1.711034E+03	3.732967E-04	8.107984E-06
1.750826E+03	3.746404E-04	8.128640E-06
1.790617E+03	3.747532E-04	8.122365E-06
1.830409E+03	3.733991E-04	8.084126E-06
1.870200E+03	3.703011E-04	8.008038E-06
1.909992E+03	3.651295E-04	7.887111E-06
1.949783E+03	3.578132E-04	7.719970E-06
1.989575E+03	3.485394E-04	7.510820E-06
2.029366E+03	3.382691E-04	7.280511E-06
2.069158E+03	3.289498E-04	7.070999E-06
2.108949E+03	3.230742E-04	6.935733E-06
2.148741E+03	3.230270E-04	6.925562E-06
2.188532E+03	3.295534E-04	7.055941E-06
2.228324E+03	3.418835E-04	7.309826E-06
2.268115E+03	3.581068E-04	7.645880E-06
2.307907E+03	3.762972E-04	8.022657E-06
2.347698E+03	3.949663E-04	8.408245E-06
2.387490E+03	4.133236E-04	8.785763E-06
2.427281E+03	4.308743E-04	9.144695E-06
2.467073E+03	4.475748E-04	9.484158E-06
2.506864E+03	4.634240E-04	9.804179E-06
2.546656E+03	4.785526E-04	1.010757E-05
2.586447E+03	4.931814E-04	1.039902E-05
2.626239E+03	5.073740E-04	1.067989E-05
2.666030E+03	5.214342E-04	1.095659E-05
2.705821E+03	5.355041E-04	1.123206E-05
2.745613E+03	5.499705E-04	1.151437E-05
2.785404E+03	5.650668E-04	1.180833E-05
2.825196E+03	5.811654E-04	1.212157E-05
2.864987E+03	5.983288E-04	1.245526E-05
2.904779E+03	6.168827E-04	1.281598E-05
2.944570E+03	6.369622E-04	1.320631E-05
2.984362E+03	6.591286E-04	1.363762E-05
2.994310E+03	6.650375E-04	1.375267E-05
3.004258E+03	6.710672E-04	1.387006E-05
3.014206E+03	6.773378E-04	1.399225E-05
3.024153E+03	6.837494E-04	1.411719E-05
3.034101E+03	6.903930E-04	1.424675E-05
3.044049E+03	6.973038E-04	1.438163E-05
3.053997E+03	7.044804E-04	1.452180E-05
3.063945E+03	7.118645E-04	1.466606E-05
3.073893E+03	7.195708E-04	1.481674E-05
3.083841E+03	7.275424E-04	1.497269E-05
3.093789E+03	7.357799E-04	1.513388E-05
3.103736E+03	7.442847E-04	1.530035E-05
3.113684E+03	7.531153E-04	1.547328E-05
3.123632E+03	7.621578E-04	1.565032E-05
3.133580E+03	7.715879E-04	1.583507E-05
3.143528E+03	7.812318E-04	1.602395E-05
3.153476E+03	7.912677E-04	1.622061E-05
3.163424E+03	8.015785E-04	1.642263E-05
3.173372E+03	8.121657E-04	1.663002E-05
3.183319E+03	8.231486E-04	1.684523E-05
3.193267E+03	8.344689E-04	1.706703E-05
3.203215E+03	8.461266E-04	1.729543E-05
3.213163E+03	8.581212E-04	1.753038E-05
3.223111E+03	8.704511E-04	1.777186E-05
3.233059E+03	8.831760E-04	1.802106E-05
3.243007E+03	8.962323E-04	1.827666E-05
3.252955E+03	9.097400E-04	1.854111E-05
3.262902E+03	9.235711E-04	1.881177E-05
3.272850E+03	9.378451E-04	1.909106E-05
3.282798E+03	9.524937E-04	1.937758E-05
3.292746E+03	9.675730E-04	1.967245E-05
3.302694E+03	9.830106E-04	1.997418E-05
3.312642E+03	9.989251E-04	2.028517E-05
3.322590E+03	1.015242E-03	2.060388E-05
3.332538E+03	1.031950E-03	2.093006E-05
3.342485E+03	1.049166E-03	2.126608E-05
3.352433E+03	1.066813E-03	2.161032E-05
3.362381E+03	1.084876E-03	2.196250E-05
3.372329E+03	1.103406E-03	2.232362E-05
3.382277E+03	1.122457E-03	2.269474E-05
3.392225E+03	1.142015E-03	2.307557E-05
3.402173E+03	1.162067E-03	2.346583E-05
3.412120E+03	1.182671E-03	2.386663E-05
3.422068E+03	1.203815E-03	2.427776E-05
3.432016E+03	1.225562E-03	2.470041E-05
3.441964E+03	1.247975E-03	2.513585E-05
3.451912E+03	1.270984E-03	2.558266E-05
3.461860E+03	1.294800E-03	2.604502E-05
3.471808E+03	1.319431E-03	2.652308E-05
3.481756E+03	1.344890E-03	2.701706E-05
3.491703E+03	1.371265E-03	2.752869E-05
3.501651E+03	1.398580E-03	2.805841E-05
3.511599E+03	1.427078E-03	2.861104E-05
3.521547E+03	1.456654E-03	2.918443E-05
3.531495E+03	1.487420E-03	2.978080E-05
3.541443E+03	1.519426E-03	3.040106E-05
3.551391E+03	1.552725E-03	3.104625E-05
3.561339E+03	1.587377E-03	3.171750E-05
3.571286E+03	1.623375E-03	3.241459E-05
3.581234E+03	1.660788E-03	3.313885E-05
3.591182E+03	1.699617E-03	3.389024E-05
3.601130E+03	1.740013E-03	3.467169E-05
3.611078E+03	1.781982E-03	3.548330E-05
3.621026E+03	1.825610E-03	3.632663E-05
3.630974E+03	1.870832E-03	3.720038E-05
3.640922E+03	1.917882E-03	3.810909E-05
3.650869E+03	1.966695E-03	3.905140E-05
3.660817E+03	2.017352E-03	4.002884E-05
3.668905E+03	2.480450E-03	4.918924E-05
3.671442E+03	2.469158E-03	4.895641E-05
3.673978E+03	2.453574E-03	4.863854E-05
3.676515E+03	2.448979E-03	4.853860E-05
3.679052E+03	2.463432E-03	4.881613E-05
3.681588E+03	2.468918E-03	4.891591E-05
3.684125E+03	2.486610E-03	4.925742E-05
3.686662E+03	2.475218E-03	4.902276E-05
3.689199E+03	2.473424E-03	4.897825E-05
3.691735E+03	2.453487E-03	4.857454E-05
3.694272E+03	2.392860E-03	4.736554E-05
3.696809E+03	2.349257E-03	4.649388E-05
3.699345E+03	2.315683E-03	4.582100E-05
3.701872E+03	2.310297E-03	4.570602E-05
3.704409E+03	2.327847E-03	4.604473E-05
3.706946E+03	2.345934E-03	4.639393E-05
3.709482E+03	2.351807E-03	4.650147E-05
3.712019E+03	2.346910E-03	4.639605E-05
3.714556E+03	2.336069E-03	4.617319E-05
3.717092E+03	2.346681E-03	4.637433E-05
3.719629E+03	2.375660E-03	4.693830E-05
3.722166E+03	2.383479E-03	4.708403E-05
3.724703E+03	2.375444E-03	4.691659E-05
3.727239E+03	2.389503E-03	4.718547E-05
3.729776E+03	2.383983E-03	4.706770E-05
3.732313E+03	2.391424E-03	4.720579E-05
3.734849E+03	2.395723E-03	4.728182E-05
3.737386E+03	2.381352E-03	4.698942E-05
3.739923E+03	2.410666E-03	4.755895E-05
3.742460E+03	2.447682E-03	4.828019E-05
3.744996E+03	2.504262E-03	4.938695E-05
3.747533E+03	2.493678E-03	4.916899E-05
3.750070E+03	2.483381E-03	4.895678E-05
3.752606E+03	2.523580E-03	4.973990E-05
3.755143E+03	2.533383E-03	4.992371E-05
3.757680E+03	2.559461E-03	5.042812E-05
3.760216E+03	2.564139E-03	5.051077E-05
3.762753E+03	2.560827E-03	5.043601E-05
3.765290E+03	2.547777E-03	5.016950E-05
3.767827E+03	2.572278E-03	5.064238E-05
3.770363E+03	2.593976E-03	5.105990E-05
3.772900E+03	2.621983E-03	5.160141E-05
3.775437E+03	2.581209E-03	5.078933E-05
3.777973E+03	2.619213E-03	5.152733E-05
3.780510E+03	2.662126E-03	5.236161E-05
3.783047E+03	2.660774E-03	5.232505E-05
3.785584E+03	2.687556E-03	5.284167E-05
3.788120E+03	2.715948E-03	5.338973E-05
3.790657E+03	2.743477E-03	5.392060E-05
3.793194E+03	2.805470E-03	5.512850E-05
3.795730E+03	2.816521E-03	5.533507E-05
3.798267E+03	2.861508E-03	5.620816E-05
3.800804E+03	2.898402E-03	5.692196E-05
3.803340E+03	2.957548E-03	5.807240E-05
3.805877E+03	2.997724E-03	5.884999E-05
3.808414E+03	3.033397E-03	5.953886E-05
3.810951E+03	3.067868E-03	6.020388E-05
3.813487E+03	3.095694E-03	6.073826E-05
3.816024E+03	3.133881E-03	6.147566E-05
3.818561E+03	3.157842E-03	6.193373E-05
3.821097E+03	3.214719E-03	6.303709E-05
3.823634E+03	3.272686E-03	6.416136E-05
3.826171E+03	3.284333E-03	6.437725E-05
3.828698E+03	3.325941E-03	6.518025E-05
3.831234E+03	3.354043E-03	6.571826E-05
3.833771E+03	3.367805E-03	6.597511E-05
3.836308E+03	3.480393E-03	6.816748E-05
3.838844E+03	3.521821E-03	6.896551E-05
3.841381E+03	3.556553E-03	6.963209E-05
3.843918E+03	3.596648E-03	7.040339E-05
3.846455E+03	3.653605E-03	7.150440E-05
3.848991E+03	3.702254E-03	7.244237E-05
3.851528E+03	3.766945E-03	7.369381E-05
3.854065E+03	3.773692E-03	7.381138E-05
3.856601E+03	3.803050E-03	7.437108E-05
3.859138E+03	3.851570E-03	7.530517E-05
3.861675E+03	3.906635E-03	7.636684E-05
3.864212E+03	3.935110E-03	7.690838E-05
3.866748E+03	3.946678E-03	7.711934E-05
3.869285E+03	3.987213E-03	7.789611E-05
3.871822E+03	4.044201E-03	7.899393E-05
3.874358E+03	4.099499E-03	8.005828E-05
3.876895E+03	4.173847E-03	8.149416E-05
3.879432E+03	4.209576E-03	8.217557E-05
3.881968E+03	4.249272E-03	8.293413E-05
3.884505E+03	4.275369E-03	8.342698E-05
3.887042E+03	4.314217E-03	8.416841E-05
3.889579E+03	4.346535E-03	8.478214E-05
3.892115E+03	4.349765E-03	8.482835E-05
3.894652E+03	4.388796E-03	8.557257E-05
3.897189E+03	4.395459E-03	8.568548E-05
3.899725E+03	4.438522E-03	8.650779E-05
3.902262E+03	4.450184E-03	8.671784E-05
3.904799E+03	4.444111E-03	8.658228E-05
3.907336E+03	4.445761E-03	8.659718E-05
3.909872E+03	4.454599E-03	8.675206E-05
3.912409E+03	4.442123E-03	8.649183E-05
3.914946E+03	4.436591E-03	8.636688E-05
3.917482E+03	4.434773E-03	8.631425E-05
3.920019E+03	4.434185E-03	8.628554E-05
3.922556E+03	4.418721E-03	8.596743E-05
3.925093E+03	4.425471E-03	8.608150E-05
3.927629E+03	4.424007E-03	8.603576E-05
3.930166E+03	4.418915E-03	8.591950E-05
3.932703E+03	4.436110E-03	8.623652E-05
3.935239E+03	4.429310E-03	8.608702E-05
3.937776E+03	4.447593E-03	8.642497E-05
3.940313E+03	4.480534E-03	8.704754E-05
3.942849E+03	4.496826E-03	8.734646E-05
3.945386E+03	4.506659E-03	8.751981E-05
3.947923E+03	4.544243E-03	8.823187E-05
3.950460E+03	4.562376E-03	8.856605E-05
3.952996E+03	4.553006E-03	8.836628E-05
3.955523E+03	4.588514E-03	8.903748E-05
3.958060E+03	4.597058E-03	8.918520E-05
3.960596E+03	4.612769E-03	8.947186E-05
3.963133E+03	4.614306E-03	8.948351E-05
3.965670E+03	4.623649E-03	8.964649E-05
3.968207E+03	4.627943E-03	8.971151E-05
3.970743E+03	4.646184E-03	9.004678E-05
3.973280E+03	4.647443E-03	9.005284E-05
3.975817E+03	4.641829E-03	8.992573E-05
3.978353E+03	4.657239E-03	9.020585E-05
3.980890E+03	4.665778E-03	9.035280E-05
3.983427E+03	4.672898E-03	9.047220E-05
3.985964E+03	4.692658E-03	9.083619E-05
3.988500E+03	4.723193E-03	9.140855E-05
3.991037E+03	4.733137E-03	9.158224E-05
3.993574E+03	4.712198E-03	9.115839E-05
3.996110E+03	4.730559E-03	9.149482E-05
3.998647E+03	4.732690E-03	9.151724E-05
4.001184E+03	4.741716E-03	9.167293E-05
4.003721E+03	4.732094E-03	9.146810E-05
4.006257E+03	4.727095E-03	9.135265E-05
4.008794E+03	4.737856E-03	9.154176E-05
4.011331E+03	4.721433E-03	9.120562E-05
4.013867E+03	4.725498E-03	9.126532E-05
4.016404E+03	4.723608E-03	9.120997E-05
4.018941E+03	4.729259E-03	9.130021E-05
4.021477E+03	4.703219E-03	9.077872E-05
4.024014E+03	4.678699E-03	9.028675E-05
4.026551E+03	4.648203E-03	8.967968E-05
4.029088E+03	4.626577E-03	8.924392E-05
4.031624E+03	4.626501E-03	8.922392E-05
4.034161E+03	4.637478E-03	8.941706E-05
4.036698E+03	4.618307E-03	8.902890E-05
4.039234E+03	4.591138E-03	8.848673E-05
4.041771E+03	4.558180E-03	8.783323E-05
4.044308E+03	4.542100E-03	8.750514E-05
4.046845E+03	4.494603E-03	8.657205E-05
4.049381E+03	4.438743E-03	8.547825E-05
4.051918E+03	4.398772E-03	8.469084E-05
4.054455E+03	4.358684E-03	8.390146E-05
4.056991E+03	4.309737E-03	8.294190E-05
4.059528E+03	4.278618E-03	8.232577E-05
4.062065E+03	4.201797E-03	8.083071E-05
4.064601E+03	4.161945E-03	8.004727E-05
4.067138E+03	4.133600E-03	7.948543E-05
4.069675E+03	4.136267E-03	7.952000E-05
4.072212E+03	4.121815E-03	7.922550E-05
4.074748E+03	4.126266E-03	7.929437E-05
4.077285E+03	4.074134E-03	7.827607E-05
4.079812E+03	4.074515E-03	7.826696E-05
4.082348E+03	4.052862E-03	7.783461E-05
4.084885E+03	4.034670E-03	7.746888E-05
4.087422E+03	3.999923E-03	7.678550E-05
4.089959E+03	3.978593E-03	7.635989E-05
4.092495E+03	3.971082E-03	7.619961E-05
4.095032E+03	3.944187E-03	7.566752E-05
4.097569E+03	3.947878E-03	7.572228E-05
4.100105E+03	3.935102E-03	7.546123E-05
4.102642E+03	3.933388E-03	7.541236E-05
4.105179E+03	3.945468E-03	7.562789E-05
4.107716E+03	3.936512E-03	7.544018E-05
4.110252E+03	3.934849E-03	7.539228E-05
4.112789E+03	3.913921E-03	7.497534E-05
4.115326E+03	3.901180E-03	7.471536E-05
4.117862E+03	3.899363E-03	7.466464E-05
4.120399E+03	3.903656E-03	7.473091E-05
4.122936E+03	3.902336E-03	7.468969E-05
4.125473E+03	3.876715E-03	7.418346E-05
4.128009E+03	3.869726E-03	7.403389E-05
4.130546E+03	3.887196E-03	7.435220E-05
4.133083E+03	3.882745E-03	7.425117E-05
4.135619E+03	3.908287E-03	7.472360E-05
4.138156E+03	3.914586E-03	7.482799E-05
4.140693E+03	3.930839E-03	7.512255E-05
4.143229E+03	3.941876E-03	7.531730E-05
4.145766E+03	3.957050E-03	7.559100E-05
4.148303E+03	3.967402E-03	7.577245E-05
4.150840E+03	3.961823E-03	7.564961E-05
4.153376E+03	3.987572E-03	7.612490E-05
4.155913E+03	3.988324E-03	7.612284E-05
4.158450E+03	4.006718E-03	7.645743E-05
4.160986E+03	4.015849E-03	7.661513E-05
4.163523E+03	4.025982E-03	7.679186E-05
4.166060E+03	4.035421E-03	7.695527E-05
4.168597E+03	4.050553E-03	7.722713E-05
4.171133E+03	4.027822E-03	7.677711E-05
4.173670E+03	4.027041E-03	7.674561E-05
4.176207E+03	4.063446E-03	7.742261E-05
4.178743E+03	4.066916E-03	7.747192E-05
4.181280E+03	4.070339E-03	7.752031E-05
4.183817E+03	4.069121E-03	7.748028E-05
4.186354E+03	4.051765E-03	7.713303E-05
4.188890E+03	4.017960E-03	7.647286E-05
4.191427E+03	4.008786E-03	7.628165E-05
4.193964E+03	4.010803E-03	7.630341E-05
4.196500E+03	3.987023E-03	7.583448E-05
4.199037E+03	3.985336E-03	7.578585E-05
4.201574E+03	3.998155E-03	7.601304E-05
4.204110E+03	4.008230E-03	7.618794E-05
4.206647E+03	4.013405E-03	7.626964E-05
4.209174E+03	4.014777E-03	7.627909E-05
4.211711E+03	4.028618E-03	7.652532E-05
4.214247E+03	4.009364E-03	7.614290E-05
4.216784E+03	4.005982E-03	7.606201E-05
4.219321E+03	3.992829E-03	7.579565E-05
4.221857E+03	3.989290E-03	7.571184E-05
4.224394E+03	3.970266E-03	7.533425E-05
4.226931E+03	3.960354E-03	7.512967E-05
4.229468E+03	3.965034E-03	7.520191E-05
4.232004E+03	3.951307E-03	7.492507E-05
4.234541E+03	3.936672E-03	7.463113E-05
4.237078E+03	3.901109E-03	7.394065E-05
4.239614E+03	3.888315E-03	7.368190E-05
4.242151E+03	3.878276E-03	7.347545E-05
4.244688E+03	3.863311E-03	7.317580E-05
4.247225E+03	3.855874E-03	7.301880E-05
4.249761E+03	3.864907E-03	7.317369E-05
4.252298E+03	3.856967E-03	7.300720E-05
4.254835E+03	3.845604E-03	7.277601E-05
4.257371E+03	3.854141E-03	7.292142E-05
4.259908E+03	3.843880E-03	7.271117E-05
4.262445E+03	3.846438E-03	7.274342E-05
4.264981E+03	3.826613E-03	7.235245E-05
4.267518E+03	3.833545E-03	7.246742E-05
4.270055E+03	3.830567E-03	7.239505E-05
4.272592E+03	3.822452E-03	7.222562E-05
4.275128E+03	3.797018E-03	7.172909E-05
4.277665E+03	3.798060E-03	7.173281E-05
4.280202E+03	3.760824E-03	7.101373E-05
4.282738E+03	3.759741E-03	7.097746E-05
4.285275E+03	3.756996E-03	7.090983E-05
4.287812E+03	3.764529E-03	7.103617E-05
4.290349E+03	3.767126E-03	7.106929E-05
4.292885E+03	3.770834E-03	7.112336E-05
4.295422E+03	3.784025E-03	7.135623E-05
4.297959E+03	3.779113E-03	7.124767E-05
4.300495E+03	3.754320E-03	7.076440E-05
4.303032E+03	3.743897E-03	7.055214E-05
4.305569E+03	3.739729E-03	7.045781E-05
4.308106E+03	3.712084E-03	6.992129E-05
4.310642E+03	3.690639E-03	6.950176E-05
4.313179E+03	3.705294E-03	6.976210E-05
4.315716E+03	3.704248E-03	6.972675E-05
4.318252E+03	3.702441E-03	6.967707E-05
4.320789E+03	3.696792E-03	6.955512E-05
4.323326E+03	3.682142E-03	6.926390E-05
4.325862E+03	3.685891E-03	6.931882E-05
4.328399E+03	3.673661E-03	6.907326E-05
4.330926E+03	3.641690E-03	6.845677E-05
4.333463E+03	3.650949E-03	6.861535E-05
4.335999E+03	3.649429E-03	6.857131E-05
4.338536E+03	3.661679E-03	6.878596E-05
4.341073E+03	3.649024E-03	6.853274E-05
4.343609E+03	3.648162E-03	6.850108E-05
4.346146E+03	3.653529E-03	6.858636E-05
4.348683E+03	3.638732E-03	6.829313E-05
4.351220E+03	3.642835E-03	6.835465E-05
4.353756E+03	3.635177E-03	6.819553E-05
4.356293E+03	3.641002E-03	6.828932E-05
4.358830E+03	3.634454E-03	6.815106E-05
4.361366E+03	3.638710E-03	6.821540E-05
4.363903E+03	3.627238E-03	6.798489E-05
4.366440E+03	3.619517E-03	6.782479E-05
4.368977E+03	3.613414E-03	6.769504E-05
4.371513E+03	3.642849E-03	6.823098E-05
4.374050E+03	3.644466E-03	6.824574E-05
4.376587E+03	3.629223E-03	6.794484E-05
4.379123E+03	3.636022E-03	6.805664E-05
4.381660E+03	3.647139E-03	6.824917E-05
4.384197E+03	3.662329E-03	6.851781E-05
4.386734E+03	3.689623E-03	6.901271E-05
4.389270E+03	3.712199E-03	6.941915E-05
4.391807E+03	3.756551E-03	7.023251E-05
4.394344E+03	3.786682E-03	7.077967E-05
4.396880E+03	3.838750E-03	7.173654E-05
4.399417E+03	3.897410E-03	7.281610E-05
4.401954E+03	3.940111E-03	7.359705E-05
4.404490E+03	3.993011E-03	7.456812E-05
4.407027E+03	4.036362E-03	7.536043E-05
4.409564E+03	4.083142E-03	7.621636E-05
4.412101E+03	4.123221E-03	7.694685E-05
4.414637E+03	4.165300E-03	7.771431E-05
4.417174E+03	4.208112E-03	7.849507E-05
4.419711E+03	4.226424E-03	7.881857E-05
4.422247E+03	4.257029E-03	7.937110E-05
4.424784E+03	4.280047E-03	7.978194E-05
4.427321E+03	4.314501E-03	8.040569E-05
4.429858E+03	4.324479E-03	8.057312E-05
4.432394E+03	4.359163E-03	8.120068E-05
4.434931E+03	4.389114E-03	8.173978E-05
4.437468E+03	4.429136E-03	8.246613E-05
4.440004E+03	4.472697E-03	8.325802E-05
4.442541E+03	4.533795E-03	8.437592E-05
4.445078E+03	4.579597E-03	8.520865E-05
4.447615E+03	4.624851E-03	8.603082E-05
4.450151E+03	4.670228E-03	8.685488E-05
4.452688E+03	4.715828E-03	8.768269E-05
4.455225E+03	4.774895E-03	8.876045E-05
4.457761E+03	4.832968E-03	8.981922E-05
4.460298E+03	4.879653E-03	9.066588E-05
4.462825E+03	4.918321E-03	9.136330E-05
4.465362E+03	4.968524E-03	9.227453E-05
4.467898E+03	5.022739E-03	9.325984E-05
4.470435E+03	5.052300E-03	9.378699E-05
4.472972E+03	5.106353E-03	9.476844E-05
4.475508E+03	5.139937E-03	9.536963E-05
4.478045E+03	5.188190E-03	9.624263E-05
4.480582E+03	5.253371E-03	9.742918E-05
4.483118E+03	5.297564E-03	9.822599E-05
4.485655E+03	5.344851E-03	9.907977E-05
4.488192E+03	5.390619E-03	9.990501E-05
4.490729E+03	5.438460E-03	1.007683E-04
4.493265E+03	5.484779E-03	1.016029E-04
4.495802E+03	5.506488E-03	1.019813E-04
4.498339E+03	5.544113E-03	1.026543E-04
4.500875E+03	5.615123E-03	1.039449E-04
4.503412E+03	5.654326E-03	1.046463E-04
4.505949E+03	5.681731E-03	1.051290E-04
4.508486E+03	5.715826E-03	1.057352E-04
4.511022E+03	5.766376E-03	1.066455E-04
4.513559E+03	5.814377E-03	1.075082E-04
4.516096E+03	5.852118E-03	1.081808E-04
4.518632E+03	5.890385E-03	1.088628E-04
4.521169E+03	5.917353E-03	1.093357E-04
4.523706E+03	5.942277E-03	1.097706E-04
4.526242E+03	5.968236E-03	1.102244E-04
4.528779E+03	6.022506E-03	1.112007E-04
4.531316E+03	6.074741E-03	1.121390E-04
4.533853E+03	6.095593E-03	1.124976E-04
4.536389E+03	6.121088E-03	1.129418E-04
4.538926E+03	6.144015E-03	1.133383E-04
4.541463E+03	6.177768E-03	1.139343E-04
4.543999E+03	6.189896E-03	1.141312E-04
4.546536E+03	6.193778E-03	1.141761E-04
4.549073E+03	6.197663E-03	1.142210E-04
4.551610E+03	6.192785E-03	1.141043E-04
4.554146E+03	6.202337E-03	1.142536E-04
4.556683E+03	6.195393E-03	1.140989E-04
4.559220E+03	6.205979E-03	1.142671E-04
4.561756E+03	6.189736E-03	1.139413E-04
4.564293E+03	6.174521E-03	1.136345E-04
4.566830E+03	6.161875E-03	1.133752E-04
4.569367E+03	6.149741E-03	1.131254E-04
4.571903E+03	6.130885E-03	1.127521E-04
4.574440E+03	6.113053E-03	1.123977E-04
4.576977E+03	6.102961E-03	1.121858E-04
4.579513E+03	6.084596E-03	1.118220E-04
4.582050E+03	6.067769E-03	1.114865E-04
4.584577E+03	6.066957E-03	1.114455E-04
4.587114E+03	6.059425E-03	1.112810E-04
4.589650E+03	6.052404E-03	1.111259E-04
4.592187E+03	6.035552E-03	1.107904E-04
4.594724E+03	6.026967E-03	1.106068E-04
4.597260E+03	6.005441E-03	1.101858E-04
4.599797E+03	5.988047E-03	1.098408E-04
4.602334E+03	5.976855E-03	1.096097E-04
4.604870E+03	5.958406E-03	1.092456E-04
4.607407E+03	5.940464E-03	1.088910E-04
4.609944E+03	5.938574E-03	1.088307E-04
4.612481E+03	5.921654E-03	1.084950E-04
4.615017E+03	5.902136E-03	1.081119E-04
4.617554E+03	5.862390E-03	1.073586E-04
4.620091E+03	5.855808E-03	1.072127E-04
4.622627E+03	5.818112E-03	1.064974E-04
4.625164E+03	5.795433E-03	1.060573E-04
4.627701E+03	5.776898E-03	1.056931E-04
4.630238E+03	5.755758E-03	1.052815E-04
4.632774E+03	5.727340E-03	1.047369E-04
4.635311E+03	5.711370E-03	1.044202E-04
4.637848E+03	5.695387E-03	1.041034E-04
4.640384E+03	5.674205E-03	1.036917E-04
4.642921E+03	5.641585E-03	1.030713E-04
4.645458E+03	5.615189E-03	1.025648E-04
4.647995E+03	5.578904E-03	1.018779E-04
4.650531E+03	5.556635E-03	1.014473E-04
4.653068E+03	5.532273E-03	1.009786E-04
4.655605E+03	5.514661E-03	1.006333E-04
4.658141E+03	5.486641E-03	1.000983E-04
4.660678E+03	5.424799E-03	9.894668E-05
4.663215E+03	5.402985E-03	9.852549E-05
4.665751E+03	5.364514E-03	9.780080E-05
4.668288E+03	5.320299E-03	9.697175E-05
4.670825E+03	5.293763E-03	9.646525E-05
4.673362E+03	5.253678E-03	9.571214E-05
4.675898E+03	5.227118E-03	9.520571E-05
4.678435E+03	5.189863E-03	9.450477E-05
4.680972E+03	5.160251E-03	9.394329E-05
4.683508E+03	5.119372E-03	9.317700E-05
4.686045E+03	5.094995E-03	9.271136E-05
4.688582E+03	5.059193E-03	9.203807E-05
4.691119E+03	5.007003E-03	9.106704E-05
4.693655E+03	4.964332E-03	9.026954E-05
4.696192E+03	4.937346E-03	8.975755E-05
4.698729E+03	4.905858E-03	8.916399E-05
4.701265E+03	4.850669E-03	8.814003E-05
