#wls	flux	fluxerr
1.591660E+03	2.851994E-04	6.523013E-06
1.631451E+03	2.893132E-04	6.613374E-06
1.671243E+03	2.928983E-04	6.691449E-06
1.711034E+03	2.957473E-04	6.752514E-06
1.750826E+03	2.979553E-04	6.798766E-06
1.790617E+03	2.993374E-04	6.826011E-06
1.830409E+03	2.995994E-04	6.827575E-06
1.870200E+03	2.985212E-04	6.798494E-06
1.909992E+03	2.958855E-04	6.733877E-06
1.949783E+03	2.915239E-04	6.629972E-06
1.989575E+03	2.856299E-04	6.491261E-06
2.029366E+03	2.789328E-04	6.334384E-06
2.069158E+03	2.729595E-04	6.194037E-06
2.108949E+03	2.699264E-04	6.120442E-06
2.148741E+03	2.717014E-04	6.155767E-06
2.188532E+03	2.791393E-04	6.319098E-06
2.228324E+03	2.916033E-04	6.595699E-06
2.268115E+03	3.077511E-04	6.954926E-06
2.307907E+03	3.259482E-04	7.359634E-06
2.347698E+03	3.451109E-04	7.785219E-06
2.387490E+03	3.645975E-04	8.217128E-06
2.427281E+03	3.840931E-04	8.648218E-06
2.467073E+03	4.036556E-04	9.079752E-06
2.506864E+03	4.233542E-04	9.513248E-06
2.546656E+03	4.433909E-04	9.953190E-06
2.586447E+03	4.640022E-04	1.040482E-05
2.626239E+03	4.854425E-04	1.087376E-05
2.666030E+03	5.079785E-04	1.136587E-05
2.705821E+03	5.318884E-04	1.188724E-05
2.745613E+03	5.574627E-04	1.244420E-05
2.785404E+03	5.849250E-04	1.304155E-05
2.825196E+03	6.146732E-04	1.368795E-05
2.864987E+03	6.468682E-04	1.438671E-05
2.904779E+03	6.820167E-04	1.514882E-05
2.944570E+03	7.205561E-04	1.598366E-05
2.984362E+03	7.629258E-04	1.690056E-05
2.994310E+03	7.741072E-04	1.714235E-05
3.004258E+03	7.856986E-04	1.739301E-05
3.014206E+03	7.975114E-04	1.764835E-05
3.024153E+03	8.096565E-04	1.791083E-05
3.034101E+03	8.221717E-04	1.818127E-05
3.044049E+03	8.349950E-04	1.845829E-05
3.053997E+03	8.483238E-04	1.874624E-05
3.063945E+03	8.619515E-04	1.904055E-05
3.073893E+03	8.760797E-04	1.934565E-05
3.083841E+03	8.906023E-04	1.965920E-05
3.093789E+03	9.054098E-04	1.997875E-05
3.103736E+03	9.207098E-04	2.030890E-05
3.113684E+03	9.363927E-04	2.064719E-05
3.123632E+03	9.525638E-04	2.099595E-05
3.133580E+03	9.691105E-04	2.135267E-05
3.143528E+03	9.860265E-04	2.171721E-05
3.153476E+03	1.003419E-03	2.209192E-05
3.163424E+03	1.021170E-03	2.247418E-05
3.173372E+03	1.039503E-03	2.286889E-05
3.183319E+03	1.058182E-03	2.327084E-05
3.193267E+03	1.077313E-03	2.368240E-05
3.203215E+03	1.096891E-03	2.410338E-05
3.213163E+03	1.116905E-03	2.453355E-05
3.223111E+03	1.137344E-03	2.497266E-05
3.233059E+03	1.158197E-03	2.542044E-05
3.243007E+03	1.179573E-03	2.587928E-05
3.252955E+03	1.201460E-03	2.634892E-05
3.262902E+03	1.223719E-03	2.682625E-05
3.272850E+03	1.246457E-03	2.731363E-05
3.282798E+03	1.269657E-03	2.781066E-05
3.292746E+03	1.293299E-03	2.831688E-05
3.302694E+03	1.317360E-03	2.883181E-05
3.312642E+03	1.341950E-03	2.935779E-05
3.322590E+03	1.366911E-03	2.989140E-05
3.332538E+03	1.392352E-03	3.043495E-05
3.342485E+03	1.418244E-03	3.098783E-05
3.352433E+03	1.444422E-03	3.154642E-05
3.362381E+03	1.471129E-03	3.211599E-05
3.372329E+03	1.498196E-03	3.269285E-05
3.382277E+03	1.525730E-03	3.327932E-05
3.392225E+03	1.553699E-03	3.387468E-05
3.402173E+03	1.581931E-03	3.447514E-05
3.412120E+03	1.610672E-03	3.508610E-05
3.422068E+03	1.639608E-03	3.570066E-05
3.432016E+03	1.668989E-03	3.632427E-05
3.441964E+03	1.698785E-03	3.695627E-05
3.451912E+03	1.728966E-03	3.759598E-05
3.461860E+03	1.759505E-03	3.824277E-05
3.471808E+03	1.790373E-03	3.889605E-05
3.481756E+03	1.821692E-03	3.955840E-05
3.491703E+03	1.853293E-03	4.022617E-05
3.501651E+03	1.885302E-03	4.090208E-05
3.511599E+03	1.917701E-03	4.158570E-05
3.521547E+03	1.950475E-03	4.227670E-05
3.531495E+03	1.983612E-03	4.297479E-05
3.541443E+03	2.017247E-03	4.368290E-05
3.551391E+03	2.051373E-03	4.440084E-05
3.561339E+03	2.085983E-03	4.512847E-05
3.571286E+03	2.120928E-03	4.586251E-05
3.581234E+03	2.156498E-03	4.660921E-05
3.591182E+03	2.192544E-03	4.736535E-05
3.601130E+03	2.229211E-03	4.813404E-05
3.611078E+03	2.266352E-03	4.891208E-05
3.621026E+03	2.304111E-03	4.970254E-05
3.630974E+03	2.342484E-03	5.050534E-05
3.640922E+03	2.381324E-03	5.131723E-05
3.650869E+03	2.420908E-03	5.214422E-05
3.660817E+03	2.461084E-03	5.298294E-05
3.670765E+03	2.501833E-03	5.383302E-05
3.680713E+03	2.543135E-03	5.469399E-05
3.690661E+03	2.585106E-03	5.556827E-05
3.700609E+03	2.627567E-03	5.645205E-05
3.710557E+03	2.670476E-03	5.734437E-05
3.720505E+03	2.714062E-03	5.825013E-05
3.730452E+03	2.757841E-03	5.915894E-05
3.740400E+03	2.802161E-03	6.007820E-05
3.750348E+03	2.846520E-03	6.099716E-05
3.760296E+03	2.891237E-03	6.192264E-05
3.770244E+03	2.935928E-03	6.284641E-05
3.780192E+03	2.980474E-03	6.376590E-05
3.790140E+03	3.025015E-03	6.468412E-05
3.800088E+03	3.069001E-03	6.558928E-05
3.810035E+03	3.112682E-03	6.648675E-05
3.819983E+03	3.155492E-03	6.736446E-05
3.829931E+03	3.197658E-03	6.822728E-05
3.839879E+03	3.238608E-03	6.906299E-05
3.849827E+03	3.278421E-03	6.987337E-05
3.859775E+03	3.316787E-03	7.065179E-05
3.869723E+03	3.353525E-03	7.139447E-05
3.879671E+03	3.388334E-03	7.209509E-05
3.889618E+03	3.421303E-03	7.275554E-05
3.899566E+03	3.452151E-03	7.336995E-05
3.909514E+03	3.480613E-03	7.393277E-05
3.919462E+03	3.506578E-03	7.444171E-05
3.929410E+03	3.530070E-03	7.489736E-05
3.939358E+03	3.550903E-03	7.529586E-05
3.949306E+03	3.569027E-03	7.563628E-05
3.959254E+03	3.584320E-03	7.591611E-05
3.969201E+03	3.597031E-03	7.614072E-05
3.979149E+03	3.606871E-03	7.630407E-05
3.989097E+03	3.614145E-03	7.641277E-05
3.999045E+03	3.618863E-03	7.646708E-05
4.008993E+03	3.621057E-03	7.646780E-05
4.018941E+03	3.621009E-03	7.642095E-05
4.028889E+03	3.618810E-03	7.632854E-05
4.038836E+03	3.614783E-03	7.619749E-05
4.048784E+03	3.608963E-03	7.602859E-05
4.058732E+03	3.601614E-03	7.582746E-05
4.068680E+03	3.593097E-03	7.560177E-05
4.078628E+03	3.583589E-03	7.535527E-05
4.088576E+03	3.573375E-03	7.509399E-05
4.098524E+03	3.562640E-03	7.482187E-05
4.108472E+03	3.551759E-03	7.454680E-05
4.118419E+03	3.540833E-03	7.427088E-05
4.128367E+03	3.530221E-03	7.400166E-05
4.138315E+03	3.520100E-03	7.374285E-05
4.148263E+03	3.510810E-03	7.350151E-05
4.158211E+03	3.502425E-03	7.327919E-05
4.168159E+03	3.495263E-03	7.308249E-05
4.178107E+03	3.489462E-03	7.291426E-05
4.188055E+03	3.485238E-03	7.277894E-05
4.198002E+03	3.482779E-03	7.268041E-05
4.207950E+03	3.482203E-03	7.262105E-05
4.217898E+03	3.483689E-03	7.260449E-05
4.227846E+03	3.487395E-03	7.263398E-05
4.237794E+03	3.493476E-03	7.271263E-05
4.247742E+03	3.502006E-03	7.284190E-05
4.257690E+03	3.513047E-03	7.302295E-05
4.267638E+03	3.526858E-03	7.326108E-05
4.277585E+03	3.543407E-03	7.355548E-05
4.287533E+03	3.562726E-03	7.390674E-05
4.297481E+03	3.585022E-03	7.431900E-05
4.307429E+03	3.610227E-03	7.479073E-05
4.317377E+03	3.638449E-03	7.532405E-05
4.327325E+03	3.669578E-03	7.591655E-05
4.337273E+03	3.703673E-03	7.656932E-05
4.347221E+03	3.740709E-03	7.728170E-05
4.357168E+03	3.780556E-03	7.805091E-05
4.367116E+03	3.823120E-03	7.887488E-05
4.377064E+03	3.868277E-03	7.975089E-05
4.387012E+03	3.915784E-03	8.067387E-05
4.396960E+03	3.965508E-03	8.164093E-05
4.406908E+03	4.017190E-03	8.264669E-05
4.416856E+03	4.070477E-03	8.368377E-05
4.426804E+03	4.125034E-03	8.474521E-05
4.436751E+03	4.180550E-03	8.582457E-05
4.446699E+03	4.236475E-03	8.691052E-05
4.456647E+03	4.292369E-03	8.799403E-05
4.466595E+03	4.347818E-03	8.906660E-05
4.476543E+03	4.402255E-03	9.011664E-05
4.486491E+03	4.455103E-03	9.113240E-05
4.496439E+03	4.505852E-03	9.210351E-05
4.506387E+03	4.553988E-03	9.301956E-05
4.516334E+03	4.599032E-03	9.387088E-05
4.526282E+03	4.640455E-03	9.464683E-05
4.536230E+03	4.677918E-03	9.534065E-05
4.546178E+03	4.710993E-03	9.594381E-05
4.556126E+03	4.739326E-03	9.644931E-05
4.566074E+03	4.762763E-03	9.685422E-05
4.576022E+03	4.781170E-03	9.715602E-05
4.585970E+03	4.794430E-03	9.735260E-05
4.595917E+03	4.802572E-03	9.744476E-05
4.605865E+03	4.805655E-03	9.743395E-05
4.615813E+03	4.803942E-03	9.732572E-05
4.625761E+03	4.797706E-03	9.712582E-05
4.635709E+03	4.787223E-03	9.684005E-05
4.645657E+03	4.772893E-03	9.647670E-05
4.655605E+03	4.755155E-03	9.604479E-05
4.665553E+03	4.734480E-03	9.555403E-05
4.675500E+03	4.711367E-03	9.501460E-05
4.685448E+03	4.686257E-03	9.443550E-05
4.695396E+03	4.659711E-03	9.382812E-05
4.705344E+03	4.632162E-03	9.320127E-05
4.715292E+03	4.604128E-03	9.256541E-05
4.725240E+03	4.576003E-03	9.192849E-05
4.735188E+03	4.548184E-03	9.129845E-05
4.745135E+03	4.521045E-03	9.068282E-05
4.755083E+03	4.494852E-03	9.008690E-05
4.765031E+03	4.469954E-03	8.951762E-05
4.774979E+03	4.446641E-03	8.898075E-05
4.784927E+03	4.425060E-03	8.847915E-05
4.794875E+03	4.405481E-03	8.801814E-05
4.804823E+03	4.387925E-03	8.759805E-05
4.814771E+03	4.372590E-03	8.722272E-05
4.824718E+03	4.359546E-03	8.689346E-05
4.834666E+03	4.348781E-03	8.660993E-05
4.844614E+03	4.340370E-03	8.637352E-05
4.854562E+03	4.334332E-03	8.618448E-05
4.864510E+03	4.330662E-03	8.604263E-05
4.874458E+03	4.329364E-03	8.594792E-05
4.884406E+03	4.330484E-03	8.590114E-05
4.894354E+03	4.334023E-03	8.590223E-05
4.904301E+03	4.339994E-03	8.595131E-05
4.914249E+03	4.348411E-03	8.604854E-05
4.924197E+03	4.359346E-03	8.619523E-05
4.934145E+03	4.372834E-03	8.639199E-05
4.944093E+03	4.388923E-03	8.663961E-05
4.954041E+03	4.407706E-03	8.693980E-05
4.963989E+03	4.429186E-03	8.729253E-05
4.973937E+03	4.453474E-03	8.769983E-05
4.983884E+03	4.480664E-03	8.816343E-05
4.993832E+03	4.510708E-03	8.868223E-05
5.003780E+03	4.543796E-03	8.925984E-05
5.013728E+03	4.579839E-03	8.989439E-05
5.023676E+03	4.618904E-03	9.058703E-05
5.033624E+03	4.661017E-03	9.133814E-05
5.043572E+03	4.706091E-03	9.214586E-05
5.053520E+03	4.754056E-03	9.300870E-05
5.063467E+03	4.804869E-03	9.392570E-05
5.073415E+03	4.858398E-03	9.489409E-05
5.083363E+03	4.914482E-03	9.591067E-05
5.093311E+03	4.972921E-03	9.697139E-05
5.103259E+03	5.033533E-03	9.807259E-05
5.113207E+03	5.095938E-03	9.920679E-05
5.123155E+03	5.159994E-03	1.003711E-04
5.133103E+03	5.225185E-03	1.015555E-04
5.143050E+03	5.291239E-03	1.027547E-04
5.152998E+03	5.357731E-03	1.039602E-04
5.162946E+03	5.424216E-03	1.051636E-04
5.172894E+03	5.490141E-03	1.063541E-04
5.182842E+03	5.555053E-03	1.075230E-04
5.192790E+03	5.618410E-03	1.086598E-04
5.202738E+03	5.679596E-03	1.097527E-04
5.212686E+03	5.738151E-03	1.107930E-04
5.222633E+03	5.793440E-03	1.117685E-04
5.232581E+03	5.844815E-03	1.126669E-04
5.242529E+03	5.891829E-03	1.134799E-04
5.252477E+03	5.933804E-03	1.141945E-04
5.262425E+03	5.970268E-03	1.148020E-04
5.272373E+03	6.000795E-03	1.152944E-04
5.282321E+03	6.024800E-03	1.156609E-04
5.292269E+03	6.041950E-03	1.158952E-04
5.302216E+03	6.051912E-03	1.159915E-04
5.312164E+03	6.054473E-03	1.159459E-04
5.322112E+03	6.049312E-03	1.157527E-04
5.332060E+03	6.036376E-03	1.154112E-04
5.342008E+03	6.015632E-03	1.149211E-04
5.351956E+03	5.987132E-03	1.142839E-04
5.361904E+03	5.951018E-03	1.135026E-04
5.371851E+03	5.907514E-03	1.125819E-04
5.381799E+03	5.856870E-03	1.115267E-04
5.391747E+03	5.799595E-03	1.103473E-04
5.401695E+03	5.736038E-03	1.090504E-04
5.411643E+03	5.666860E-03	1.076490E-04
5.421591E+03	5.592536E-03	1.061523E-04
5.431539E+03	5.513837E-03	1.045752E-04
5.441487E+03	5.431348E-03	1.029289E-04
5.451434E+03	5.345860E-03	1.012286E-04
5.461382E+03	5.258129E-03	9.948873E-05
5.471330E+03	5.168975E-03	9.772493E-05
5.481278E+03	5.079066E-03	9.594983E-05
5.491226E+03	4.989222E-03	9.417892E-05
5.501174E+03	4.900234E-03	9.242715E-05
5.511122E+03	4.812717E-03	9.070604E-05
5.521070E+03	4.727412E-03	8.902950E-05
5.531017E+03	4.645004E-03	8.741029E-05
5.540965E+03	4.566080E-03	8.585931E-05
5.550913E+03	4.491089E-03	8.438485E-05
5.560861E+03	4.420605E-03	8.299751E-05
5.570809E+03	4.355055E-03	8.170510E-05
5.580757E+03	4.294762E-03	8.051345E-05
5.590705E+03	4.240035E-03	7.942814E-05
5.600653E+03	4.191169E-03	7.845444E-05
5.610600E+03	4.148313E-03	7.759488E-05
5.620548E+03	4.111610E-03	7.685190E-05
5.630496E+03	4.081181E-03	7.622749E-05
5.640444E+03	4.057023E-03	7.572135E-05
5.650392E+03	4.039112E-03	7.533278E-05
5.660340E+03	4.027416E-03	7.506094E-05
5.670288E+03	4.021780E-03	7.490269E-05
5.680236E+03	4.021987E-03	7.485376E-05
5.690183E+03	4.027900E-03	7.491138E-05
5.700131E+03	4.039204E-03	7.506950E-05
5.710079E+03	4.055581E-03	7.532200E-05
5.720027E+03	4.076667E-03	7.566194E-05
5.729975E+03	4.101995E-03	7.608054E-05
5.739923E+03	4.131196E-03	7.657078E-05
5.749871E+03	4.163640E-03	7.712089E-05
5.759819E+03	4.198907E-03	7.772298E-05
5.769766E+03	4.236304E-03	7.836417E-05
5.779714E+03	4.275320E-03	7.903495E-05
5.789662E+03	4.315302E-03	7.972325E-05
5.799610E+03	4.355629E-03	8.041754E-05
5.809558E+03	4.395697E-03	8.110676E-05
5.819506E+03	4.434912E-03	8.177997E-05
5.829454E+03	4.472666E-03	8.242602E-05
5.839402E+03	4.508483E-03	8.303622E-05
5.849349E+03	4.541858E-03	8.360137E-05
5.859297E+03	4.572386E-03	8.411411E-05
5.869245E+03	4.599776E-03	8.456926E-05
5.879193E+03	4.623697E-03	8.496081E-05
5.889141E+03	4.643979E-03	8.528580E-05
5.899089E+03	4.660588E-03	8.554373E-05
5.909037E+03	4.673530E-03	8.573486E-05
5.918985E+03	4.682802E-03	8.585926E-05
5.928932E+03	4.688619E-03	8.592098E-05
5.938880E+03	4.691214E-03	8.592442E-05
5.948828E+03	4.690844E-03	8.587438E-05
5.958776E+03	4.687853E-03	8.577726E-05
5.968724E+03	4.682624E-03	8.564016E-05
5.978672E+03	4.675578E-03	8.547083E-05
5.988620E+03	4.667087E-03	8.527613E-05
5.998568E+03	4.657636E-03	8.506495E-05
6.008515E+03	4.647585E-03	8.484393E-05
6.018463E+03	4.637295E-03	8.461963E-05
6.028411E+03	4.627176E-03	8.439960E-05
6.038359E+03	4.617558E-03	8.418982E-05
6.048307E+03	4.608682E-03	8.399470E-05
6.058255E+03	4.600734E-03	8.381761E-05
6.068203E+03	4.593986E-03	8.366351E-05
6.078150E+03	4.588518E-03	8.353382E-05
6.088098E+03	4.584365E-03	8.342917E-05
6.098046E+03	4.581578E-03	8.335049E-05
6.107994E+03	4.580171E-03	8.329802E-05
6.117942E+03	4.580024E-03	8.326955E-05
6.127890E+03	4.581057E-03	8.326363E-05
6.137838E+03	4.583238E-03	8.327968E-05
6.147786E+03	4.586388E-03	8.331444E-05
6.157733E+03	4.590381E-03	8.336564E-05
6.167681E+03	4.594856E-03	8.342673E-05
6.177629E+03	4.599522E-03	8.349241E-05
6.187577E+03	4.604007E-03	8.355599E-05
6.197525E+03	4.608065E-03	8.361299E-05
6.207473E+03	4.611463E-03	8.365924E-05
6.217421E+03	4.613978E-03	8.369069E-05
6.227369E+03	4.615403E-03	8.370362E-05
6.237316E+03	4.615508E-03	8.369389E-05
6.247264E+03	4.614184E-03	8.365956E-05
6.257212E+03	4.611338E-03	8.359895E-05
6.267160E+03	4.606865E-03	8.351018E-05
6.277108E+03	4.600692E-03	8.339196E-05
6.287056E+03	4.592771E-03	8.324344E-05
6.297004E+03	4.583125E-03	8.306503E-05
6.306952E+03	4.571814E-03	8.285783E-05
6.316899E+03	4.558818E-03	8.262150E-05
6.326847E+03	4.544290E-03	8.235881E-05
6.336795E+03	4.528251E-03	8.207015E-05
6.346743E+03	4.510888E-03	8.175887E-05
6.356691E+03	4.492294E-03	8.142665E-05
6.366639E+03	4.472521E-03	8.107440E-05
6.376587E+03	4.451760E-03	8.070552E-05
6.386535E+03	4.430080E-03	8.032124E-05
6.396482E+03	4.407573E-03	7.992317E-05
6.406430E+03	4.384141E-03	7.950952E-05
6.416378E+03	4.359821E-03	7.908090E-05
6.426326E+03	4.334491E-03	7.863506E-05
6.436274E+03	4.307868E-03	7.816680E-05
6.446222E+03	4.279853E-03	7.767431E-05
6.456170E+03	4.250174E-03	7.715256E-05
6.466118E+03	4.218704E-03	7.659922E-05
6.476065E+03	4.185383E-03	7.601310E-05
6.486013E+03	4.150092E-03	7.539200E-05
6.495961E+03	4.112837E-03	7.473596E-05
6.505909E+03	4.073579E-03	7.404417E-05
6.515857E+03	4.032407E-03	7.331820E-05
6.525805E+03	3.989279E-03	7.255721E-05
6.535753E+03	3.944370E-03	7.176428E-05
6.545701E+03	3.897765E-03	7.094089E-05
6.555648E+03	3.849712E-03	7.009147E-05
6.565596E+03	3.800324E-03	6.921804E-05
6.575544E+03	3.749910E-03	6.832610E-05
6.585492E+03	3.698676E-03	6.741936E-05
6.595440E+03	3.646927E-03	6.650333E-05
6.605388E+03	3.594902E-03	6.558228E-05
6.615336E+03	3.542924E-03	6.466207E-05
6.625284E+03	3.491317E-03	6.374858E-05
6.635231E+03	3.440324E-03	6.284621E-05
6.645179E+03	3.390221E-03	6.195996E-05
6.655127E+03	3.341310E-03	6.109534E-05
6.665075E+03	3.293839E-03	6.025687E-05
6.675023E+03	3.248040E-03	5.944881E-05
6.684971E+03	3.204125E-03	5.867504E-05
6.694919E+03	3.162284E-03	5.793906E-05
6.704866E+03	3.122721E-03	5.724464E-05
6.714814E+03	3.085543E-03	5.659378E-05
6.724762E+03	3.050908E-03	5.598940E-05
6.734710E+03	3.018909E-03	5.543327E-05
6.744658E+03	2.989618E-03	5.492677E-05
6.754606E+03	2.963049E-03	5.447021E-05
6.764554E+03	2.939297E-03	5.406540E-05
6.774502E+03	2.918331E-03	5.371185E-05
6.784449E+03	2.900134E-03	5.340932E-05
6.794397E+03	2.884706E-03	5.315786E-05
6.804345E+03	2.871959E-03	5.295596E-05
6.814293E+03	2.861827E-03	5.280246E-05
6.824241E+03	2.854263E-03	5.269656E-05
6.834189E+03	2.849140E-03	5.263602E-05
6.844137E+03	2.846391E-03	5.261968E-05
6.854085E+03	2.845879E-03	5.264504E-05
6.864032E+03	2.847525E-03	5.271075E-05
6.873980E+03	2.851220E-03	5.281486E-05
6.883928E+03	2.856823E-03	5.295479E-05
6.893876E+03	2.864261E-03	5.312931E-05
6.903824E+03	2.873403E-03	5.333602E-05
6.913772E+03	2.884194E-03	5.357396E-05
6.923720E+03	2.896552E-03	5.384167E-05
6.933668E+03	2.910372E-03	5.413726E-05
6.943615E+03	2.925593E-03	5.445964E-05
6.953563E+03	2.942200E-03	5.480860E-05
6.963511E+03	2.960115E-03	5.518274E-05
6.973459E+03	2.979341E-03	5.558213E-05
6.983407E+03	2.999812E-03	5.600564E-05
6.993355E+03	3.021465E-03	5.645213E-05
7.003303E+03	3.044349E-03	5.692254E-05
7.013251E+03	3.068398E-03	5.741571E-05
7.023198E+03	3.093538E-03	5.793030E-05
7.033146E+03	3.119800E-03	5.846694E-05
7.043094E+03	3.147013E-03	5.902245E-05
7.053042E+03	3.175174E-03	5.959685E-05
7.062990E+03	3.204190E-03	6.018842E-05
7.072938E+03	3.233863E-03	6.079345E-05
7.082886E+03	3.264086E-03	6.140999E-05
7.092834E+03	3.294687E-03	6.203481E-05
7.102781E+03	3.325463E-03	6.266411E-05
7.112729E+03	3.356145E-03	6.329281E-05
7.122677E+03	3.386432E-03	6.391523E-05
7.132625E+03	3.416122E-03	6.452755E-05
7.142573E+03	3.444827E-03	6.512239E-05
7.152521E+03	3.472266E-03	6.569440E-05
7.162469E+03	3.498021E-03	6.623560E-05
7.172417E+03	3.521800E-03	6.674036E-05
7.182364E+03	3.543272E-03	6.720233E-05
7.192312E+03	3.562036E-03	6.761378E-05
7.202260E+03	3.577891E-03	6.797075E-05
7.212208E+03	3.590494E-03	6.826660E-05
7.222156E+03	3.599635E-03	6.849714E-05
7.232104E+03	3.605110E-03	6.865836E-05
7.242052E+03	3.606865E-03	6.874902E-05
7.252000E+03	3.604819E-03	6.876740E-05
7.261947E+03	3.599003E-03	6.871390E-05
7.271895E+03	3.589424E-03	6.858847E-05
7.281843E+03	3.576333E-03	6.839572E-05
7.291791E+03	3.559863E-03	6.813801E-05
7.301739E+03	3.540246E-03	6.781964E-05
7.311687E+03	3.517895E-03	6.744834E-05
7.321635E+03	3.493086E-03	6.702927E-05
7.331583E+03	3.466166E-03	6.656897E-05
7.341530E+03	3.437593E-03	6.607614E-05
7.351478E+03	3.407748E-03	6.555801E-05
7.361426E+03	3.377101E-03	6.502355E-05
7.371374E+03	3.345989E-03	6.447923E-05
7.381322E+03	3.314865E-03	6.393374E-05
7.391270E+03	3.284123E-03	6.339467E-05
7.401218E+03	3.254135E-03	6.286924E-05
7.411165E+03	3.225205E-03	6.236336E-05
7.421113E+03	3.197735E-03	6.188483E-05
7.431061E+03	3.171933E-03	6.143776E-05
7.441009E+03	3.148097E-03	6.102800E-05
7.450957E+03	3.126452E-03	6.066002E-05
7.460905E+03	3.107232E-03	6.033845E-05
7.470853E+03	3.090558E-03	6.006575E-05
7.480801E+03	3.076594E-03	5.984527E-05
7.490748E+03	3.065397E-03	5.967820E-05
7.500696E+03	3.057104E-03	5.956738E-05
7.510644E+03	3.051740E-03	5.951342E-05
7.520592E+03	3.049258E-03	5.951555E-05
7.530540E+03	3.049655E-03	5.957385E-05
7.540488E+03	3.052893E-03	5.968769E-05
7.550436E+03	3.058819E-03	5.985426E-05
7.560384E+03	3.067365E-03	6.007234E-05
7.570331E+03	3.078270E-03	6.033694E-05
7.580279E+03	3.091357E-03	6.064469E-05
7.590227E+03	3.106415E-03	6.099155E-05
7.600175E+03	3.123160E-03	6.137206E-05
7.610123E+03	3.141234E-03	6.177924E-05
7.620071E+03	3.160374E-03	6.220798E-05
7.630019E+03	3.180124E-03	6.264933E-05
7.639967E+03	3.200169E-03	6.309713E-05
7.649914E+03	3.220051E-03	6.354235E-05
7.659862E+03	3.239339E-03	6.397645E-05
7.669810E+03	3.257636E-03	6.439155E-05
7.679758E+03	3.274457E-03	6.477802E-05
7.689706E+03	3.289412E-03	6.512803E-05
7.699654E+03	3.302032E-03	6.543224E-05
7.709602E+03	3.311962E-03	6.568344E-05
7.719550E+03	3.318784E-03	6.587322E-05
