#wls	flux	fluxerr
1.591660E+03	2.274579E-04	5.129102E-05
1.631451E+03	2.340144E-04	5.276120E-05
1.671243E+03	2.403184E-04	5.417378E-05
1.711034E+03	2.463760E-04	5.553016E-05
1.750826E+03	2.520736E-04	5.680473E-05
1.790617E+03	2.573370E-04	5.798080E-05
1.830409E+03	2.618900E-04	5.899619E-05
1.870200E+03	2.655036E-04	5.979939E-05
1.909992E+03	2.678291E-04	6.031196E-05
1.949783E+03	2.687447E-04	6.050665E-05
1.989575E+03	2.681955E-04	6.037125E-05
2.029366E+03	2.668994E-04	6.006754E-05
2.069158E+03	2.662467E-04	5.990847E-05
2.108949E+03	2.684286E-04	6.038683E-05
2.148741E+03	2.756069E-04	6.198851E-05
2.188532E+03	2.888058E-04	6.494302E-05
2.228324E+03	3.078691E-04	6.921432E-05
2.268115E+03	3.315849E-04	7.452910E-05
2.307907E+03	3.585354E-04	8.056795E-05
2.347698E+03	3.876098E-04	8.708069E-05
2.387490E+03	4.182982E-04	9.395239E-05
2.427281E+03	4.501990E-04	1.010925E-04
2.467073E+03	4.834570E-04	1.085331E-04
2.506864E+03	5.183110E-04	1.163276E-04
2.546656E+03	5.549045E-04	1.245077E-04
2.586447E+03	5.935831E-04	1.331505E-04
2.626239E+03	6.347136E-04	1.423377E-04
2.666030E+03	6.786713E-04	1.521529E-04
2.705821E+03	7.257193E-04	1.626543E-04
2.745613E+03	7.763251E-04	1.739459E-04
2.785404E+03	8.307163E-04	1.860778E-04
2.825196E+03	8.894558E-04	1.991751E-04
2.864987E+03	9.527111E-04	2.132742E-04
2.904779E+03	1.020851E-03	2.284565E-04
2.944570E+03	1.094336E-03	2.448237E-04
2.984362E+03	1.173128E-03	2.623657E-04
2.994310E+03	1.193693E-03	2.669433E-04
3.004258E+03	1.214692E-03	2.716167E-04
3.014206E+03	1.235966E-03	2.763510E-04
3.024153E+03	1.257678E-03	2.811824E-04
3.034101E+03	1.279876E-03	2.861214E-04
3.044049E+03	1.302451E-03	2.911437E-04
3.053997E+03	1.325542E-03	2.962803E-04
3.063945E+03	1.348968E-03	3.014911E-04
3.073893E+03	1.373034E-03	3.068437E-04
3.083841E+03	1.397398E-03	3.122619E-04
3.093789E+03	1.422367E-03	3.178143E-04
3.103736E+03	1.447594E-03	3.234233E-04
3.113684E+03	1.473391E-03	3.291585E-04
3.123632E+03	1.499404E-03	3.349408E-04
3.133580E+03	1.525950E-03	3.408410E-04
3.143528E+03	1.552839E-03	3.468169E-04
3.153476E+03	1.580051E-03	3.528636E-04
3.163424E+03	1.607563E-03	3.589760E-04
3.173372E+03	1.635527E-03	3.651883E-04
3.183319E+03	1.663923E-03	3.714959E-04
3.193267E+03	1.692553E-03	3.778543E-04
3.203215E+03	1.721570E-03	3.842979E-04
3.213163E+03	1.750773E-03	3.907815E-04
3.223111E+03	1.780313E-03	3.973393E-04
3.233059E+03	1.810168E-03	4.039659E-04
3.243007E+03	1.840310E-03	4.106554E-04
3.252955E+03	1.870715E-03	4.174020E-04
3.262902E+03	1.901354E-03	4.241996E-04
3.272850E+03	1.932200E-03	4.310418E-04
3.282798E+03	1.963407E-03	4.379633E-04
3.292746E+03	1.994577E-03	4.448750E-04
3.302694E+03	2.026236E-03	4.518943E-04
3.312642E+03	2.057794E-03	4.588897E-04
3.322590E+03	2.089779E-03	4.659789E-04
3.332538E+03	2.121785E-03	4.730713E-04
3.342485E+03	2.153967E-03	4.802012E-04
3.352433E+03	2.186289E-03	4.873610E-04
3.362381E+03	2.218717E-03	4.945429E-04
3.372329E+03	2.251216E-03	5.017390E-04
3.382277E+03	2.283937E-03	5.089831E-04
3.392225E+03	2.316656E-03	5.162252E-04
3.402173E+03	2.349334E-03	5.234566E-04
3.412120E+03	2.382122E-03	5.307109E-04
3.422068E+03	2.414793E-03	5.379375E-04
3.432016E+03	2.447682E-03	5.452113E-04
3.441964E+03	2.480375E-03	5.524396E-04
3.451912E+03	2.513205E-03	5.596970E-04
3.461860E+03	2.545944E-03	5.669325E-04
3.471808E+03	2.578550E-03	5.741367E-04
3.481756E+03	2.611167E-03	5.813418E-04
3.491703E+03	2.643567E-03	5.884970E-04
3.501651E+03	2.675892E-03	5.956339E-04
3.511599E+03	2.708099E-03	6.027427E-04
3.521547E+03	2.740142E-03	6.098136E-04
3.531495E+03	2.771979E-03	6.168370E-04
3.541443E+03	2.803749E-03	6.238439E-04
3.551391E+03	2.835223E-03	6.307834E-04
3.561339E+03	2.866356E-03	6.376455E-04
3.571286E+03	2.897467E-03	6.445009E-04
3.581234E+03	2.928148E-03	6.512591E-04
3.591182E+03	2.958714E-03	6.579903E-04
3.601130E+03	2.988938E-03	6.646439E-04
3.611078E+03	3.018781E-03	6.712112E-04
3.621026E+03	3.048368E-03	6.777198E-04
3.630974E+03	3.077488E-03	6.841232E-04
3.640922E+03	3.106431E-03	6.904858E-04
3.650869E+03	3.134821E-03	6.967238E-04
3.660817E+03	3.162948E-03	7.029021E-04
3.670765E+03	3.190604E-03	7.089741E-04
3.680713E+03	3.217750E-03	7.149314E-04
3.690661E+03	3.244665E-03	7.208359E-04
3.700609E+03	3.270988E-03	7.266073E-04
3.710557E+03	3.296839E-03	7.322727E-04
3.720505E+03	3.322182E-03	7.378236E-04
3.730452E+03	3.347134E-03	7.432865E-04
3.740400E+03	3.371501E-03	7.486181E-04
3.750348E+03	3.395404E-03	7.538454E-04
3.760296E+03	3.418808E-03	7.589605E-04
3.770244E+03	3.441530E-03	7.639231E-04
3.780192E+03	3.463839E-03	7.687926E-04
3.790140E+03	3.485551E-03	7.735285E-04
3.800088E+03	3.506645E-03	7.781258E-04
3.810035E+03	3.527235E-03	7.826105E-04
3.819983E+03	3.547292E-03	7.869755E-04
3.829931E+03	3.566662E-03	7.911869E-04
3.839879E+03	3.585460E-03	7.952705E-04
3.849827E+03	3.603664E-03	7.992212E-04
3.859775E+03	3.621263E-03	8.030370E-04
3.869723E+03	3.638244E-03	8.067144E-04
3.879671E+03	3.654716E-03	8.102782E-04
3.889618E+03	3.670428E-03	8.136722E-04
3.899566E+03	3.685616E-03	8.169496E-04
3.909514E+03	3.700279E-03	8.201093E-04
3.919462E+03	3.714290E-03	8.231240E-04
3.929410E+03	3.727651E-03	8.259937E-04
3.939358E+03	3.740489E-03	8.287467E-04
3.949306E+03	3.752802E-03	8.313828E-04
3.959254E+03	3.764376E-03	8.338543E-04
3.969201E+03	3.775556E-03	8.362379E-04
3.979149E+03	3.786024E-03	8.384630E-04
3.989097E+03	3.796018E-03	8.405826E-04
3.999045E+03	3.805551E-03	8.425996E-04
4.008993E+03	3.814436E-03	8.444723E-04
4.018941E+03	3.822801E-03	8.462296E-04
4.028889E+03	3.830771E-03	8.478987E-04
4.038836E+03	3.838172E-03	8.494416E-04
4.048784E+03	3.845037E-03	8.508654E-04
4.058732E+03	3.851494E-03	8.521984E-04
4.068680E+03	3.857481E-03	8.534270E-04
4.078628E+03	3.863034E-03	8.545591E-04
4.088576E+03	3.868098E-03	8.555827E-04
4.098524E+03	3.872799E-03	8.565259E-04
4.108472E+03	3.877008E-03	8.573598E-04
4.118419E+03	3.880933E-03	8.581307E-04
4.128367E+03	3.884361E-03	8.587913E-04
4.138315E+03	3.887420E-03	8.593704E-04
4.148263E+03	3.890159E-03	8.598783E-04
4.158211E+03	3.892457E-03	8.602886E-04
4.168159E+03	3.894441E-03	8.606293E-04
4.178107E+03	3.896080E-03	8.608938E-04
4.188055E+03	3.897341E-03	8.610745E-04
4.198002E+03	3.898276E-03	8.611832E-04
4.207950E+03	3.898930E-03	8.612296E-04
4.217898E+03	3.899202E-03	8.611917E-04
4.227846E+03	3.899142E-03	8.610805E-04
4.237794E+03	3.898729E-03	8.608911E-04
4.247742E+03	3.898005E-03	8.606333E-04
4.257690E+03	3.896889E-03	8.602889E-04
4.267638E+03	3.895488E-03	8.598816E-04
4.277585E+03	3.893655E-03	8.593791E-04
4.287533E+03	3.891565E-03	8.588200E-04
4.297481E+03	3.889007E-03	8.581577E-04
4.307429E+03	3.886091E-03	8.574168E-04
4.317377E+03	3.882741E-03	8.565800E-04
4.327325E+03	3.879000E-03	8.556574E-04
4.337273E+03	3.874735E-03	8.546193E-04
4.347221E+03	3.869992E-03	8.534761E-04
4.357168E+03	3.864699E-03	8.522120E-04
4.367116E+03	3.858851E-03	8.508256E-04
4.377064E+03	3.852320E-03	8.492892E-04
4.387012E+03	3.845104E-03	8.476022E-04
4.396960E+03	3.837085E-03	8.457386E-04
4.406908E+03	3.828155E-03	8.436748E-04
4.416856E+03	3.818264E-03	8.413997E-04
4.426804E+03	3.807307E-03	8.388904E-04
4.436751E+03	3.795297E-03	8.361498E-04
4.446699E+03	3.782394E-03	8.332130E-04
4.456647E+03	3.768701E-03	8.301031E-04
4.466595E+03	3.754262E-03	8.268296E-04
4.476543E+03	3.739324E-03	8.234472E-04
4.486491E+03	3.723820E-03	8.199410E-04
4.496439E+03	3.707891E-03	8.163420E-04
4.506387E+03	3.691615E-03	8.126677E-04
4.516334E+03	3.675068E-03	8.089348E-04
4.526282E+03	3.658274E-03	8.051483E-04
4.536230E+03	3.641313E-03	8.013260E-04
4.546178E+03	3.624200E-03	7.974715E-04
4.556126E+03	3.607009E-03	7.936007E-04
4.566074E+03	3.589758E-03	7.897179E-04
4.576022E+03	3.572512E-03	7.858372E-04
4.585970E+03	3.555337E-03	7.819730E-04
4.595917E+03	3.538202E-03	7.781187E-04
4.605865E+03	3.521255E-03	7.743069E-04
4.615813E+03	3.504428E-03	7.705224E-04
4.625761E+03	3.487818E-03	7.667866E-04
4.635709E+03	3.471480E-03	7.631117E-04
4.645657E+03	3.455430E-03	7.595011E-04
4.655605E+03	3.439675E-03	7.559563E-04
4.665553E+03	3.424350E-03	7.525070E-04
4.675500E+03	3.409426E-03	7.491469E-04
4.685448E+03	3.394944E-03	7.458848E-04
4.695396E+03	3.381000E-03	7.427418E-04
4.705344E+03	3.367632E-03	7.397265E-04
4.715292E+03	3.354846E-03	7.368397E-04
4.725240E+03	3.342721E-03	7.340989E-04
4.735188E+03	3.331300E-03	7.315138E-04
4.745135E+03	3.320622E-03	7.290923E-04
4.755083E+03	3.310797E-03	7.268592E-04
4.765031E+03	3.301784E-03	7.248049E-04
4.774979E+03	3.293578E-03	7.229286E-04
4.784927E+03	3.286173E-03	7.212287E-04
4.794875E+03	3.279526E-03	7.196956E-04
4.804823E+03	3.273628E-03	7.183278E-04
4.814771E+03	3.268437E-03	7.171154E-04
4.824718E+03	3.263942E-03	7.160563E-04
4.834666E+03	3.260095E-03	7.151400E-04
4.844614E+03	3.256893E-03	7.143654E-04
4.854562E+03	3.254315E-03	7.137283E-04
4.864510E+03	3.252320E-03	7.132194E-04
4.874458E+03	3.250888E-03	7.128344E-04
4.884406E+03	3.250046E-03	7.125790E-04
4.894354E+03	3.249698E-03	7.124323E-04
4.904301E+03	3.249906E-03	7.124078E-04
4.914249E+03	3.250577E-03	7.124850E-04
4.924197E+03	3.251722E-03	7.126665E-04
4.934145E+03	3.253327E-03	7.129489E-04
4.944093E+03	3.255327E-03	7.133182E-04
4.954041E+03	3.257736E-03	7.137774E-04
4.963989E+03	3.260527E-03	7.143204E-04
4.973937E+03	3.263676E-03	7.149419E-04
4.983884E+03	3.267120E-03	7.156284E-04
4.993832E+03	3.270861E-03	7.163801E-04
5.003780E+03	3.274871E-03	7.171908E-04
5.013728E+03	3.279123E-03	7.180546E-04
5.023676E+03	3.283578E-03	7.189631E-04
5.033624E+03	3.288207E-03	7.199097E-04
5.043572E+03	3.292974E-03	7.208868E-04
5.053520E+03	3.297849E-03	7.218875E-04
5.063467E+03	3.302825E-03	7.229105E-04
5.073415E+03	3.307835E-03	7.239412E-04
5.083363E+03	3.312846E-03	7.249720E-04
5.093311E+03	3.317815E-03	7.259939E-04
5.103259E+03	3.322745E-03	7.270075E-04
5.113207E+03	3.327599E-03	7.280044E-04
5.123155E+03	3.332302E-03	7.289686E-04
5.133103E+03	3.336823E-03	7.298930E-04
5.143050E+03	3.341195E-03	7.307852E-04
5.152998E+03	3.345311E-03	7.316213E-04
5.162946E+03	3.349174E-03	7.324026E-04
5.172894E+03	3.352751E-03	7.331212E-04
5.182842E+03	3.356007E-03	7.337701E-04
5.192790E+03	3.358913E-03	7.343427E-04
5.202738E+03	3.361440E-03	7.348326E-04
5.212686E+03	3.363560E-03	7.352340E-04
5.222633E+03	3.365244E-03	7.355402E-04
5.232581E+03	3.366472E-03	7.357470E-04
5.242529E+03	3.367254E-03	7.358569E-04
5.252477E+03	3.367539E-03	7.358584E-04
5.262425E+03	3.367303E-03	7.357464E-04
5.272373E+03	3.366567E-03	7.355256E-04
5.282321E+03	3.365252E-03	7.351788E-04
5.292269E+03	3.363448E-03	7.347256E-04
5.302216E+03	3.361040E-03	7.341410E-04
5.312164E+03	3.358099E-03	7.334402E-04
5.322112E+03	3.354619E-03	7.326225E-04
5.332060E+03	3.350528E-03	7.316719E-04
5.342008E+03	3.345897E-03	7.306038E-04
5.351956E+03	3.340737E-03	7.294208E-04
5.361904E+03	3.334980E-03	7.281079E-04
5.371851E+03	3.328707E-03	7.266833E-04
5.381799E+03	3.321896E-03	7.251418E-04
5.391747E+03	3.314595E-03	7.234939E-04
5.401695E+03	3.306750E-03	7.217279E-04
5.411643E+03	3.298452E-03	7.198638E-04
5.421591E+03	3.289650E-03	7.178906E-04
5.431539E+03	3.280434E-03	7.158274E-04
5.441487E+03	3.270760E-03	7.136654E-04
5.451434E+03	3.260720E-03	7.114242E-04
5.461382E+03	3.250274E-03	7.090952E-04
5.471330E+03	3.239514E-03	7.066984E-04
5.481278E+03	3.228467E-03	7.042397E-04
5.491226E+03	3.217095E-03	7.017111E-04
5.501174E+03	3.205523E-03	6.991398E-04
5.511122E+03	3.193685E-03	6.965110E-04
5.521070E+03	3.181671E-03	6.938450E-04
5.531017E+03	3.169479E-03	6.911408E-04
5.540965E+03	3.157136E-03	6.884046E-04
5.550913E+03	3.144670E-03	6.856424E-04
5.560861E+03	3.132108E-03	6.828600E-04
5.570809E+03	3.119475E-03	6.800631E-04
5.580757E+03	3.106797E-03	6.772572E-04
5.590705E+03	3.094128E-03	6.744542E-04
5.600653E+03	3.081460E-03	6.716523E-04
5.610600E+03	3.068815E-03	6.688563E-04
5.620548E+03	3.056214E-03	6.660707E-04
5.630496E+03	3.043705E-03	6.633060E-04
5.640444E+03	3.031247E-03	6.605531E-04
5.650392E+03	3.018914E-03	6.578285E-04
5.660340E+03	3.006692E-03	6.551290E-04
5.670288E+03	2.994624E-03	6.524637E-04
5.680236E+03	2.982662E-03	6.498225E-04
5.690183E+03	2.970847E-03	6.472141E-04
5.700131E+03	2.959217E-03	6.446467E-04
5.710079E+03	2.947720E-03	6.421093E-04
5.720027E+03	2.936392E-03	6.396096E-04
5.729975E+03	2.925239E-03	6.371486E-04
5.739923E+03	2.914263E-03	6.347273E-04
5.749871E+03	2.903468E-03	6.323461E-04
5.759819E+03	2.892827E-03	6.299991E-04
5.769766E+03	2.882340E-03	6.276867E-04
5.779714E+03	2.872035E-03	6.254146E-04
5.789662E+03	2.861883E-03	6.231767E-04
5.799610E+03	2.851908E-03	6.209783E-04
5.809558E+03	2.842054E-03	6.188068E-04
5.819506E+03	2.832371E-03	6.166735E-04
5.829454E+03	2.822801E-03	6.145655E-04
5.839402E+03	2.813393E-03	6.124937E-04
5.849349E+03	2.804087E-03	6.104450E-04
5.859297E+03	2.794906E-03	6.084242E-04
5.869245E+03	2.785816E-03	6.064240E-04
5.879193E+03	2.776838E-03	6.044490E-04
5.889141E+03	2.767939E-03	6.024919E-04
5.899089E+03	2.759111E-03	6.005513E-04
5.909037E+03	2.750349E-03	5.986257E-04
5.918985E+03	2.741671E-03	5.967193E-04
5.928932E+03	2.733017E-03	5.948190E-04
5.938880E+03	2.724408E-03	5.929292E-04
5.948828E+03	2.715834E-03	5.910480E-04
5.958776E+03	2.707264E-03	5.891682E-04
5.968724E+03	2.698689E-03	5.872885E-04
5.978672E+03	2.690103E-03	5.854070E-04
5.988620E+03	2.681525E-03	5.835280E-04
5.998568E+03	2.672894E-03	5.816384E-04
6.008515E+03	2.664204E-03	5.797367E-04
6.018463E+03	2.655473E-03	5.778270E-04
6.028411E+03	2.646642E-03	5.758965E-04
6.038359E+03	2.637756E-03	5.739548E-04
6.048307E+03	2.628731E-03	5.719836E-04
6.058255E+03	2.619610E-03	5.699924E-04
6.068203E+03	2.610336E-03	5.679687E-04
6.078150E+03	2.600925E-03	5.659162E-04
6.088098E+03	2.591347E-03	5.638281E-04
6.098046E+03	2.581568E-03	5.616970E-04
6.107994E+03	2.571631E-03	5.595326E-04
6.117942E+03	2.561505E-03	5.573277E-04
6.127890E+03	2.551180E-03	5.550806E-04
6.137838E+03	2.540676E-03	5.527953E-04
6.147786E+03	2.529984E-03	5.504699E-04
6.157733E+03	2.519121E-03	5.481082E-04
6.167681E+03	2.508031E-03	5.456978E-04
6.177629E+03	2.496705E-03	5.432370E-04
6.187577E+03	2.485161E-03	5.407296E-04
6.197525E+03	2.473367E-03	5.381687E-04
6.207473E+03	2.461341E-03	5.355580E-04
6.217421E+03	2.449099E-03	5.329013E-04
6.227369E+03	2.436611E-03	5.301917E-04
6.237316E+03	2.423918E-03	5.274384E-04
6.247264E+03	2.410989E-03	5.246346E-04
6.257212E+03	2.397867E-03	5.217896E-04
6.267160E+03	2.384546E-03	5.189020E-04
6.277108E+03	2.371019E-03	5.159705E-04
6.287056E+03	2.357306E-03	5.129994E-04
6.297004E+03	2.343403E-03	5.099875E-04
6.306952E+03	2.329330E-03	5.069392E-04
6.316899E+03	2.315059E-03	5.038489E-04
6.326847E+03	2.300590E-03	5.007159E-04
6.336795E+03	2.285968E-03	4.975503E-04
6.346743E+03	2.271192E-03	4.943518E-04
6.356691E+03	2.256217E-03	4.911105E-04
6.366639E+03	2.241068E-03	4.878321E-04
6.376587E+03	2.225772E-03	4.845220E-04
6.386535E+03	2.210287E-03	4.811713E-04
6.396482E+03	2.194642E-03	4.777863E-04
6.406430E+03	2.178821E-03	4.743635E-04
6.416378E+03	2.162812E-03	4.709000E-04
6.426326E+03	2.146646E-03	4.674029E-04
6.436274E+03	2.130269E-03	4.638599E-04
6.446222E+03	2.113671E-03	4.602693E-04
6.456170E+03	2.096889E-03	4.566389E-04
6.466118E+03	2.079894E-03	4.529625E-04
6.476065E+03	2.062703E-03	4.492436E-04
6.486013E+03	2.045377E-03	4.454954E-04
6.495961E+03	2.027974E-03	4.417307E-04
6.505909E+03	2.010512E-03	4.379533E-04
6.515857E+03	1.993029E-03	4.341714E-04
6.525805E+03	1.975604E-03	4.304022E-04
6.535753E+03	1.958211E-03	4.266400E-04
6.545701E+03	1.940907E-03	4.228974E-04
6.555648E+03	1.923728E-03	4.191821E-04
6.565596E+03	1.906669E-03	4.154929E-04
6.575544E+03	1.889763E-03	4.118371E-04
6.585492E+03	1.873046E-03	4.082223E-04
6.595440E+03	1.856489E-03	4.046425E-04
6.605388E+03	1.840165E-03	4.011136E-04
6.615336E+03	1.824047E-03	3.976294E-04
6.625284E+03	1.808166E-03	3.941966E-04
6.635231E+03	1.792531E-03	3.908177E-04
6.645179E+03	1.777134E-03	3.874905E-04
6.655127E+03	1.762024E-03	3.842256E-04
6.665075E+03	1.747188E-03	3.810204E-04
6.675023E+03	1.732615E-03	3.778726E-04
6.684971E+03	1.718351E-03	3.747920E-04
6.694919E+03	1.704365E-03	3.717718E-04
6.704866E+03	1.690680E-03	3.688173E-04
6.714814E+03	1.677302E-03	3.659297E-04
6.724762E+03	1.664254E-03	3.631138E-04
6.734710E+03	1.651502E-03	3.603624E-04
6.744658E+03	1.639067E-03	3.576800E-04
6.754606E+03	1.626934E-03	3.550632E-04
6.764554E+03	1.615139E-03	3.525203E-04
6.774502E+03	1.603667E-03	3.500476E-04
6.784449E+03	1.592497E-03	3.476409E-04
6.794397E+03	1.581668E-03	3.453082E-04
6.804345E+03	1.571140E-03	3.430412E-04
6.814293E+03	1.560931E-03	3.408437E-04
6.824241E+03	1.551038E-03	3.387151E-04
6.834189E+03	1.541439E-03	3.366507E-04
6.844137E+03	1.532169E-03	3.346579E-04
6.854085E+03	1.523187E-03	3.327277E-04
6.864032E+03	1.514524E-03	3.308673E-04
6.873980E+03	1.506140E-03	3.290675E-04
6.883928E+03	1.498046E-03	3.273313E-04
6.893876E+03	1.490239E-03	3.256573E-04
6.903824E+03	1.482693E-03	3.240405E-04
6.913772E+03	1.475438E-03	3.224870E-04
6.923720E+03	1.468449E-03	3.209917E-04
6.933668E+03	1.461701E-03	3.195490E-04
6.943615E+03	1.455206E-03	3.181614E-04
6.953563E+03	1.448972E-03	3.168309E-04
6.963511E+03	1.442958E-03	3.155483E-04
6.973459E+03	1.437172E-03	3.143155E-04
6.983407E+03	1.431607E-03	3.131309E-04
6.993355E+03	1.426272E-03	3.119967E-04
7.003303E+03	1.421124E-03	3.109032E-04
7.013251E+03	1.416172E-03	3.098526E-04
7.023198E+03	1.411408E-03	3.088429E-04
7.033146E+03	1.406824E-03	3.078727E-04
7.043094E+03	1.402411E-03	3.069398E-04
7.053042E+03	1.398179E-03	3.060464E-04
7.062990E+03	1.394086E-03	3.051834E-04
7.072938E+03	1.390157E-03	3.043563E-04
7.082886E+03	1.386369E-03	3.035600E-04
7.092834E+03	1.382714E-03	3.027927E-04
7.102781E+03	1.379184E-03	3.020528E-04
7.112729E+03	1.375773E-03	3.013390E-04
7.122677E+03	1.372492E-03	3.006534E-04
7.132625E+03	1.369316E-03	2.999911E-04
7.142573E+03	1.366241E-03	2.993506E-04
7.152521E+03	1.363260E-03	2.987308E-04
7.162469E+03	1.360386E-03	2.981343E-04
7.172417E+03	1.357597E-03	2.975564E-04
7.182364E+03	1.354904E-03	2.969997E-04
7.192312E+03	1.352289E-03	2.964597E-04
7.202260E+03	1.349763E-03	2.959394E-04
7.212208E+03	1.347306E-03	2.954343E-04
7.222156E+03	1.344934E-03	2.949475E-04
7.232104E+03	1.342626E-03	2.944749E-04
7.242052E+03	1.340398E-03	2.940198E-04
7.252000E+03	1.338248E-03	2.935818E-04
7.261947E+03	1.336176E-03	2.931609E-04
7.271895E+03	1.334163E-03	2.927528E-04
7.281843E+03	1.332227E-03	2.923616E-04
7.291791E+03	1.330367E-03	2.919871E-04
7.301739E+03	1.328584E-03	2.916294E-04
7.311687E+03	1.326879E-03	2.912888E-04
7.321635E+03	1.325270E-03	2.909691E-04
7.331583E+03	1.323740E-03	2.906670E-04
7.341530E+03	1.322292E-03	2.903826E-04
7.351478E+03	1.320944E-03	2.901202E-04
7.361426E+03	1.319698E-03	2.898803E-04
7.371374E+03	1.318574E-03	2.896671E-04
7.381322E+03	1.317538E-03	2.894733E-04
7.391270E+03	1.316628E-03	2.893072E-04
7.401218E+03	1.315847E-03	2.891693E-04
7.411165E+03	1.315178E-03	2.890560E-04
7.421113E+03	1.314624E-03	2.889680E-04
7.431061E+03	1.314187E-03	2.889058E-04
7.441009E+03	1.313851E-03	2.888658E-04
7.450957E+03	1.313619E-03	2.888485E-04
7.460905E+03	1.313491E-03	2.888543E-04
7.470853E+03	1.313453E-03	2.888798E-04
7.480801E+03	1.313523E-03	2.889290E-04
7.490748E+03	1.313703E-03	2.890025E-04
7.500696E+03	1.313959E-03	2.890927E-04
7.510644E+03	1.314327E-03	2.892076E-04
7.520592E+03	1.314773E-03	2.893397E-04
7.530540E+03	1.315316E-03	2.894932E-04
7.540488E+03	1.315957E-03	2.896681E-04
7.550436E+03	1.316677E-03	2.898607E-04
7.560384E+03	1.317497E-03	2.900751E-04
7.570331E+03	1.318416E-03	2.903116E-04
7.580279E+03	1.319417E-03	2.905661E-04
7.590227E+03	1.320501E-03	2.908389E-04
7.600175E+03	1.321687E-03	2.911341E-04
7.610123E+03	1.322957E-03	2.914479E-04
7.620071E+03	1.324311E-03	2.917804E-04
7.630019E+03	1.325770E-03	2.921359E-04
7.639967E+03	1.327298E-03	2.925068E-04
7.649914E+03	1.328932E-03	2.929012E-04
7.659862E+03	1.330657E-03	2.933157E-04
7.669810E+03	1.332493E-03	2.937546E-04
7.679758E+03	1.334407E-03	2.942106E-04
7.689706E+03	1.336436E-03	2.946925E-04
7.699654E+03	1.338569E-03	2.951969E-04
7.709602E+03	1.340825E-03	2.957289E-04
7.719550E+03	1.343174E-03	2.962814E-04
