#wls	flux	fluxerr
1.591660E+03	2.421648E-04	6.347206E-06
1.631451E+03	2.476502E-04	6.482639E-06
1.671243E+03	2.527618E-04	6.607717E-06
1.711034E+03	2.575105E-04	6.722745E-06
1.750826E+03	2.618324E-04	6.826082E-06
1.790617E+03	2.655581E-04	6.913345E-06
1.830409E+03	2.685152E-04	6.980110E-06
1.870200E+03	2.703299E-04	7.016747E-06
1.909992E+03	2.708795E-04	7.020201E-06
1.949783E+03	2.699149E-04	6.984173E-06
1.989575E+03	2.675166E-04	6.910928E-06
2.029366E+03	2.643283E-04	6.817249E-06
2.069158E+03	2.618390E-04	6.741578E-06
2.108949E+03	2.621285E-04	6.737289E-06
2.148741E+03	2.671911E-04	6.855165E-06
2.188532E+03	2.780140E-04	7.119813E-06
2.228324E+03	2.942868E-04	7.522453E-06
2.268115E+03	3.146963E-04	8.028746E-06
2.307907E+03	3.379445E-04	8.604960E-06
2.347698E+03	3.628329E-04	9.220135E-06
2.387490E+03	3.888684E-04	9.861435E-06
2.427281E+03	4.157473E-04	1.052090E-05
2.467073E+03	4.436297E-04	1.120235E-05
2.506864E+03	4.725216E-04	1.190566E-05
2.546656E+03	5.028096E-04	1.264030E-05
2.586447E+03	5.347651E-04	1.341272E-05
2.626239E+03	5.686692E-04	1.422956E-05
2.666030E+03	6.048999E-04	1.509978E-05
2.705821E+03	6.437432E-04	1.602997E-05
2.745613E+03	6.856861E-04	1.703161E-05
2.785404E+03	7.310111E-04	1.811096E-05
2.825196E+03	7.800917E-04	1.927645E-05
2.864987E+03	8.334055E-04	2.053896E-05
2.904779E+03	8.911676E-04	2.190276E-05
2.944570E+03	9.539196E-04	2.338002E-05
2.984362E+03	1.021901E-03	2.497538E-05
2.994310E+03	1.039869E-03	2.539631E-05
3.004258E+03	1.058157E-03	2.582435E-05
3.014206E+03	1.076763E-03	2.625944E-05
3.024153E+03	1.095696E-03	2.670176E-05
3.034101E+03	1.115142E-03	2.715582E-05
3.044049E+03	1.135001E-03	2.761916E-05
3.053997E+03	1.155405E-03	2.809496E-05
3.063945E+03	1.176193E-03	2.857929E-05
3.073893E+03	1.197500E-03	2.907537E-05
3.083841E+03	1.219313E-03	2.958287E-05
3.093789E+03	1.241465E-03	3.009775E-05
3.103736E+03	1.264095E-03	3.062329E-05
3.113684E+03	1.287189E-03	3.115914E-05
3.123632E+03	1.310575E-03	3.170112E-05
3.133580E+03	1.334551E-03	3.225641E-05
3.143528E+03	1.358945E-03	3.282084E-05
3.153476E+03	1.383580E-03	3.339007E-05
3.163424E+03	1.408760E-03	3.397143E-05
3.173372E+03	1.434307E-03	3.456059E-05
3.183319E+03	1.460366E-03	3.516105E-05
3.193267E+03	1.486589E-03	3.576435E-05
3.203215E+03	1.513286E-03	3.637797E-05
3.213163E+03	1.540439E-03	3.700143E-05
3.223111E+03	1.567858E-03	3.763015E-05
3.233059E+03	1.595691E-03	3.826764E-05
3.243007E+03	1.623743E-03	3.890921E-05
3.252955E+03	1.652161E-03	3.955836E-05
3.262902E+03	1.681097E-03	4.021870E-05
3.272850E+03	1.710176E-03	4.088123E-05
3.282798E+03	1.739545E-03	4.154946E-05
3.292746E+03	1.769176E-03	4.222269E-05
3.302694E+03	1.799221E-03	4.290451E-05
3.312642E+03	1.829470E-03	4.358992E-05
3.322590E+03	1.860074E-03	4.428247E-05
3.332538E+03	1.890821E-03	4.497711E-05
3.342485E+03	1.921677E-03	4.567303E-05
3.352433E+03	1.952974E-03	4.637805E-05
3.362381E+03	1.984313E-03	4.708273E-05
3.372329E+03	2.016025E-03	4.779488E-05
3.382277E+03	2.047708E-03	4.850496E-05
3.392225E+03	2.079693E-03	4.922079E-05
3.402173E+03	2.111758E-03	4.993712E-05
3.412120E+03	2.144050E-03	5.065740E-05
3.422068E+03	2.176346E-03	5.137635E-05
3.432016E+03	2.208791E-03	5.209737E-05
3.441964E+03	2.241344E-03	5.281952E-05
3.451912E+03	2.273966E-03	5.354182E-05
3.461860E+03	2.306613E-03	5.426329E-05
3.471808E+03	2.339430E-03	5.498727E-05
3.481756E+03	2.372004E-03	5.570409E-05
3.491703E+03	2.404845E-03	5.642571E-05
3.501651E+03	2.437541E-03	5.714245E-05
3.511599E+03	2.470232E-03	5.785760E-05
3.521547E+03	2.502873E-03	5.857010E-05
3.531495E+03	2.535418E-03	5.927890E-05
3.541443E+03	2.567823E-03	5.998294E-05
3.551391E+03	2.600223E-03	6.068538E-05
3.561339E+03	2.632568E-03	6.138510E-05
3.571286E+03	2.664636E-03	6.207685E-05
3.581234E+03	2.696732E-03	6.276783E-05
3.591182E+03	2.728457E-03	6.344869E-05
3.601130E+03	2.760115E-03	6.412655E-05
3.611078E+03	2.791482E-03	6.479620E-05
3.621026E+03	2.822683E-03	6.546057E-05
3.630974E+03	2.853669E-03	6.611853E-05
3.640922E+03	2.884390E-03	6.676893E-05
3.650869E+03	2.914627E-03	6.740672E-05
3.660817E+03	2.944841E-03	6.804258E-05
3.670765E+03	2.974475E-03	6.866367E-05
3.680713E+03	3.003978E-03	6.928036E-05
3.690661E+03	3.032973E-03	6.988399E-05
3.700609E+03	3.061573E-03	7.047719E-05
3.710557E+03	3.089892E-03	7.106259E-05
3.720505E+03	3.117715E-03	7.163529E-05
3.730452E+03	3.145000E-03	7.219437E-05
3.740400E+03	3.172010E-03	7.274587E-05
3.750348E+03	3.198386E-03	7.328160E-05
3.760296E+03	3.224238E-03	7.380412E-05
3.770244E+03	3.249523E-03	7.431248E-05
3.780192E+03	3.274345E-03	7.480911E-05
3.790140E+03	3.298660E-03	7.529299E-05
3.800088E+03	3.322281E-03	7.575995E-05
3.810035E+03	3.345316E-03	7.621246E-05
3.819983E+03	3.367729E-03	7.664978E-05
3.829931E+03	3.389483E-03	7.707108E-05
3.839879E+03	3.410552E-03	7.747581E-05
3.849827E+03	3.431038E-03	7.786636E-05
3.859775E+03	3.450918E-03	7.824224E-05
3.869723E+03	3.470031E-03	7.859986E-05
3.879671E+03	3.488496E-03	7.894193E-05
3.889618E+03	3.506416E-03	7.927086E-05
3.899566E+03	3.523527E-03	7.958074E-05
3.909514E+03	3.539951E-03	7.987434E-05
3.919462E+03	3.555680E-03	8.015156E-05
3.929410E+03	3.570832E-03	8.041510E-05
3.939358E+03	3.585296E-03	8.066249E-05
3.949306E+03	3.599074E-03	8.089385E-05
3.959254E+03	3.612294E-03	8.111210E-05
3.969201E+03	3.624860E-03	8.131514E-05
3.979149E+03	3.636791E-03	8.150342E-05
3.989097E+03	3.648224E-03	8.168005E-05
3.999045E+03	3.659073E-03	8.184318E-05
4.008993E+03	3.669376E-03	8.199368E-05
4.018941E+03	3.679268E-03	8.213463E-05
4.028889E+03	3.688584E-03	8.226235E-05
4.038836E+03	3.697572E-03	8.238243E-05
4.048784E+03	3.706073E-03	8.249138E-05
4.058732E+03	3.714241E-03	8.259261E-05
4.068680E+03	3.722025E-03	8.268507E-05
4.078628E+03	3.729580E-03	8.277219E-05
4.088576E+03	3.736771E-03	8.285105E-05
4.098524E+03	3.743756E-03	8.292514E-05
4.108472E+03	3.750498E-03	8.299367E-05
4.118419E+03	3.757067E-03	8.305821E-05
4.128367E+03	3.763518E-03	8.312002E-05
4.138315E+03	3.769748E-03	8.317683E-05
4.148263E+03	3.775910E-03	8.323202E-05
4.158211E+03	3.781903E-03	8.328339E-05
4.168159E+03	3.787873E-03	8.333418E-05
4.178107E+03	3.793805E-03	8.338406E-05
4.188055E+03	3.799686E-03	8.343275E-05
4.198002E+03	3.805430E-03	8.347839E-05
4.207950E+03	3.811172E-03	8.352397E-05
4.217898E+03	3.816899E-03	8.356920E-05
4.227846E+03	3.822527E-03	8.361223E-05
4.237794E+03	3.828048E-03	8.365292E-05
4.247742E+03	3.833518E-03	8.369253E-05
4.257690E+03	3.838848E-03	8.372913E-05
4.267638E+03	3.844029E-03	8.376250E-05
4.277585E+03	3.849046E-03	8.379238E-05
4.287533E+03	3.853877E-03	8.381830E-05
4.297481E+03	3.858502E-03	8.383985E-05
4.307429E+03	3.862777E-03	8.385388E-05
4.317377E+03	3.866737E-03	8.386126E-05
4.327325E+03	3.870302E-03	8.386024E-05
4.337273E+03	3.873442E-03	8.385021E-05
4.347221E+03	3.876191E-03	8.383195E-05
4.357168E+03	3.878398E-03	8.380224E-05
4.367116E+03	3.880090E-03	8.376167E-05
4.377064E+03	3.881227E-03	8.370947E-05
4.387012E+03	3.881839E-03	8.364631E-05
4.396960E+03	3.881821E-03	8.356994E-05
4.406908E+03	3.881302E-03	8.348323E-05
4.416856E+03	3.880239E-03	8.338527E-05
4.426804E+03	3.878636E-03	8.327619E-05
4.436751E+03	3.876392E-03	8.315389E-05
4.446699E+03	3.873517E-03	8.301860E-05
4.456647E+03	3.869904E-03	8.286808E-05
4.466595E+03	3.865464E-03	8.270049E-05
4.476543E+03	3.860250E-03	8.251700E-05
4.486491E+03	3.854229E-03	8.231698E-05
4.496439E+03	3.847358E-03	8.209958E-05
4.506387E+03	3.839698E-03	8.186611E-05
4.516334E+03	3.831217E-03	8.161598E-05
4.526282E+03	3.821979E-03	8.135059E-05
4.536230E+03	3.812050E-03	8.107137E-05
4.546178E+03	3.801399E-03	8.077775E-05
4.556126E+03	3.790148E-03	8.047233E-05
4.566074E+03	3.778360E-03	8.015650E-05
4.576022E+03	3.766067E-03	7.983099E-05
4.585970E+03	3.753333E-03	7.949717E-05
4.595917E+03	3.740237E-03	7.915672E-05
4.605865E+03	3.726859E-03	7.881140E-05
4.615813E+03	3.713314E-03	7.846362E-05
4.625761E+03	3.699639E-03	7.811419E-05
4.635709E+03	3.685956E-03	7.776569E-05
4.645657E+03	3.672300E-03	7.741887E-05
4.655605E+03	3.658796E-03	7.707638E-05
4.665553E+03	3.645521E-03	7.673980E-05
4.675500E+03	3.632559E-03	7.641093E-05
4.685448E+03	3.620032E-03	7.609231E-05
4.695396E+03	3.608020E-03	7.578560E-05
4.705344E+03	3.596559E-03	7.549154E-05
4.715292E+03	3.585807E-03	7.521343E-05
4.725240E+03	3.575798E-03	7.495195E-05
4.735188E+03	3.566653E-03	7.470962E-05
4.745135E+03	3.558400E-03	7.448699E-05
4.755083E+03	3.551106E-03	7.428541E-05
4.765031E+03	3.544759E-03	7.410462E-05
4.774979E+03	3.539462E-03	7.394676E-05
4.784927E+03	3.535115E-03	7.380966E-05
4.794875E+03	3.531858E-03	7.369621E-05
4.804823E+03	3.529579E-03	7.360404E-05
4.814771E+03	3.528336E-03	7.353428E-05
4.824718E+03	3.528133E-03	7.348700E-05
4.834666E+03	3.528978E-03	7.346231E-05
4.844614E+03	3.530833E-03	7.345937E-05
4.854562E+03	3.533736E-03	7.347892E-05
4.864510E+03	3.537648E-03	7.352011E-05
4.874458E+03	3.542560E-03	7.358274E-05
4.884406E+03	3.548500E-03	7.366733E-05
4.894354E+03	3.555386E-03	7.377214E-05
4.904301E+03	3.563232E-03	7.389743E-05
4.914249E+03	3.572032E-03	7.404305E-05
4.924197E+03	3.581754E-03	7.420829E-05
4.934145E+03	3.592344E-03	7.439202E-05
4.944093E+03	3.603809E-03	7.459436E-05
4.954041E+03	3.616119E-03	7.481466E-05
4.963989E+03	3.629204E-03	7.505142E-05
4.973937E+03	3.643067E-03	7.530471E-05
4.983884E+03	3.657626E-03	7.557280E-05
4.993832E+03	3.672838E-03	7.585481E-05
5.003780E+03	3.688698E-03	7.615059E-05
5.013728E+03	3.705156E-03	7.645910E-05
5.023676E+03	3.722072E-03	7.677747E-05
5.033624E+03	3.739481E-03	7.710637E-05
5.043572E+03	3.757315E-03	7.744440E-05
5.053520E+03	3.775430E-03	7.778860E-05
5.063467E+03	3.793844E-03	7.813933E-05
5.073415E+03	3.812484E-03	7.849510E-05
5.083363E+03	3.831199E-03	7.885276E-05
5.093311E+03	3.850041E-03	7.921340E-05
5.103259E+03	3.868802E-03	7.957276E-05
5.113207E+03	3.887488E-03	7.993097E-05
5.123155E+03	3.905981E-03	8.028556E-05
5.133103E+03	3.924234E-03	8.063563E-05
5.143050E+03	3.942131E-03	8.097876E-05
5.152998E+03	3.959625E-03	8.131404E-05
5.162946E+03	3.976595E-03	8.163895E-05
5.172894E+03	3.992959E-03	8.195183E-05
5.182842E+03	4.008673E-03	8.225181E-05
5.192790E+03	4.023620E-03	8.253649E-05
5.202738E+03	4.037766E-03	8.280519E-05
5.212686E+03	4.050993E-03	8.305549E-05
5.222633E+03	4.063230E-03	8.328597E-05
5.232581E+03	4.074453E-03	8.349616E-05
5.242529E+03	4.084607E-03	8.368492E-05
5.252477E+03	4.093542E-03	8.384919E-05
5.262425E+03	4.101300E-03	8.398987E-05
5.272373E+03	4.107788E-03	8.410507E-05
5.282321E+03	4.113017E-03	8.419503E-05
5.292269E+03	4.116915E-03	8.425827E-05
5.302216E+03	4.119456E-03	8.429429E-05
5.312164E+03	4.120629E-03	8.430287E-05
5.322112E+03	4.120423E-03	8.428378E-05
5.332060E+03	4.118847E-03	8.423727E-05
5.342008E+03	4.115902E-03	8.416332E-05
5.351956E+03	4.111617E-03	8.406255E-05
5.361904E+03	4.105966E-03	8.393443E-05
5.371851E+03	4.099070E-03	8.378146E-05
5.381799E+03	4.090890E-03	8.360281E-05
5.391747E+03	4.081473E-03	8.339950E-05
5.401695E+03	4.070914E-03	8.317341E-05
5.411643E+03	4.059234E-03	8.292504E-05
5.421591E+03	4.046503E-03	8.265577E-05
5.431539E+03	4.032834E-03	8.236792E-05
5.441487E+03	4.018259E-03	8.206216E-05
5.451434E+03	4.002859E-03	8.174012E-05
5.461382E+03	3.986760E-03	8.140439E-05
5.471330E+03	3.970004E-03	8.105581E-05
5.481278E+03	3.952760E-03	8.069783E-05
5.491226E+03	3.935074E-03	8.033137E-05
5.501174E+03	3.917109E-03	7.995978E-05
5.511122E+03	3.898912E-03	7.958402E-05
5.521070E+03	3.880529E-03	7.920498E-05
5.531017E+03	3.862042E-03	7.882434E-05
5.540965E+03	3.843528E-03	7.844370E-05
5.550913E+03	3.825069E-03	7.806469E-05
5.560861E+03	3.806733E-03	7.768870E-05
5.570809E+03	3.788558E-03	7.731648E-05
5.580757E+03	3.770677E-03	7.695079E-05
5.590705E+03	3.753079E-03	7.659134E-05
5.600653E+03	3.735855E-03	7.624002E-05
5.610600E+03	3.719091E-03	7.589856E-05
5.620548E+03	3.702757E-03	7.556638E-05
5.630496E+03	3.686930E-03	7.524500E-05
5.640444E+03	3.671643E-03	7.493509E-05
5.650392E+03	3.656922E-03	7.463721E-05
5.660340E+03	3.642790E-03	7.435182E-05
5.670288E+03	3.629300E-03	7.407998E-05
5.680236E+03	3.616392E-03	7.382048E-05
5.690183E+03	3.604109E-03	7.357418E-05
5.700131E+03	3.592452E-03	7.334112E-05
5.710079E+03	3.581420E-03	7.312126E-05
5.720027E+03	3.571005E-03	7.291447E-05
5.729975E+03	3.561197E-03	7.272052E-05
5.739923E+03	3.551949E-03	7.253846E-05
5.749871E+03	3.543277E-03	7.236862E-05
5.759819E+03	3.535162E-03	7.221062E-05
5.769766E+03	3.527548E-03	7.206330E-05
5.779714E+03	3.520444E-03	7.192688E-05
5.789662E+03	3.513792E-03	7.180015E-05
5.799610E+03	3.507564E-03	7.168256E-05
5.809558E+03	3.501733E-03	7.157354E-05
5.819506E+03	3.496269E-03	7.147252E-05
5.829454E+03	3.491146E-03	7.137893E-05
5.839402E+03	3.486334E-03	7.129219E-05
5.849349E+03	3.481771E-03	7.121104E-05
5.859297E+03	3.477464E-03	7.113560E-05
5.869245E+03	3.473318E-03	7.106397E-05
5.879193E+03	3.469376E-03	7.099702E-05
5.889141E+03	3.465546E-03	7.093286E-05
5.899089E+03	3.461839E-03	7.087171E-05
5.909037E+03	3.458199E-03	7.081246E-05
5.918985E+03	3.454605E-03	7.075469E-05
5.928932E+03	3.451041E-03	7.069802E-05
5.938880E+03	3.447454E-03	7.064143E-05
5.948828E+03	3.443830E-03	7.058459E-05
5.958776E+03	3.440185E-03	7.052788E-05
5.968724E+03	3.436409E-03	7.046901E-05
5.978672E+03	3.432555E-03	7.040908E-05
5.988620E+03	3.428579E-03	7.034717E-05
5.998568E+03	3.424469E-03	7.028309E-05
6.008515E+03	3.420151E-03	7.021527E-05
6.018463E+03	3.415649E-03	7.014422E-05
6.028411E+03	3.410953E-03	7.006974E-05
6.038359E+03	3.406022E-03	6.999097E-05
6.048307E+03	3.400814E-03	6.990708E-05
6.058255E+03	3.395353E-03	6.981854E-05
6.068203E+03	3.389599E-03	6.972450E-05
6.078150E+03	3.383539E-03	6.962474E-05
6.088098E+03	3.377165E-03	6.951906E-05
6.098046E+03	3.370466E-03	6.940724E-05
6.107994E+03	3.363396E-03	6.928834E-05
6.117942E+03	3.356011E-03	6.916347E-05
6.127890E+03	3.348295E-03	6.903233E-05
6.137838E+03	3.340203E-03	6.889398E-05
6.147786E+03	3.331752E-03	6.874875E-05
6.157733E+03	3.322959E-03	6.859699E-05
6.167681E+03	3.313743E-03	6.843702E-05
6.177629E+03	3.304150E-03	6.826980E-05
6.187577E+03	3.294165E-03	6.809497E-05
6.197525E+03	3.283703E-03	6.791079E-05
6.207473E+03	3.272778E-03	6.771754E-05
6.217421E+03	3.261371E-03	6.751480E-05
6.227369E+03	3.249463E-03	6.730216E-05
6.237316E+03	3.237066E-03	6.707986E-05
6.247264E+03	3.224159E-03	6.684747E-05
6.257212E+03	3.210692E-03	6.660389E-05
6.267160E+03	3.196741E-03	6.635068E-05
6.277108E+03	3.182221E-03	6.608610E-05
6.287056E+03	3.167177E-03	6.581104E-05
6.297004E+03	3.151559E-03	6.552441E-05
6.306952E+03	3.135442E-03	6.522779E-05
6.316899E+03	3.118747E-03	6.491947E-05
6.326847E+03	3.101518E-03	6.460035E-05
6.336795E+03	3.083742E-03	6.427007E-05
6.346743E+03	3.065433E-03	6.392893E-05
6.356691E+03	3.046546E-03	6.357594E-05
6.366639E+03	3.027165E-03	6.321277E-05
6.376587E+03	3.007280E-03	6.283918E-05
6.386535E+03	2.986855E-03	6.245440E-05
6.396482E+03	2.965951E-03	6.205965E-05
6.406430E+03	2.944606E-03	6.165567E-05
6.416378E+03	2.922836E-03	6.124274E-05
6.426326E+03	2.900692E-03	6.082191E-05
6.436274E+03	2.878202E-03	6.039373E-05
6.446222E+03	2.855460E-03	5.996014E-05
6.456170E+03	2.832503E-03	5.952186E-05
6.466118E+03	2.809369E-03	5.907967E-05
6.476065E+03	2.786095E-03	5.863432E-05
6.486013E+03	2.762722E-03	5.818663E-05
6.495961E+03	2.739260E-03	5.773680E-05
6.505909E+03	2.715748E-03	5.728561E-05
6.515857E+03	2.692196E-03	5.683328E-05
6.525805E+03	2.668672E-03	5.638121E-05
6.535753E+03	2.645158E-03	5.592897E-05
6.545701E+03	2.621719E-03	5.547797E-05
6.555648E+03	2.598394E-03	5.502897E-05
6.565596E+03	2.575190E-03	5.458213E-05
6.575544E+03	2.552145E-03	5.413822E-05
6.585492E+03	2.529292E-03	5.369798E-05
6.595440E+03	2.506638E-03	5.326151E-05
6.605388E+03	2.484272E-03	5.283072E-05
6.615336E+03	2.462198E-03	5.240567E-05
6.625284E+03	2.440447E-03	5.198703E-05
6.635231E+03	2.419021E-03	5.157484E-05
6.645179E+03	2.398001E-03	5.117086E-05
6.655127E+03	2.377362E-03	5.077450E-05
6.665075E+03	2.357179E-03	5.038744E-05
6.675023E+03	2.337424E-03	5.000906E-05
6.684971E+03	2.318172E-03	4.964095E-05
6.694919E+03	2.299414E-03	4.928299E-05
6.704866E+03	2.281195E-03	4.893612E-05
6.714814E+03	2.263505E-03	4.860014E-05
6.724762E+03	2.246358E-03	4.827539E-05
6.734710E+03	2.229791E-03	4.796270E-05
6.744658E+03	2.213790E-03	4.766174E-05
6.754606E+03	2.198387E-03	4.737328E-05
6.764554E+03	2.183590E-03	4.709747E-05
6.774502E+03	2.169402E-03	4.683443E-05
6.784449E+03	2.155802E-03	4.658372E-05
6.794397E+03	2.142815E-03	4.634590E-05
6.804345E+03	2.130440E-03	4.612099E-05
6.814293E+03	2.118700E-03	4.590950E-05
6.824241E+03	2.107539E-03	4.571029E-05
6.834189E+03	2.096977E-03	4.552378E-05
6.844137E+03	2.087008E-03	4.534986E-05
6.854085E+03	2.077620E-03	4.518834E-05
6.864032E+03	2.068805E-03	4.503903E-05
6.873980E+03	2.060574E-03	4.490223E-05
6.883928E+03	2.052890E-03	4.477714E-05
6.893876E+03	2.045714E-03	4.466295E-05
6.903824E+03	2.039079E-03	4.456041E-05
6.913772E+03	2.032944E-03	4.446865E-05
6.923720E+03	2.027315E-03	4.438782E-05
6.933668E+03	2.022126E-03	4.431648E-05
6.943615E+03	2.017404E-03	4.425529E-05
6.953563E+03	2.013082E-03	4.420276E-05
6.963511E+03	2.009185E-03	4.415950E-05
6.973459E+03	2.005692E-03	4.412503E-05
6.983407E+03	2.002532E-03	4.409784E-05
6.993355E+03	1.999730E-03	4.407848E-05
7.003303E+03	1.997214E-03	4.406538E-05
7.013251E+03	1.995008E-03	4.405909E-05
7.023198E+03	1.993064E-03	4.405857E-05
7.033146E+03	1.991358E-03	4.406327E-05
7.043094E+03	1.989864E-03	4.407267E-05
7.053042E+03	1.988583E-03	4.408677E-05
7.062990E+03	1.987440E-03	4.410394E-05
7.072938E+03	1.986462E-03	4.412476E-05
7.082886E+03	1.985576E-03	4.414761E-05
7.092834E+03	1.984806E-03	4.417307E-05
7.102781E+03	1.984107E-03	4.420009E-05
7.112729E+03	1.983456E-03	4.422818E-05
7.122677E+03	1.982832E-03	4.425688E-05
7.132625E+03	1.982216E-03	4.428575E-05
7.142573E+03	1.981588E-03	4.431435E-05
7.152521E+03	1.980932E-03	4.434232E-05
7.162469E+03	1.980258E-03	4.436985E-05
7.172417E+03	1.979499E-03	4.439547E-05
7.182364E+03	1.978695E-03	4.442004E-05
7.192312E+03	1.977783E-03	4.444217E-05
7.202260E+03	1.976806E-03	4.446278E-05
7.212208E+03	1.975730E-03	4.448113E-05
7.222156E+03	1.974551E-03	4.449710E-05
7.232104E+03	1.973265E-03	4.451060E-05
7.242052E+03	1.971896E-03	4.452216E-05
7.252000E+03	1.970395E-03	4.453066E-05
7.261947E+03	1.968815E-03	4.453727E-05
7.271895E+03	1.967133E-03	4.454152E-05
7.281843E+03	1.965358E-03	4.454354E-05
7.291791E+03	1.963521E-03	4.454407E-05
7.301739E+03	1.961607E-03	4.454274E-05
7.311687E+03	1.959627E-03	4.453978E-05
7.321635E+03	1.957591E-03	4.453546E-05
7.331583E+03	1.955540E-03	4.453064E-05
7.341530E+03	1.953436E-03	4.452450E-05
7.351478E+03	1.951343E-03	4.451849E-05
7.361426E+03	1.949278E-03	4.451298E-05
7.371374E+03	1.947204E-03	4.450713E-05
7.381322E+03	1.945163E-03	4.450189E-05
7.391270E+03	1.943169E-03	4.449760E-05
7.401218E+03	1.941262E-03	4.449518E-05
7.411165E+03	1.939407E-03	4.449380E-05
7.421113E+03	1.937642E-03	4.449434E-05
7.431061E+03	1.935978E-03	4.449711E-05
7.441009E+03	1.934429E-03	4.450235E-05
7.450957E+03	1.933003E-03	4.451033E-05
7.460905E+03	1.931710E-03	4.452123E-05
7.470853E+03	1.930557E-03	4.453526E-05
7.480801E+03	1.929550E-03	4.455251E-05
7.490748E+03	1.928666E-03	4.457252E-05
7.500696E+03	1.927959E-03	4.459651E-05
7.510644E+03	1.927379E-03	4.462333E-05
7.520592E+03	1.926949E-03	4.465353E-05
7.530540E+03	1.926665E-03	4.468704E-05
7.540488E+03	1.926498E-03	4.472316E-05
7.550436E+03	1.926441E-03	4.476174E-05
7.560384E+03	1.926536E-03	4.480378E-05
7.570331E+03	1.926721E-03	4.484786E-05
7.580279E+03	1.926987E-03	4.489372E-05
7.590227E+03	1.927320E-03	4.494108E-05
7.600175E+03	1.927732E-03	4.499020E-05
7.610123E+03	1.928209E-03	4.504076E-05
7.620071E+03	1.928683E-03	4.509120E-05
7.630019E+03	1.929191E-03	4.514235E-05
7.639967E+03	1.929692E-03	4.519326E-05
7.649914E+03	1.930168E-03	4.524352E-05
7.659862E+03	1.930630E-03	4.529338E-05
7.669810E+03	1.931039E-03	4.534190E-05
7.679758E+03	1.931379E-03	4.538873E-05
7.689706E+03	1.931637E-03	4.543354E-05
7.699654E+03	1.931828E-03	4.547668E-05
7.709602E+03	1.931916E-03	4.551730E-05
7.719550E+03	1.931893E-03	4.555519E-05
