#wls	flux	fluxerr
1.591660E+03	1.415219E-04	6.412266E-06
1.631451E+03	1.472454E-04	6.671526E-06
1.671243E+03	1.529172E-04	6.928432E-06
1.711034E+03	1.585586E-04	7.183954E-06
1.750826E+03	1.640910E-04	7.434531E-06
1.790617E+03	1.693900E-04	7.674524E-06
1.830409E+03	1.743160E-04	7.897613E-06
1.870200E+03	1.786588E-04	8.094268E-06
1.909992E+03	1.821850E-04	8.253924E-06
1.949783E+03	1.847029E-04	8.367891E-06
1.989575E+03	1.862335E-04	8.437122E-06
2.029366E+03	1.871356E-04	8.477875E-06
2.069158E+03	1.884316E-04	8.536471E-06
2.108949E+03	1.916490E-04	8.682106E-06
2.148741E+03	1.983744E-04	8.986651E-06
2.188532E+03	2.094530E-04	9.488388E-06
2.228324E+03	2.248262E-04	1.018465E-05
2.268115E+03	2.436054E-04	1.103518E-05
2.307907E+03	2.647779E-04	1.199409E-05
2.347698E+03	2.875274E-04	1.302441E-05
2.387490E+03	3.112625E-04	1.409932E-05
2.427281E+03	3.357949E-04	1.521032E-05
2.467073E+03	3.609762E-04	1.635066E-05
2.506864E+03	3.869091E-04	1.752500E-05
2.546656E+03	4.137030E-04	1.873829E-05
2.586447E+03	4.413627E-04	1.999075E-05
2.626239E+03	4.700020E-04	2.128751E-05
2.666030E+03	4.998593E-04	2.263939E-05
2.705821E+03	5.308313E-04	2.404169E-05
2.745613E+03	5.631246E-04	2.550377E-05
2.785404E+03	5.967206E-04	2.702478E-05
2.825196E+03	6.317962E-04	2.861272E-05
2.864987E+03	6.681240E-04	3.025730E-05
2.904779E+03	7.059872E-04	3.197132E-05
2.944570E+03	7.451716E-04	3.374509E-05
2.984362E+03	7.856647E-04	3.557803E-05
2.994310E+03	7.960509E-04	3.604816E-05
3.004258E+03	8.064758E-04	3.652003E-05
3.014206E+03	8.169351E-04	3.699346E-05
3.024153E+03	8.275197E-04	3.747255E-05
3.034101E+03	8.382590E-04	3.795864E-05
3.044049E+03	8.490969E-04	3.844919E-05
3.053997E+03	8.601063E-04	3.894749E-05
3.063945E+03	8.712750E-04	3.945301E-05
3.073893E+03	8.825021E-04	3.996116E-05
3.083841E+03	8.938633E-04	4.047538E-05
3.093789E+03	9.053468E-04	4.099513E-05
3.103736E+03	9.168524E-04	4.151587E-05
3.113684E+03	9.285463E-04	4.204514E-05
3.123632E+03	9.402398E-04	4.257437E-05
3.133580E+03	9.520110E-04	4.310712E-05
3.143528E+03	9.639395E-04	4.364698E-05
3.153476E+03	9.758352E-04	4.418535E-05
3.163424E+03	9.877778E-04	4.472584E-05
3.173372E+03	9.998483E-04	4.527210E-05
3.183319E+03	1.011856E-03	4.581550E-05
3.193267E+03	1.023972E-03	4.636382E-05
3.203215E+03	1.036096E-03	4.691251E-05
3.213163E+03	1.048220E-03	4.746116E-05
3.223111E+03	1.060425E-03	4.801347E-05
3.233059E+03	1.072611E-03	4.856492E-05
3.243007E+03	1.084769E-03	4.911509E-05
3.252955E+03	1.096981E-03	4.966772E-05
3.262902E+03	1.109239E-03	5.022243E-05
3.272850E+03	1.121443E-03	5.077464E-05
3.282798E+03	1.133583E-03	5.132399E-05
3.292746E+03	1.145744E-03	5.187424E-05
3.302694E+03	1.157915E-03	5.242498E-05
3.312642E+03	1.170090E-03	5.297584E-05
3.322590E+03	1.182258E-03	5.352641E-05
3.332538E+03	1.194321E-03	5.407220E-05
3.342485E+03	1.206452E-03	5.462107E-05
3.352433E+03	1.218460E-03	5.516439E-05
3.362381E+03	1.230520E-03	5.571003E-05
3.372329E+03	1.242441E-03	5.624936E-05
3.382277E+03	1.254396E-03	5.679023E-05
3.392225E+03	1.266286E-03	5.732814E-05
3.402173E+03	1.278193E-03	5.786682E-05
3.412120E+03	1.290018E-03	5.840177E-05
3.422068E+03	1.301752E-03	5.893262E-05
3.432016E+03	1.313478E-03	5.946307E-05
3.441964E+03	1.325097E-03	5.998868E-05
3.451912E+03	1.336690E-03	6.051310E-05
3.461860E+03	1.348248E-03	6.103593E-05
3.471808E+03	1.359763E-03	6.155678E-05
3.481756E+03	1.371137E-03	6.207129E-05
3.491703E+03	1.382451E-03	6.258306E-05
3.501651E+03	1.393784E-03	6.309563E-05
3.511599E+03	1.404952E-03	6.360078E-05
3.521547E+03	1.416120E-03	6.410591E-05
3.531495E+03	1.427194E-03	6.460675E-05
3.541443E+03	1.438165E-03	6.510294E-05
3.551391E+03	1.449109E-03	6.559791E-05
3.561339E+03	1.459934E-03	6.608747E-05
3.571286E+03	1.470632E-03	6.657127E-05
3.581234E+03	1.481278E-03	6.705271E-05
3.591182E+03	1.491863E-03	6.753137E-05
3.601130E+03	1.502378E-03	6.800689E-05
3.611078E+03	1.512734E-03	6.847518E-05
3.621026E+03	1.523085E-03	6.894325E-05
3.630974E+03	1.533262E-03	6.940339E-05
3.640922E+03	1.543416E-03	6.986251E-05
3.650869E+03	1.553380E-03	7.031307E-05
3.660817E+03	1.563306E-03	7.076184E-05
3.670765E+03	1.573184E-03	7.120844E-05
3.680713E+03	1.582928E-03	7.164897E-05
3.690661E+03	1.592531E-03	7.208312E-05
3.700609E+03	1.602063E-03	7.251403E-05
3.710557E+03	1.611440E-03	7.293792E-05
3.720505E+03	1.620730E-03	7.335788E-05
3.730452E+03	1.629926E-03	7.377357E-05
3.740400E+03	1.639020E-03	7.418467E-05
3.750348E+03	1.648007E-03	7.459085E-05
3.760296E+03	1.656877E-03	7.499178E-05
3.770244E+03	1.665626E-03	7.538722E-05
3.780192E+03	1.674247E-03	7.577685E-05
3.790140E+03	1.682735E-03	7.616043E-05
3.800088E+03	1.691152E-03	7.654081E-05
3.810035E+03	1.699423E-03	7.691460E-05
3.819983E+03	1.707612E-03	7.728462E-05
3.829931E+03	1.715577E-03	7.764456E-05
3.839879E+03	1.723516E-03	7.800327E-05
3.849827E+03	1.731289E-03	7.835449E-05
3.859775E+03	1.738959E-03	7.870101E-05
3.869723E+03	1.746456E-03	7.903968E-05
3.879671E+03	1.753840E-03	7.937326E-05
3.889618E+03	1.761107E-03	7.970155E-05
3.899566E+03	1.768254E-03	8.002437E-05
3.909514E+03	1.775215E-03	8.033880E-05
3.919462E+03	1.782050E-03	8.064751E-05
3.929410E+03	1.788756E-03	8.095036E-05
3.939358E+03	1.795330E-03	8.124727E-05
3.949306E+03	1.801771E-03	8.153812E-05
3.959254E+03	1.808019E-03	8.182021E-05
3.969201E+03	1.814130E-03	8.209616E-05
3.979149E+03	1.820105E-03	8.236592E-05
3.989097E+03	1.825943E-03	8.262945E-05
3.999045E+03	1.831643E-03	8.288674E-05
4.008993E+03	1.837150E-03	8.313530E-05
4.018941E+03	1.842521E-03	8.337770E-05
4.028889E+03	1.847702E-03	8.361152E-05
4.038836E+03	1.852697E-03	8.383690E-05
4.048784E+03	1.857561E-03	8.405634E-05
4.058732E+03	1.862295E-03	8.426988E-05
4.068680E+03	1.866799E-03	8.447302E-05
4.078628E+03	1.871129E-03	8.466829E-05
4.088576E+03	1.875289E-03	8.485587E-05
4.098524E+03	1.879283E-03	8.503594E-05
4.108472E+03	1.883068E-03	8.520654E-05
4.118419E+03	1.886698E-03	8.537010E-05
4.128367E+03	1.890130E-03	8.552472E-05
4.138315E+03	1.893325E-03	8.566862E-05
4.148263E+03	1.896383E-03	8.580631E-05
4.158211E+03	1.899219E-03	8.593396E-05
4.168159E+03	1.901842E-03	8.605195E-05
4.178107E+03	1.904217E-03	8.615870E-05
4.188055E+03	1.906441E-03	8.625864E-05
4.198002E+03	1.908435E-03	8.634818E-05
4.207950E+03	1.910210E-03	8.642782E-05
4.217898E+03	1.911778E-03	8.649805E-05
4.227846E+03	1.913106E-03	8.655746E-05
4.237794E+03	1.914207E-03	8.660660E-05
4.247742E+03	1.915053E-03	8.664419E-05
4.257690E+03	1.915697E-03	8.667263E-05
4.267638E+03	1.916112E-03	8.669068E-05
4.277585E+03	1.916309E-03	8.669894E-05
4.287533E+03	1.916227E-03	8.669451E-05
4.297481E+03	1.915955E-03	8.668152E-05
4.307429E+03	1.915395E-03	8.665549E-05
4.317377E+03	1.914636E-03	8.662048E-05
4.327325E+03	1.913621E-03	8.657383E-05
4.337273E+03	1.912363E-03	8.651623E-05
4.347221E+03	1.910879E-03	8.644839E-05
4.357168E+03	1.909149E-03	8.636944E-05
4.367116E+03	1.907189E-03	8.628010E-05
4.377064E+03	1.904981E-03	8.617952E-05
4.387012E+03	1.902542E-03	8.606849E-05
4.396960E+03	1.899888E-03	8.594772E-05
4.406908E+03	1.897001E-03	8.581646E-05
4.416856E+03	1.893932E-03	8.567694E-05
4.426804E+03	1.890599E-03	8.552546E-05
4.436751E+03	1.887083E-03	8.536574E-05
4.446699E+03	1.883369E-03	8.519703E-05
4.456647E+03	1.879472E-03	8.502008E-05
4.466595E+03	1.875347E-03	8.483280E-05
4.476543E+03	1.871071E-03	8.463873E-05
4.486491E+03	1.866631E-03	8.443719E-05
4.496439E+03	1.862010E-03	8.422752E-05
4.506387E+03	1.857226E-03	8.401043E-05
4.516334E+03	1.852322E-03	8.378794E-05
4.526282E+03	1.847255E-03	8.355808E-05
4.536230E+03	1.842069E-03	8.332283E-05
4.546178E+03	1.836777E-03	8.308283E-05
4.556126E+03	1.831367E-03	8.283744E-05
4.566074E+03	1.825850E-03	8.258727E-05
4.576022E+03	1.820242E-03	8.233296E-05
4.585970E+03	1.814583E-03	8.207632E-05
4.595917E+03	1.808856E-03	8.181667E-05
4.605865E+03	1.803049E-03	8.155338E-05
4.615813E+03	1.797227E-03	8.128939E-05
4.625761E+03	1.791347E-03	8.102282E-05
4.635709E+03	1.785449E-03	8.075540E-05
4.645657E+03	1.779542E-03	8.048760E-05
4.655605E+03	1.773637E-03	8.021990E-05
4.665553E+03	1.767718E-03	7.995160E-05
4.675500E+03	1.761847E-03	7.968544E-05
4.685448E+03	1.755982E-03	7.941956E-05
4.695396E+03	1.750182E-03	7.915663E-05
4.705344E+03	1.744406E-03	7.889481E-05
4.715292E+03	1.738712E-03	7.863668E-05
4.725240E+03	1.733082E-03	7.838148E-05
4.735188E+03	1.727525E-03	7.812956E-05
4.745135E+03	1.722047E-03	7.788123E-05
4.755083E+03	1.716702E-03	7.763889E-05
4.765031E+03	1.711446E-03	7.740061E-05
4.774979E+03	1.706307E-03	7.716763E-05
4.784927E+03	1.701287E-03	7.694004E-05
4.794875E+03	1.696387E-03	7.671786E-05
4.804823E+03	1.691627E-03	7.650202E-05
4.814771E+03	1.686982E-03	7.629139E-05
4.824718E+03	1.682470E-03	7.608679E-05
4.834666E+03	1.678109E-03	7.588901E-05
4.844614E+03	1.673848E-03	7.569576E-05
4.854562E+03	1.669726E-03	7.550881E-05
4.864510E+03	1.665737E-03	7.532788E-05
4.874458E+03	1.661874E-03	7.515266E-05
4.884406E+03	1.658132E-03	7.498287E-05
4.894354E+03	1.654525E-03	7.481921E-05
4.904301E+03	1.651024E-03	7.466040E-05
4.914249E+03	1.647647E-03	7.450713E-05
4.924197E+03	1.644406E-03	7.436006E-05
4.934145E+03	1.641253E-03	7.421697E-05
4.944093E+03	1.638246E-03	7.408044E-05
4.954041E+03	1.635334E-03	7.394827E-05
4.963989E+03	1.632534E-03	7.382110E-05
4.973937E+03	1.629838E-03	7.369869E-05
4.983884E+03	1.627261E-03	7.358165E-05
4.993832E+03	1.624775E-03	7.346876E-05
5.003780E+03	1.622417E-03	7.336163E-05
5.013728E+03	1.620138E-03	7.325807E-05
5.023676E+03	1.617953E-03	7.315878E-05
5.033624E+03	1.615856E-03	7.306346E-05
5.043572E+03	1.613862E-03	7.297277E-05
5.053520E+03	1.611963E-03	7.288644E-05
5.063467E+03	1.610135E-03	7.280328E-05
5.073415E+03	1.608371E-03	7.272304E-05
5.083363E+03	1.606706E-03	7.264730E-05
5.093311E+03	1.605095E-03	7.257396E-05
5.103259E+03	1.603572E-03	7.250462E-05
5.113207E+03	1.602091E-03	7.243719E-05
5.123155E+03	1.600668E-03	7.237237E-05
5.133103E+03	1.599317E-03	7.231079E-05
5.143050E+03	1.597993E-03	7.225047E-05
5.152998E+03	1.596730E-03	7.219292E-05
5.162946E+03	1.595506E-03	7.213708E-05
5.172894E+03	1.594294E-03	7.208182E-05
5.182842E+03	1.593129E-03	7.202872E-05
5.192790E+03	1.591968E-03	7.197577E-05
5.202738E+03	1.590846E-03	7.192459E-05
5.212686E+03	1.589719E-03	7.187318E-05
5.222633E+03	1.588583E-03	7.182137E-05
5.232581E+03	1.587473E-03	7.177072E-05
5.242529E+03	1.586326E-03	7.171845E-05
5.252477E+03	1.585178E-03	7.166612E-05
5.262425E+03	1.584006E-03	7.161268E-05
5.272373E+03	1.582825E-03	7.155887E-05
5.282321E+03	1.581594E-03	7.150276E-05
5.292269E+03	1.580308E-03	7.144421E-05
5.302216E+03	1.579004E-03	7.138483E-05
5.312164E+03	1.577621E-03	7.132187E-05
5.322112E+03	1.576193E-03	7.125692E-05
5.332060E+03	1.574700E-03	7.118900E-05
5.342008E+03	1.573139E-03	7.111799E-05
5.351956E+03	1.571487E-03	7.104292E-05
5.361904E+03	1.569781E-03	7.096539E-05
5.371851E+03	1.567961E-03	7.088271E-05
5.381799E+03	1.566063E-03	7.079652E-05
5.391747E+03	1.564067E-03	7.070586E-05
5.401695E+03	1.561969E-03	7.061065E-05
5.411643E+03	1.559769E-03	7.051080E-05
5.421591E+03	1.557465E-03	7.040624E-05
5.431539E+03	1.555054E-03	7.029688E-05
5.441487E+03	1.552518E-03	7.018184E-05
5.451434E+03	1.549891E-03	7.006273E-05
5.461382E+03	1.547136E-03	6.993781E-05
5.471330E+03	1.544269E-03	6.980786E-05
5.481278E+03	1.541290E-03	6.967284E-05
5.491226E+03	1.538199E-03	6.953272E-05
5.501174E+03	1.534992E-03	6.938743E-05
5.511122E+03	1.531690E-03	6.923780E-05
5.521070E+03	1.528272E-03	6.908294E-05
5.531017E+03	1.524738E-03	6.892284E-05
5.540965E+03	1.521105E-03	6.875828E-05
5.550913E+03	1.517373E-03	6.858927E-05
5.560861E+03	1.513560E-03	6.841658E-05
5.570809E+03	1.509629E-03	6.823858E-05
5.580757E+03	1.505635E-03	6.805768E-05
5.590705E+03	1.501539E-03	6.787224E-05
5.600653E+03	1.497361E-03	6.768310E-05
5.610600E+03	1.493101E-03	6.749020E-05
5.620548E+03	1.488776E-03	6.729439E-05
5.630496E+03	1.484367E-03	6.709482E-05
5.640444E+03	1.479893E-03	6.689231E-05
5.650392E+03	1.475372E-03	6.668767E-05
5.660340E+03	1.470786E-03	6.648007E-05
5.670288E+03	1.466134E-03	6.626953E-05
5.680236E+03	1.461434E-03	6.605684E-05
5.690183E+03	1.456687E-03	6.584201E-05
5.700131E+03	1.451893E-03	6.562503E-05
5.710079E+03	1.447050E-03	6.540590E-05
5.720027E+03	1.442178E-03	6.518544E-05
5.729975E+03	1.437259E-03	6.496285E-05
5.739923E+03	1.432293E-03	6.473811E-05
5.749871E+03	1.427296E-03	6.451205E-05
5.759819E+03	1.422288E-03	6.428546E-05
5.769766E+03	1.417216E-03	6.405597E-05
5.779714E+03	1.412131E-03	6.382594E-05
5.789662E+03	1.407018E-03	6.359461E-05
5.799610E+03	1.401876E-03	6.336198E-05
5.809558E+03	1.396705E-03	6.312806E-05
5.819506E+03	1.391506E-03	6.289288E-05
5.829454E+03	1.386278E-03	6.265642E-05
5.839402E+03	1.381023E-03	6.241871E-05
5.849349E+03	1.375741E-03	6.217976E-05
5.859297E+03	1.370448E-03	6.194037E-05
5.869245E+03	1.365111E-03	6.169900E-05
5.879193E+03	1.359749E-03	6.145645E-05
5.889141E+03	1.354360E-03	6.121274E-05
5.899089E+03	1.348946E-03	6.096787E-05
5.909037E+03	1.343489E-03	6.072113E-05
5.918985E+03	1.338009E-03	6.047329E-05
5.928932E+03	1.332505E-03	6.022440E-05
5.938880E+03	1.326961E-03	5.997370E-05
5.948828E+03	1.321378E-03	5.972125E-05
5.958776E+03	1.315774E-03	5.946782E-05
5.968724E+03	1.310131E-03	5.921270E-05
5.978672E+03	1.304453E-03	5.895594E-05
5.988620E+03	1.298738E-03	5.869756E-05
5.998568E+03	1.292973E-03	5.843689E-05
6.008515E+03	1.287190E-03	5.817544E-05
6.018463E+03	1.281342E-03	5.791105E-05
6.028411E+03	1.275478E-03	5.764597E-05
6.038359E+03	1.269553E-03	5.737808E-05
6.048307E+03	1.263598E-03	5.710889E-05
6.058255E+03	1.257599E-03	5.683772E-05
6.068203E+03	1.251558E-03	5.656464E-05
6.078150E+03	1.245477E-03	5.628974E-05
6.088098E+03	1.239356E-03	5.601305E-05
6.098046E+03	1.233181E-03	5.573396E-05
6.107994E+03	1.226971E-03	5.545327E-05
6.117942E+03	1.220711E-03	5.517031E-05
6.127890E+03	1.214419E-03	5.488591E-05
6.137838E+03	1.208080E-03	5.459943E-05
6.147786E+03	1.201713E-03	5.431167E-05
6.157733E+03	1.195304E-03	5.402200E-05
6.167681E+03	1.188855E-03	5.373055E-05
6.177629E+03	1.182368E-03	5.343740E-05
6.187577E+03	1.175846E-03	5.314266E-05
6.197525E+03	1.169306E-03	5.284711E-05
6.207473E+03	1.162721E-03	5.254950E-05
6.217421E+03	1.156121E-03	5.225129E-05
6.227369E+03	1.149496E-03	5.195192E-05
6.237316E+03	1.142833E-03	5.165084E-05
6.247264E+03	1.136164E-03	5.134947E-05
6.257212E+03	1.129477E-03	5.104732E-05
6.267160E+03	1.122775E-03	5.074446E-05
6.277108E+03	1.116059E-03	5.044103E-05
6.287056E+03	1.109349E-03	5.013782E-05
6.297004E+03	1.102616E-03	4.983365E-05
6.306952E+03	1.095894E-03	4.952993E-05
6.316899E+03	1.089171E-03	4.922616E-05
6.326847E+03	1.082463E-03	4.892309E-05
6.336795E+03	1.075759E-03	4.862021E-05
6.346743E+03	1.069062E-03	4.831768E-05
6.356691E+03	1.062390E-03	4.801624E-05
6.366639E+03	1.055731E-03	4.771537E-05
6.376587E+03	1.049114E-03	4.741644E-05
6.386535E+03	1.042514E-03	4.711832E-05
6.396482E+03	1.035949E-03	4.682171E-05
6.406430E+03	1.029417E-03	4.652664E-05
6.416378E+03	1.022907E-03	4.623256E-05
6.426326E+03	1.016460E-03	4.594132E-05
6.436274E+03	1.010034E-03	4.565105E-05
6.446222E+03	1.003656E-03	4.536294E-05
6.456170E+03	9.973107E-04	4.507633E-05
6.466118E+03	9.910114E-04	4.479179E-05
6.476065E+03	9.847563E-04	4.450924E-05
6.486013E+03	9.785313E-04	4.422806E-05
6.495961E+03	9.723616E-04	4.394938E-05
6.505909E+03	9.662196E-04	4.367196E-05
6.515857E+03	9.601441E-04	4.339755E-05
6.525805E+03	9.540946E-04	4.312431E-05
6.535753E+03	9.480965E-04	4.285339E-05
6.545701E+03	9.421491E-04	4.258477E-05
6.555648E+03	9.362513E-04	4.231840E-05
6.565596E+03	9.304028E-04	4.205425E-05
6.575544E+03	9.246156E-04	4.179287E-05
6.585492E+03	9.188638E-04	4.153310E-05
6.595440E+03	9.131850E-04	4.127663E-05
6.605388E+03	9.075533E-04	4.102228E-05
6.615336E+03	9.019812E-04	4.077064E-05
6.625284E+03	8.964683E-04	4.052167E-05
6.635231E+03	8.910140E-04	4.027534E-05
6.645179E+03	8.856309E-04	4.003224E-05
6.655127E+03	8.803059E-04	3.979176E-05
6.665075E+03	8.750517E-04	3.955449E-05
6.675023E+03	8.698676E-04	3.932039E-05
6.684971E+03	8.647536E-04	3.908945E-05
6.694919E+03	8.597097E-04	3.886168E-05
6.704866E+03	8.547356E-04	3.863707E-05
6.714814E+03	8.498435E-04	3.841616E-05
6.724762E+03	8.450210E-04	3.819840E-05
6.734710E+03	8.402801E-04	3.798433E-05
6.744658E+03	8.356091E-04	3.777342E-05
6.754606E+03	8.310195E-04	3.756619E-05
6.764554E+03	8.265233E-04	3.736318E-05
6.774502E+03	8.220967E-04	3.716332E-05
6.784449E+03	8.177512E-04	3.696712E-05
6.794397E+03	8.134995E-04	3.677516E-05
6.804345E+03	8.093287E-04	3.658686E-05
6.814293E+03	8.052393E-04	3.640224E-05
6.824241E+03	8.012431E-04	3.622184E-05
6.834189E+03	7.973278E-04	3.604509E-05
6.844137E+03	7.935060E-04	3.587256E-05
6.854085E+03	7.897654E-04	3.570371E-05
6.864032E+03	7.861174E-04	3.553904E-05
6.873980E+03	7.825629E-04	3.537860E-05
6.883928E+03	7.790892E-04	3.522181E-05
6.893876E+03	7.756969E-04	3.506871E-05
6.903824E+03	7.724092E-04	3.492032E-05
6.913772E+03	7.692030E-04	3.477563E-05
6.923720E+03	7.660895E-04	3.463512E-05
6.933668E+03	7.630575E-04	3.449830E-05
6.943615E+03	7.601185E-04	3.436569E-05
6.953563E+03	7.572726E-04	3.423728E-05
6.963511E+03	7.545082E-04	3.411256E-05
6.973459E+03	7.518371E-04	3.399205E-05
6.983407E+03	7.492474E-04	3.387522E-05
6.993355E+03	7.467513E-04	3.376263E-05
7.003303E+03	7.443257E-04	3.365322E-05
7.013251E+03	7.420047E-04	3.354854E-05
7.023198E+03	7.397547E-04	3.344707E-05
7.033146E+03	7.375981E-04	3.334983E-05
7.043094E+03	7.355241E-04	3.325632E-05
7.053042E+03	7.335216E-04	3.316604E-05
7.062990E+03	7.316131E-04	3.308001E-05
7.072938E+03	7.297765E-04	3.299723E-05
7.082886E+03	7.280230E-04	3.291821E-05
7.092834E+03	7.263419E-04	3.284247E-05
7.102781E+03	7.247441E-04	3.277049E-05
7.112729E+03	7.232193E-04	3.270181E-05
7.122677E+03	7.217787E-04	3.263693E-05
7.132625E+03	7.204000E-04	3.257486E-05
7.142573E+03	7.190952E-04	3.251613E-05
7.152521E+03	7.178644E-04	3.246074E-05
7.162469E+03	7.166965E-04	3.240820E-05
7.172417E+03	7.156034E-04	3.235904E-05
7.182364E+03	7.145634E-04	3.231228E-05
7.192312E+03	7.135985E-04	3.226891E-05
7.202260E+03	7.126984E-04	3.222848E-05
7.212208E+03	7.118527E-04	3.219051E-05
7.222156E+03	7.110723E-04	3.215549E-05
7.232104E+03	7.103580E-04	3.212346E-05
7.242052E+03	7.096881E-04	3.209344E-05
7.252000E+03	7.090855E-04	3.206646E-05
7.261947E+03	7.085283E-04	3.204153E-05
7.271895E+03	7.080279E-04	3.201918E-05
7.281843E+03	7.075851E-04	3.199943E-05
7.291791E+03	7.071893E-04	3.198180E-05
7.301739E+03	7.068412E-04	3.196633E-05
7.311687E+03	7.065412E-04	3.195304E-05
7.321635E+03	7.062897E-04	3.194194E-05
7.331583E+03	7.060875E-04	3.193307E-05
7.341530E+03	7.059352E-04	3.192646E-05
7.351478E+03	7.058220E-04	3.192161E-05
7.361426E+03	7.057598E-04	3.191908E-05
7.371374E+03	7.057382E-04	3.191837E-05
7.381322E+03	7.057690E-04	3.192004E-05
7.391270E+03	7.058411E-04	3.192358E-05
7.401218E+03	7.059555E-04	3.192903E-05
7.411165E+03	7.061243E-04	3.193694E-05
7.421113E+03	7.063251E-04	3.194630E-05
7.431061E+03	7.065814E-04	3.195817E-05
7.441009E+03	7.068822E-04	3.197205E-05
7.450957E+03	7.072398E-04	3.198851E-05
7.460905E+03	7.076321E-04	3.200653E-05
7.470853E+03	7.080825E-04	3.202718E-05
7.480801E+03	7.085802E-04	3.204997E-05
7.490748E+03	7.091256E-04	3.207492E-05
7.500696E+03	7.097313E-04	3.210260E-05
7.510644E+03	7.103862E-04	3.213250E-05
7.520592E+03	7.111028E-04	3.216520E-05
7.530540E+03	7.118701E-04	3.220018E-05
7.540488E+03	7.127001E-04	3.223801E-05
7.550436E+03	7.135937E-04	3.227871E-05
7.560384E+03	7.145406E-04	3.232182E-05
7.570331E+03	7.155527E-04	3.236789E-05
7.580279E+03	7.166310E-04	3.241695E-05
7.590227E+03	7.177761E-04	3.246903E-05
7.600175E+03	7.189891E-04	3.252419E-05
7.610123E+03	7.202708E-04	3.258245E-05
7.620071E+03	7.216219E-04	3.264385E-05
7.630019E+03	7.230439E-04	3.270846E-05
7.639967E+03	7.245371E-04	3.277629E-05
7.649914E+03	7.261140E-04	3.284792E-05
7.659862E+03	7.277530E-04	3.292235E-05
7.669810E+03	7.294783E-04	3.300068E-05
7.679758E+03	7.312785E-04	3.308241E-05
7.689706E+03	7.331672E-04	3.316814E-05
7.699654E+03	7.351213E-04	3.325683E-05
7.709602E+03	7.371661E-04	3.334963E-05
7.719550E+03	7.392906E-04	3.344603E-05
