#wls	flux	fluxerr
1.591660E+03	1.332556E-04	5.768197E-06
1.631451E+03	1.386975E-04	6.001195E-06
1.671243E+03	1.440762E-04	6.231191E-06
1.711034E+03	1.494071E-04	6.458842E-06
1.750826E+03	1.546128E-04	6.680805E-06
1.790617E+03	1.595724E-04	6.891849E-06
1.830409E+03	1.641219E-04	7.084907E-06
1.870200E+03	1.680582E-04	7.251233E-06
1.909992E+03	1.711874E-04	7.382493E-06
1.949783E+03	1.733288E-04	7.470947E-06
1.989575E+03	1.744734E-04	7.516271E-06
2.029366E+03	1.750177E-04	7.535599E-06
2.069158E+03	1.758308E-04	7.566374E-06
2.108949E+03	1.783885E-04	7.672036E-06
2.148741E+03	1.841175E-04	7.913783E-06
2.188532E+03	1.937972E-04	8.324840E-06
2.228324E+03	2.072630E-04	8.897818E-06
2.268115E+03	2.236728E-04	9.596259E-06
2.307907E+03	2.420837E-04	1.037947E-05
2.347698E+03	2.616364E-04	1.121043E-05
2.387490E+03	2.817949E-04	1.206606E-05
2.427281E+03	3.023176E-04	1.293593E-05
2.467073E+03	3.230892E-04	1.381502E-05
2.506864E+03	3.440853E-04	1.470225E-05
2.546656E+03	3.654236E-04	1.560257E-05
2.586447E+03	3.870906E-04	1.651533E-05
2.626239E+03	4.092255E-04	1.744638E-05
2.666030E+03	4.317404E-04	1.839191E-05
2.705821E+03	4.548124E-04	1.935934E-05
2.745613E+03	4.783773E-04	2.034587E-05
2.785404E+03	5.025340E-04	2.135558E-05
2.825196E+03	5.272467E-04	2.238685E-05
2.864987E+03	5.524585E-04	2.343716E-05
2.904779E+03	5.781637E-04	2.450614E-05
2.944570E+03	6.044111E-04	2.559578E-05
2.984362E+03	6.311017E-04	2.670175E-05
2.994310E+03	6.378345E-04	2.698040E-05
3.004258E+03	6.445947E-04	2.726005E-05
3.014206E+03	6.513799E-04	2.754060E-05
3.024153E+03	6.581960E-04	2.782229E-05
3.034101E+03	6.650661E-04	2.810611E-05
3.044049E+03	6.720160E-04	2.839313E-05
3.053997E+03	6.790356E-04	2.868293E-05
3.063945E+03	6.861151E-04	2.897509E-05
3.073893E+03	6.932461E-04	2.926926E-05
3.083841E+03	7.004196E-04	2.956504E-05
3.093789E+03	7.076277E-04	2.986211E-05
3.103736E+03	7.148625E-04	3.016014E-05
3.113684E+03	7.221908E-04	3.046193E-05
3.123632E+03	7.294578E-04	3.076095E-05
3.133580E+03	7.368043E-04	3.106315E-05
3.143528E+03	7.441508E-04	3.136516E-05
3.153476E+03	7.514904E-04	3.166671E-05
3.163424E+03	7.588179E-04	3.196755E-05
3.173372E+03	7.662017E-04	3.227059E-05
3.183319E+03	7.735625E-04	3.257247E-05
3.193267E+03	7.808948E-04	3.287296E-05
3.203215E+03	7.881938E-04	3.317187E-05
3.213163E+03	7.955300E-04	3.347215E-05
3.223111E+03	8.028233E-04	3.377044E-05
3.233059E+03	8.100701E-04	3.406659E-05
3.243007E+03	8.173412E-04	3.436358E-05
3.252955E+03	8.245571E-04	3.465805E-05
3.262902E+03	8.317141E-04	3.494986E-05
3.272850E+03	8.388840E-04	3.524202E-05
3.282798E+03	8.459879E-04	3.553122E-05
3.292746E+03	8.530972E-04	3.582047E-05
3.302694E+03	8.601340E-04	3.610647E-05
3.312642E+03	8.671700E-04	3.639225E-05
3.322590E+03	8.741264E-04	3.667451E-05
3.332538E+03	8.810759E-04	3.695629E-05
3.342485E+03	8.879401E-04	3.723431E-05
3.352433E+03	8.947915E-04	3.751160E-05
3.362381E+03	9.016268E-04	3.778803E-05
3.372329E+03	9.083687E-04	3.806035E-05
3.382277E+03	9.150894E-04	3.833160E-05
3.392225E+03	9.217112E-04	3.859853E-05
3.402173E+03	9.283062E-04	3.886414E-05
3.412120E+03	9.348727E-04	3.912839E-05
3.422068E+03	9.414070E-04	3.939110E-05
3.432016E+03	9.478331E-04	3.964909E-05
3.441964E+03	9.542226E-04	3.990538E-05
3.451912E+03	9.605735E-04	4.015987E-05
3.461860E+03	9.668833E-04	4.041246E-05
3.471808E+03	9.730758E-04	4.065997E-05
3.481756E+03	9.792228E-04	4.090540E-05
3.491703E+03	9.853951E-04	4.115171E-05
3.501651E+03	9.914440E-04	4.139269E-05
3.511599E+03	9.974409E-04	4.163132E-05
3.521547E+03	1.003384E-03	4.186751E-05
3.531495E+03	1.009198E-03	4.209818E-05
3.541443E+03	1.015026E-03	4.232925E-05
3.551391E+03	1.020794E-03	4.255763E-05
3.561339E+03	1.026500E-03	4.278325E-05
3.571286E+03	1.032141E-03	4.300601E-05
3.581234E+03	1.037716E-03	4.322588E-05
3.591182E+03	1.043224E-03	4.344274E-05
3.601130E+03	1.048662E-03	4.365655E-05
3.611078E+03	1.054029E-03	4.386725E-05
3.621026E+03	1.059324E-03	4.407475E-05
3.630974E+03	1.064544E-03	4.427901E-05
3.640922E+03	1.069758E-03	4.448282E-05
3.650869E+03	1.074825E-03	4.468039E-05
3.660817E+03	1.079882E-03	4.487739E-05
3.670765E+03	1.084859E-03	4.507089E-05
3.680713E+03	1.089754E-03	4.526086E-05
3.690661E+03	1.094633E-03	4.545000E-05
3.700609E+03	1.099362E-03	4.563277E-05
3.710557E+03	1.104073E-03	4.581461E-05
3.720505E+03	1.108697E-03	4.599272E-05
3.730452E+03	1.113234E-03	4.616709E-05
3.740400E+03	1.117684E-03	4.633770E-05
3.750348E+03	1.122109E-03	4.650715E-05
3.760296E+03	1.126445E-03	4.667276E-05
3.770244E+03	1.130692E-03	4.683451E-05
3.780192E+03	1.134910E-03	4.699497E-05
3.790140E+03	1.138975E-03	4.714895E-05
3.800088E+03	1.143010E-03	4.730159E-05
3.810035E+03	1.147016E-03	4.745284E-05
3.819983E+03	1.150867E-03	4.759761E-05
3.829931E+03	1.154688E-03	4.774097E-05
3.839879E+03	1.158416E-03	4.788040E-05
3.849827E+03	1.162052E-03	4.801589E-05
3.859775E+03	1.165596E-03	4.814747E-05
3.869723E+03	1.169107E-03	4.827759E-05
3.879671E+03	1.172468E-03	4.840140E-05
3.889618E+03	1.175797E-03	4.852376E-05
3.899566E+03	1.179035E-03	4.864227E-05
3.909514E+03	1.182240E-03	4.875933E-05
3.919462E+03	1.185299E-03	4.887025E-05
3.929410E+03	1.188270E-03	4.897746E-05
3.939358E+03	1.191210E-03	4.908326E-05
3.949306E+03	1.194062E-03	4.918540E-05
3.959254E+03	1.196775E-03	4.928167E-05
3.969201E+03	1.199458E-03	4.937664E-05
3.979149E+03	1.202004E-03	4.946591E-05
3.989097E+03	1.204523E-03	4.955397E-05
3.999045E+03	1.206909E-03	4.963647E-05
4.008993E+03	1.209217E-03	4.971570E-05
4.018941E+03	1.211449E-03	4.979174E-05
4.028889E+03	1.213607E-03	4.986465E-05
4.038836E+03	1.215692E-03	4.993449E-05
4.048784E+03	1.217655E-03	4.999930E-05
4.058732E+03	1.219500E-03	5.005918E-05
4.068680E+03	1.221330E-03	5.011836E-05
4.078628E+03	1.223046E-03	5.017283E-05
4.088576E+03	1.224651E-03	5.022274E-05
4.098524E+03	1.226199E-03	5.027019E-05
4.108472E+03	1.227641E-03	5.031332E-05
4.118419E+03	1.228983E-03	5.035228E-05
4.128367E+03	1.230275E-03	5.038914E-05
4.138315E+03	1.231425E-03	5.042016E-05
4.148263E+03	1.232531E-03	5.044936E-05
4.158211E+03	1.233549E-03	5.047494E-05
4.168159E+03	1.234438E-03	5.049517E-05
4.178107E+03	1.235292E-03	5.051398E-05
4.188055E+03	1.236023E-03	5.052779E-05
4.198002E+03	1.236683E-03	5.053861E-05
4.207950E+03	1.237273E-03	5.054660E-05
4.217898E+03	1.237754E-03	5.055012E-05
4.227846E+03	1.238174E-03	5.055114E-05
4.237794E+03	1.238494E-03	5.054808E-05
4.247742E+03	1.238718E-03	5.054111E-05
4.257690E+03	1.238851E-03	5.053043E-05
4.267638E+03	1.238940E-03	5.051795E-05
4.277585E+03	1.238945E-03	5.050211E-05
4.287533E+03	1.238833E-03	5.048145E-05
4.297481E+03	1.238688E-03	5.045951E-05
4.307429E+03	1.238434E-03	5.043315E-05
4.317377E+03	1.238117E-03	5.040423E-05
4.327325E+03	1.237701E-03	5.037133E-05
4.337273E+03	1.237231E-03	5.033625E-05
4.347221E+03	1.236711E-03	5.029917E-05
4.357168E+03	1.236068E-03	5.025716E-05
4.367116E+03	1.235386E-03	5.021356E-05
4.377064E+03	1.234630E-03	5.016703E-05
4.387012E+03	1.233805E-03	5.011773E-05
4.396960E+03	1.232917E-03	5.006591E-05
4.406908E+03	1.231969E-03	5.001175E-05
4.416856E+03	1.230967E-03	4.995543E-05
4.426804E+03	1.229916E-03	4.989718E-05
4.436751E+03	1.228785E-03	4.983572E-05
4.446699E+03	1.227578E-03	4.977127E-05
4.456647E+03	1.226336E-03	4.970549E-05
4.466595E+03	1.225064E-03	4.963853E-05
4.476543E+03	1.223731E-03	4.956918E-05
4.486491E+03	1.222341E-03	4.949764E-05
4.496439E+03	1.220901E-03	4.942411E-05
4.506387E+03	1.219414E-03	4.934876E-05
4.516334E+03	1.217919E-03	4.927318E-05
4.526282E+03	1.216352E-03	4.919479E-05
4.536230E+03	1.214752E-03	4.911515E-05
4.546178E+03	1.213124E-03	4.903443E-05
4.556126E+03	1.211470E-03	4.895279E-05
4.566074E+03	1.209796E-03	4.887040E-05
4.576022E+03	1.208072E-03	4.878611E-05
4.585970E+03	1.206334E-03	4.870139E-05
4.595917E+03	1.204556E-03	4.861512E-05
4.605865E+03	1.202772E-03	4.852870E-05
4.615813E+03	1.200986E-03	4.844231E-05
4.625761E+03	1.199169E-03	4.835480E-05
4.635709E+03	1.197326E-03	4.826630E-05
4.645657E+03	1.195489E-03	4.817821E-05
4.655605E+03	1.193633E-03	4.808942E-05
4.665553E+03	1.191759E-03	4.800004E-05
4.675500E+03	1.189900E-03	4.791139E-05
4.685448E+03	1.188030E-03	4.782240E-05
4.695396E+03	1.186151E-03	4.773315E-05
4.705344E+03	1.184264E-03	4.764374E-05
4.715292E+03	1.182403E-03	4.755545E-05
4.725240E+03	1.180539E-03	4.746719E-05
4.735188E+03	1.178674E-03	4.737902E-05
4.745135E+03	1.176812E-03	4.729104E-05
4.755083E+03	1.174980E-03	4.720446E-05
4.765031E+03	1.173125E-03	4.711703E-05
4.774979E+03	1.171304E-03	4.703113E-05
4.784927E+03	1.169491E-03	4.694563E-05
4.794875E+03	1.167685E-03	4.686058E-05
4.804823E+03	1.165917E-03	4.677715E-05
4.814771E+03	1.164132E-03	4.669313E-05
4.824718E+03	1.162384E-03	4.661078E-05
4.834666E+03	1.160648E-03	4.652898E-05
4.844614E+03	1.158924E-03	4.644777E-05
4.854562E+03	1.157239E-03	4.636826E-05
4.864510E+03	1.155539E-03	4.628826E-05
4.874458E+03	1.153878E-03	4.620994E-05
4.884406E+03	1.152256E-03	4.613329E-05
4.894354E+03	1.150620E-03	4.605617E-05
4.904301E+03	1.149022E-03	4.598068E-05
4.914249E+03	1.147435E-03	4.590576E-05
4.924197E+03	1.145885E-03	4.583243E-05
4.934145E+03	1.144346E-03	4.575963E-05
4.944093E+03	1.142816E-03	4.568733E-05
4.954041E+03	1.141322E-03	4.561651E-05
4.963989E+03	1.139861E-03	4.554716E-05
4.973937E+03	1.138382E-03	4.547717E-05
4.983884E+03	1.136961E-03	4.540960E-05
4.993832E+03	1.135519E-03	4.534131E-05
5.003780E+03	1.134132E-03	4.527532E-05
5.013728E+03	1.132724E-03	4.520856E-05
5.023676E+03	1.131368E-03	4.514398E-05
5.033624E+03	1.130013E-03	4.507954E-05
5.043572E+03	1.128682E-03	4.501618E-05
5.053520E+03	1.127350E-03	4.495284E-05
5.063467E+03	1.126039E-03	4.489046E-05
5.073415E+03	1.124724E-03	4.482802E-05
5.083363E+03	1.123453E-03	4.476741E-05
5.093311E+03	1.122175E-03	4.470660E-05
5.103259E+03	1.120912E-03	4.464653E-05
5.113207E+03	1.119640E-03	4.458616E-05
5.123155E+03	1.118381E-03	4.452639E-05
5.133103E+03	1.117157E-03	4.446814E-05
5.143050E+03	1.115895E-03	4.440845E-05
5.152998E+03	1.114666E-03	4.435014E-05
5.162946E+03	1.113443E-03	4.429220E-05
5.172894E+03	1.112202E-03	4.423360E-05
5.182842E+03	1.110964E-03	4.417525E-05
5.192790E+03	1.109728E-03	4.411707E-05
5.202738E+03	1.108494E-03	4.405903E-05
5.212686E+03	1.107258E-03	4.400104E-05
5.222633E+03	1.106021E-03	4.394304E-05
5.232581E+03	1.104756E-03	4.388406E-05
5.242529E+03	1.103509E-03	4.382590E-05
5.252477E+03	1.102255E-03	4.376756E-05
5.262425E+03	1.100970E-03	4.370806E-05
5.272373E+03	1.099675E-03	4.364826E-05
5.282321E+03	1.098393E-03	4.358906E-05
5.292269E+03	1.097075E-03	4.352853E-05
5.302216E+03	1.095743E-03	4.346755E-05
5.312164E+03	1.094396E-03	4.340606E-05
5.322112E+03	1.093056E-03	4.334494E-05
5.332060E+03	1.091675E-03	4.328230E-05
5.342008E+03	1.090275E-03	4.321899E-05
5.351956E+03	1.088879E-03	4.315590E-05
5.361904E+03	1.087437E-03	4.309113E-05
5.371851E+03	1.085972E-03	4.302556E-05
5.381799E+03	1.084507E-03	4.296006E-05
5.391747E+03	1.082994E-03	4.289275E-05
5.401695E+03	1.081477E-03	4.282541E-05
5.411643E+03	1.079934E-03	4.275709E-05
5.421591E+03	1.078339E-03	4.268685E-05
5.431539E+03	1.076737E-03	4.261644E-05
5.441487E+03	1.075105E-03	4.254493E-05
5.451434E+03	1.073465E-03	4.247319E-05
5.461382E+03	1.071769E-03	4.239934E-05
5.471330E+03	1.070062E-03	4.232519E-05
5.481278E+03	1.068321E-03	4.224978E-05
5.491226E+03	1.066546E-03	4.217310E-05
5.501174E+03	1.064733E-03	4.209508E-05
5.511122E+03	1.062906E-03	4.201660E-05
5.521070E+03	1.061042E-03	4.193674E-05
5.531017E+03	1.059139E-03	4.185546E-05
5.540965E+03	1.057219E-03	4.177361E-05
5.550913E+03	1.055259E-03	4.169030E-05
5.560861E+03	1.053258E-03	4.160548E-05
5.570809E+03	1.051238E-03	4.152002E-05
5.580757E+03	1.049176E-03	4.143300E-05
5.590705E+03	1.047093E-03	4.134528E-05
5.600653E+03	1.044966E-03	4.125596E-05
5.610600E+03	1.042818E-03	4.116589E-05
5.620548E+03	1.040647E-03	4.107503E-05
5.630496E+03	1.038431E-03	4.098251E-05
5.640444E+03	1.036169E-03	4.088830E-05
5.650392E+03	1.033883E-03	4.079326E-05
5.660340E+03	1.031572E-03	4.069736E-05
5.670288E+03	1.029235E-03	4.060056E-05
5.680236E+03	1.026851E-03	4.050201E-05
5.690183E+03	1.024440E-03	4.040254E-05
5.700131E+03	1.022003E-03	4.030214E-05
5.710079E+03	1.019538E-03	4.020080E-05
5.720027E+03	1.017024E-03	4.009762E-05
5.729975E+03	1.014483E-03	3.999347E-05
5.739923E+03	1.011934E-03	3.988917E-05
5.749871E+03	1.009335E-03	3.978302E-05
5.759819E+03	1.006706E-03	3.967584E-05
5.769766E+03	1.004049E-03	3.956764E-05
5.779714E+03	1.001361E-03	3.945838E-05
5.789662E+03	9.986438E-04	3.934808E-05
5.799610E+03	9.958957E-04	3.923670E-05
5.809558E+03	9.931173E-04	3.912425E-05
5.819506E+03	9.903082E-04	3.901073E-05
5.829454E+03	9.874676E-04	3.889610E-05
5.839402E+03	9.845963E-04	3.878039E-05
5.849349E+03	9.816932E-04	3.866357E-05
5.859297E+03	9.787794E-04	3.854646E-05
5.869245E+03	9.758335E-04	3.842821E-05
5.879193E+03	9.728351E-04	3.830804E-05
5.889141E+03	9.698253E-04	3.818755E-05
5.899089E+03	9.668038E-04	3.806674E-05
5.909037E+03	9.637295E-04	3.794398E-05
5.918985E+03	9.606430E-04	3.782089E-05
5.928932E+03	9.575035E-04	3.769584E-05
5.938880E+03	9.543727E-04	3.757128E-05
5.948828E+03	9.511884E-04	3.744474E-05
5.958776E+03	9.479709E-04	3.731704E-05
5.968724E+03	9.447415E-04	3.718901E-05
5.978672E+03	9.414994E-04	3.706062E-05
5.988620E+03	9.382038E-04	3.693027E-05
5.998568E+03	9.348960E-04	3.679958E-05
6.008515E+03	9.315548E-04	3.666771E-05
6.018463E+03	9.281810E-04	3.653469E-05
6.028411E+03	9.247942E-04	3.640131E-05
6.038359E+03	9.213744E-04	3.626677E-05
6.048307E+03	9.179216E-04	3.613108E-05
6.058255E+03	9.144564E-04	3.599503E-05
6.068203E+03	9.109582E-04	3.585783E-05
6.078150E+03	9.074467E-04	3.572025E-05
6.088098E+03	9.038832E-04	3.558076E-05
6.098046E+03	9.003264E-04	3.544168E-05
6.107994E+03	8.967175E-04	3.530068E-05
6.117942E+03	8.930963E-04	3.515935E-05
6.127890E+03	8.894618E-04	3.501763E-05
6.137838E+03	8.857756E-04	3.487402E-05
6.147786E+03	8.820771E-04	3.473006E-05
6.157733E+03	8.783659E-04	3.458574E-05
6.167681E+03	8.746230E-04	3.444032E-05
6.177629E+03	8.708679E-04	3.429456E-05
6.187577E+03	8.670623E-04	3.414694E-05
6.197525E+03	8.632637E-04	3.399974E-05
6.207473E+03	8.594339E-04	3.385145E-05
6.217421E+03	8.555734E-04	3.370209E-05
6.227369E+03	8.517010E-04	3.355240E-05
6.237316E+03	8.477987E-04	3.340166E-05
6.247264E+03	8.438849E-04	3.325061E-05
6.257212E+03	8.399417E-04	3.309854E-05
6.267160E+03	8.359874E-04	3.294616E-05
6.277108E+03	8.320229E-04	3.279352E-05
6.287056E+03	8.280298E-04	3.263988E-05
6.297004E+03	8.240265E-04	3.248596E-05
6.306952E+03	8.199957E-04	3.233110E-05
6.316899E+03	8.159556E-04	3.217600E-05
6.326847E+03	8.118887E-04	3.201997E-05
6.336795E+03	8.078138E-04	3.186373E-05
6.346743E+03	8.037310E-04	3.170731E-05
6.356691E+03	7.996417E-04	3.155073E-05
6.366639E+03	7.955272E-04	3.139327E-05
6.376587E+03	7.914074E-04	3.123570E-05
6.386535E+03	7.872822E-04	3.107801E-05
6.396482E+03	7.831524E-04	3.092023E-05
6.406430E+03	7.790015E-04	3.076171E-05
6.416378E+03	7.748654E-04	3.060385E-05
6.426326E+03	7.707093E-04	3.044529E-05
6.436274E+03	7.665524E-04	3.028676E-05
6.446222E+03	7.623957E-04	3.012832E-05
6.456170E+03	7.582394E-04	2.996996E-05
6.466118E+03	7.540680E-04	2.981106E-05
6.476065E+03	7.499167E-04	2.965302E-05
6.486013E+03	7.457691E-04	2.949518E-05
6.495961E+03	7.416270E-04	2.933761E-05
6.505909E+03	7.374907E-04	2.918031E-05
6.515857E+03	7.333616E-04	2.902334E-05
6.525805E+03	7.292406E-04	2.886674E-05
6.535753E+03	7.251294E-04	2.871056E-05
6.545701E+03	7.210284E-04	2.855482E-05
6.555648E+03	7.169560E-04	2.840024E-05
6.565596E+03	7.128962E-04	2.824618E-05
6.575544E+03	7.088500E-04	2.809269E-05
6.585492E+03	7.048189E-04	2.793982E-05
6.595440E+03	7.008198E-04	2.778824E-05
6.605388E+03	6.968376E-04	2.763733E-05
6.615336E+03	6.928735E-04	2.748717E-05
6.625284E+03	6.889443E-04	2.733839E-05
6.635231E+03	6.850350E-04	2.719041E-05
6.645179E+03	6.811623E-04	2.704389E-05
6.655127E+03	6.772952E-04	2.689759E-05
6.665075E+03	6.734823E-04	2.675345E-05
6.675023E+03	6.696932E-04	2.661025E-05
6.684971E+03	6.659277E-04	2.646798E-05
6.694919E+03	6.622027E-04	2.632732E-05
6.704866E+03	6.585036E-04	2.618767E-05
6.714814E+03	6.548468E-04	2.604970E-05
6.724762E+03	6.512321E-04	2.591339E-05
6.734710E+03	6.476456E-04	2.577819E-05
6.744658E+03	6.441026E-04	2.564470E-05
6.754606E+03	6.405886E-04	2.551235E-05
6.764554E+03	6.371346E-04	2.538238E-05
6.774502E+03	6.336957E-04	2.525298E-05
6.784449E+03	6.303179E-04	2.512600E-05
6.794397E+03	6.269712E-04	2.500023E-05
6.804345E+03	6.236562E-04	2.487571E-05
6.814293E+03	6.204035E-04	2.475365E-05
6.824241E+03	6.171834E-04	2.463286E-05
6.834189E+03	6.140115E-04	2.451396E-05
6.844137E+03	6.108727E-04	2.439636E-05
6.854085E+03	6.077829E-04	2.428069E-05
6.864032E+03	6.047420E-04	2.416694E-05
6.873980E+03	6.017506E-04	2.405514E-05
6.883928E+03	5.987938E-04	2.394469E-05
6.893876E+03	5.958871E-04	2.383621E-05
6.903824E+03	5.930306E-04	2.372971E-05
6.913772E+03	5.902248E-04	2.362521E-05
6.923720E+03	5.874549E-04	2.352211E-05
6.933668E+03	5.847359E-04	2.342101E-05
6.943615E+03	5.820537E-04	2.332136E-05
6.953563E+03	5.794228E-04	2.322372E-05
6.963511E+03	5.768438E-04	2.312813E-05
6.973459E+03	5.743162E-04	2.303457E-05
6.983407E+03	5.718265E-04	2.294249E-05
6.993355E+03	5.693883E-04	2.285245E-05
7.003303E+03	5.669890E-04	2.276393E-05
7.013251E+03	5.646418E-04	2.267746E-05
7.023198E+03	5.623472E-04	2.259307E-05
7.033146E+03	5.600911E-04	2.251020E-05
7.043094E+03	5.578741E-04	2.242886E-05
7.053042E+03	5.557103E-04	2.234962E-05
7.062990E+03	5.535992E-04	2.227247E-05
7.072938E+03	5.515278E-04	2.219689E-05
7.082886E+03	5.495097E-04	2.212341E-05
7.092834E+03	5.475314E-04	2.205150E-05
7.102781E+03	5.455933E-04	2.198117E-05
7.112729E+03	5.437083E-04	2.191295E-05
7.122677E+03	5.418640E-04	2.184634E-05
7.132625E+03	5.400601E-04	2.178132E-05
7.142573E+03	5.383103E-04	2.171845E-05
7.152521E+03	5.366009E-04	2.165718E-05
7.162469E+03	5.349321E-04	2.159752E-05
7.172417E+03	5.333048E-04	2.153949E-05
7.182364E+03	5.317318E-04	2.148363E-05
7.192312E+03	5.301998E-04	2.142939E-05
7.202260E+03	5.287095E-04	2.137681E-05
7.212208E+03	5.272471E-04	2.132533E-05
7.222156E+03	5.258397E-04	2.127604E-05
7.232104E+03	5.244745E-04	2.122842E-05
7.242052E+03	5.231639E-04	2.118299E-05
7.252000E+03	5.218824E-04	2.113871E-05
7.261947E+03	5.206298E-04	2.109557E-05
7.271895E+03	5.194325E-04	2.105464E-05
7.281843E+03	5.182776E-04	2.101541E-05
7.291791E+03	5.171656E-04	2.097789E-05
7.301739E+03	5.160829E-04	2.094152E-05
7.311687E+03	5.150431E-04	2.090688E-05
7.321635E+03	5.140460E-04	2.087394E-05
7.331583E+03	5.130924E-04	2.084275E-05
7.341530E+03	5.121820E-04	2.081328E-05
7.351478E+03	5.113015E-04	2.078501E-05
7.361426E+03	5.104646E-04	2.075849E-05
7.371374E+03	5.096585E-04	2.073320E-05
7.381322E+03	5.088958E-04	2.070965E-05
7.391270E+03	5.081774E-04	2.068788E-05
7.401218E+03	5.074899E-04	2.066735E-05
7.411165E+03	5.068464E-04	2.064859E-05
7.421113E+03	5.062338E-04	2.063107E-05
7.431061E+03	5.056662E-04	2.061537E-05
7.441009E+03	5.051427E-04	2.060145E-05
7.450957E+03	5.046382E-04	2.058828E-05
7.460905E+03	5.041783E-04	2.057692E-05
7.470853E+03	5.037636E-04	2.056738E-05
7.480801E+03	5.033806E-04	2.055912E-05
7.490748E+03	5.030428E-04	2.055270E-05
7.500696E+03	5.027246E-04	2.054706E-05
7.510644E+03	5.024512E-04	2.054324E-05
7.520592E+03	5.022242E-04	2.054130E-05
7.530540E+03	5.020290E-04	2.054066E-05
7.540488E+03	5.018672E-04	2.054136E-05
7.550436E+03	5.017378E-04	2.054338E-05
7.560384E+03	5.016548E-04	2.054729E-05
7.570331E+03	5.015913E-04	2.055199E-05
7.580279E+03	5.015874E-04	2.055912E-05
7.590227E+03	5.016039E-04	2.056708E-05
7.600175E+03	5.016530E-04	2.057638E-05
7.610123E+03	5.017493E-04	2.058759E-05
7.620071E+03	5.018788E-04	2.060017E-05
7.630019E+03	5.020424E-04	2.061413E-05
7.639967E+03	5.022524E-04	2.063000E-05
7.649914E+03	5.024825E-04	2.064669E-05
7.659862E+03	5.027605E-04	2.066535E-05
7.669810E+03	5.030583E-04	2.068481E-05
7.679758E+03	5.034035E-04	2.070622E-05
7.689706E+03	5.037827E-04	2.072903E-05
7.699654E+03	5.041954E-04	2.075321E-05
7.709602E+03	5.046425E-04	2.077881E-05
7.719550E+03	5.051232E-04	2.080580E-05
