#wls	flux	fluxerr
1.591660E+03	1.515679E-04	1.974595E-05
1.631451E+03	1.576719E-04	2.053995E-05
1.671243E+03	1.636884E-04	2.132241E-05
1.711034E+03	1.696040E-04	2.209161E-05
1.750826E+03	1.753576E-04	2.283958E-05
1.790617E+03	1.808111E-04	2.354832E-05
1.830409E+03	1.857784E-04	2.419362E-05
1.870200E+03	1.900304E-04	2.474564E-05
1.909992E+03	1.933168E-04	2.517181E-05
1.949783E+03	1.954682E-04	2.545009E-05
1.989575E+03	1.964463E-04	2.557554E-05
2.029366E+03	1.967345E-04	2.561111E-05
2.069158E+03	1.973119E-04	2.568427E-05
2.108949E+03	1.997979E-04	2.600581E-05
2.148741E+03	2.057759E-04	2.678172E-05
2.188532E+03	2.161245E-04	2.812624E-05
2.228324E+03	2.306318E-04	3.001164E-05
2.268115E+03	2.482964E-04	3.230746E-05
2.307907E+03	2.680031E-04	3.486853E-05
2.347698E+03	2.888594E-04	3.757860E-05
2.387490E+03	3.102679E-04	4.035992E-05
2.427281E+03	3.318634E-04	4.316496E-05
2.467073E+03	3.535584E-04	4.598231E-05
2.506864E+03	3.753775E-04	4.881514E-05
2.546656E+03	3.972880E-04	5.165920E-05
2.586447E+03	4.194382E-04	5.453372E-05
2.626239E+03	4.418074E-04	5.743599E-05
2.666030E+03	4.644179E-04	6.036889E-05
2.705821E+03	4.874066E-04	6.335017E-05
2.745613E+03	5.107092E-04	6.637144E-05
2.785404E+03	5.344418E-04	6.944776E-05
2.825196E+03	5.584373E-04	7.255738E-05
2.864987E+03	5.828600E-04	7.572160E-05
2.904779E+03	6.075829E-04	7.892390E-05
2.944570E+03	6.326089E-04	8.216461E-05
2.984362E+03	6.578563E-04	8.543308E-05
2.994310E+03	6.642450E-04	8.626003E-05
3.004258E+03	6.705922E-04	8.708150E-05
3.014206E+03	6.769733E-04	8.790733E-05
3.024153E+03	6.833163E-04	8.872815E-05
3.034101E+03	6.898028E-04	8.956752E-05
3.044049E+03	6.963029E-04	9.040861E-05
3.053997E+03	7.028070E-04	9.125014E-05
3.063945E+03	7.094621E-04	9.211121E-05
3.073893E+03	7.161028E-04	9.297035E-05
3.083841E+03	7.227994E-04	9.383667E-05
3.093789E+03	7.295441E-04	9.470916E-05
3.103736E+03	7.363305E-04	9.558700E-05
3.113684E+03	7.430708E-04	9.645878E-05
3.123632E+03	7.499195E-04	9.734456E-05
3.133580E+03	7.567098E-04	9.822270E-05
3.143528E+03	7.635161E-04	9.910284E-05
3.153476E+03	7.702522E-04	9.997378E-05
3.163424E+03	7.770744E-04	1.008558E-04
3.173372E+03	7.838166E-04	1.017274E-04
3.183319E+03	7.906362E-04	1.026090E-04
3.193267E+03	7.973662E-04	1.034789E-04
3.203215E+03	8.040844E-04	1.043471E-04
3.213163E+03	8.107864E-04	1.052132E-04
3.223111E+03	8.174690E-04	1.060767E-04
3.233059E+03	8.240463E-04	1.069265E-04
3.243007E+03	8.306798E-04	1.077835E-04
3.252955E+03	8.372844E-04	1.086366E-04
3.262902E+03	8.437747E-04	1.094749E-04
3.272850E+03	8.503126E-04	1.103192E-04
3.282798E+03	8.567306E-04	1.111479E-04
3.292746E+03	8.631917E-04	1.119822E-04
3.302694E+03	8.695283E-04	1.128002E-04
3.312642E+03	8.758208E-04	1.136124E-04
3.322590E+03	8.821498E-04	1.144293E-04
3.332538E+03	8.883482E-04	1.152292E-04
3.342485E+03	8.945792E-04	1.160332E-04
3.352433E+03	9.006760E-04	1.168197E-04
3.362381E+03	9.068019E-04	1.176100E-04
3.372329E+03	9.127906E-04	1.183824E-04
3.382277E+03	9.188052E-04	1.191581E-04
3.392225E+03	9.247622E-04	1.199262E-04
3.402173E+03	9.306598E-04	1.206865E-04
3.412120E+03	9.364966E-04	1.214390E-04
3.422068E+03	9.421902E-04	1.221727E-04
3.432016E+03	9.479843E-04	1.229194E-04
3.441964E+03	9.536327E-04	1.236472E-04
3.451912E+03	9.592159E-04	1.243664E-04
3.461860E+03	9.648146E-04	1.250876E-04
3.471808E+03	9.702647E-04	1.257895E-04
3.481756E+03	9.757280E-04	1.264930E-04
3.491703E+03	9.811222E-04	1.271875E-04
3.501651E+03	9.864464E-04	1.278728E-04
3.511599E+03	9.917002E-04	1.285489E-04
3.521547E+03	9.969626E-04	1.292261E-04
3.531495E+03	1.002073E-03	1.298835E-04
3.541443E+03	1.007190E-03	1.305417E-04
3.551391E+03	1.012234E-03	1.311904E-04
3.561339E+03	1.017203E-03	1.318293E-04
3.571286E+03	1.022177E-03	1.324687E-04
3.581234E+03	1.026996E-03	1.330881E-04
3.591182E+03	1.031818E-03	1.337078E-04
3.601130E+03	1.036564E-03	1.343175E-04
3.611078E+03	1.041232E-03	1.349172E-04
3.621026E+03	1.045901E-03	1.355168E-04
3.630974E+03	1.050493E-03	1.361063E-04
3.640922E+03	1.055006E-03	1.366857E-04
3.650869E+03	1.059440E-03	1.372547E-04
3.660817E+03	1.063796E-03	1.378136E-04
3.670765E+03	1.068149E-03	1.383720E-04
3.680713E+03	1.072423E-03	1.389202E-04
3.690661E+03	1.076618E-03	1.394580E-04
3.700609E+03	1.080733E-03	1.399854E-04
3.710557E+03	1.084844E-03	1.405122E-04
3.720505E+03	1.088875E-03	1.410287E-04
3.730452E+03	1.092827E-03	1.415348E-04
3.740400E+03	1.096772E-03	1.420400E-04
3.750348E+03	1.100565E-03	1.425254E-04
3.760296E+03	1.104351E-03	1.430100E-04
3.770244E+03	1.108059E-03	1.434842E-04
3.780192E+03	1.111687E-03	1.439483E-04
3.790140E+03	1.115309E-03	1.444114E-04
3.800088E+03	1.118853E-03	1.448643E-04
3.810035E+03	1.122247E-03	1.452978E-04
3.819983E+03	1.125635E-03	1.457305E-04
3.829931E+03	1.129017E-03	1.461623E-04
3.839879E+03	1.132252E-03	1.465751E-04
3.849827E+03	1.135481E-03	1.469870E-04
3.859775E+03	1.138634E-03	1.473891E-04
3.869723E+03	1.141644E-03	1.477727E-04
3.879671E+03	1.144650E-03	1.481556E-04
3.889618E+03	1.147650E-03	1.485378E-04
3.899566E+03	1.150511E-03	1.489018E-04
3.909514E+03	1.153300E-03	1.492567E-04
3.919462E+03	1.156020E-03	1.496024E-04
3.929410E+03	1.158737E-03	1.499478E-04
3.939358E+03	1.161321E-03	1.502758E-04
3.949306E+03	1.163903E-03	1.506037E-04
3.959254E+03	1.166354E-03	1.509146E-04
3.969201E+03	1.168742E-03	1.512172E-04
3.979149E+03	1.171131E-03	1.515200E-04
3.989097E+03	1.173394E-03	1.518064E-04
3.999045E+03	1.175598E-03	1.520852E-04
4.008993E+03	1.177743E-03	1.523563E-04
4.018941E+03	1.179831E-03	1.526200E-04
4.028889E+03	1.181864E-03	1.528765E-04
4.038836E+03	1.183781E-03	1.531181E-04
4.048784E+03	1.185708E-03	1.533609E-04
4.058732E+03	1.187523E-03	1.535892E-04
4.068680E+03	1.189230E-03	1.538035E-04
4.078628E+03	1.190951E-03	1.540196E-04
4.088576E+03	1.192567E-03	1.542221E-04
4.098524E+03	1.194081E-03	1.544115E-04
4.108472E+03	1.195615E-03	1.546032E-04
4.118419E+03	1.197050E-03	1.547824E-04
4.128367E+03	1.198392E-03	1.549493E-04
4.138315E+03	1.199699E-03	1.551118E-04
4.148263E+03	1.200917E-03	1.552628E-04
4.158211E+03	1.202049E-03	1.554026E-04
4.168159E+03	1.203154E-03	1.555388E-04
4.178107E+03	1.204233E-03	1.556719E-04
4.188055E+03	1.205178E-03	1.557875E-04
4.198002E+03	1.206104E-03	1.559005E-04
4.207950E+03	1.206956E-03	1.560041E-04
4.217898E+03	1.207792E-03	1.561057E-04
4.227846E+03	1.208507E-03	1.561916E-04
4.237794E+03	1.209158E-03	1.562691E-04
4.247742E+03	1.209801E-03	1.563457E-04
4.257690E+03	1.210332E-03	1.564078E-04
4.267638E+03	1.210861E-03	1.564695E-04
4.277585E+03	1.211284E-03	1.565177E-04
4.287533E+03	1.211709E-03	1.565661E-04
4.297481E+03	1.212036E-03	1.566018E-04
4.307429E+03	1.212319E-03	1.566318E-04
4.317377E+03	1.212509E-03	1.566500E-04
4.327325E+03	1.212713E-03	1.566698E-04
4.337273E+03	1.212831E-03	1.566785E-04
4.347221E+03	1.212867E-03	1.566767E-04
4.357168E+03	1.212923E-03	1.566776E-04
4.367116E+03	1.212855E-03	1.566623E-04
4.377064E+03	1.212812E-03	1.566503E-04
4.387012E+03	1.212651E-03	1.566230E-04
4.396960E+03	1.212473E-03	1.565936E-04
4.406908E+03	1.212279E-03	1.565622E-04
4.416856E+03	1.212026E-03	1.565231E-04
4.426804E+03	1.211715E-03	1.564767E-04
4.436751E+03	1.211351E-03	1.564233E-04
4.446699E+03	1.210983E-03	1.563695E-04
4.456647E+03	1.210567E-03	1.563094E-04
4.466595E+03	1.210060E-03	1.562377E-04
4.476543E+03	1.209556E-03	1.561664E-04
4.486491E+03	1.209014E-03	1.560901E-04
4.496439E+03	1.208480E-03	1.560149E-04
4.506387E+03	1.207866E-03	1.559295E-04
4.516334E+03	1.207221E-03	1.558400E-04
4.526282E+03	1.206547E-03	1.557469E-04
4.536230E+03	1.205802E-03	1.556446E-04
4.546178E+03	1.205077E-03	1.555450E-04
4.556126E+03	1.204330E-03	1.554425E-04
4.566074E+03	1.203521E-03	1.553320E-04
4.576022E+03	1.202693E-03	1.552192E-04
4.585970E+03	1.201850E-03	1.551044E-04
4.595917E+03	1.200952E-03	1.549825E-04
4.605865E+03	1.200041E-03	1.548591E-04
4.615813E+03	1.199122E-03	1.547346E-04
4.625761E+03	1.198194E-03	1.546090E-04
4.635709E+03	1.197217E-03	1.544772E-04
4.645657E+03	1.196236E-03	1.543448E-04
4.655605E+03	1.195210E-03	1.542067E-04
4.665553E+03	1.194183E-03	1.540684E-04
4.675500E+03	1.193113E-03	1.539247E-04
4.685448E+03	1.192044E-03	1.537812E-04
4.695396E+03	1.190977E-03	1.536379E-04
4.705344E+03	1.189831E-03	1.534846E-04
4.715292E+03	1.188730E-03	1.533369E-04
4.725240E+03	1.187593E-03	1.531849E-04
4.735188E+03	1.186421E-03	1.530283E-04
4.745135E+03	1.185257E-03	1.528727E-04
4.755083E+03	1.184060E-03	1.527129E-04
4.765031E+03	1.182831E-03	1.525492E-04
4.774979E+03	1.181612E-03	1.523867E-04
4.784927E+03	1.180403E-03	1.522255E-04
4.794875E+03	1.179127E-03	1.520558E-04
4.804823E+03	1.177862E-03	1.518876E-04
4.814771E+03	1.176610E-03	1.517210E-04
4.824718E+03	1.175334E-03	1.515514E-04
4.834666E+03	1.174034E-03	1.513788E-04
4.844614E+03	1.172750E-03	1.512082E-04
4.854562E+03	1.171444E-03	1.510349E-04
4.864510E+03	1.170118E-03	1.508591E-04
4.874458E+03	1.168810E-03	1.506857E-04
4.884406E+03	1.167484E-03	1.505100E-04
4.894354E+03	1.166178E-03	1.503368E-04
4.904301E+03	1.164855E-03	1.501615E-04
4.914249E+03	1.163516E-03	1.499842E-04
4.924197E+03	1.162199E-03	1.498098E-04
4.934145E+03	1.160867E-03	1.496335E-04
4.944093E+03	1.159520E-03	1.494554E-04
4.954041E+03	1.158196E-03	1.492802E-04
4.963989E+03	1.156859E-03	1.491034E-04
4.973937E+03	1.155545E-03	1.489296E-04
4.983884E+03	1.154217E-03	1.487540E-04
4.993832E+03	1.152877E-03	1.485770E-04
5.003780E+03	1.151560E-03	1.484029E-04
5.013728E+03	1.150230E-03	1.482271E-04
5.023676E+03	1.148922E-03	1.480544E-04
5.033624E+03	1.147602E-03	1.478800E-04
5.043572E+03	1.146303E-03	1.477085E-04
5.053520E+03	1.144990E-03	1.475352E-04
5.063467E+03	1.143665E-03	1.473603E-04
5.073415E+03	1.142360E-03	1.471881E-04
5.083363E+03	1.141075E-03	1.470185E-04
5.093311E+03	1.139775E-03	1.468471E-04
5.103259E+03	1.138461E-03	1.466737E-04
5.113207E+03	1.137164E-03	1.465028E-04
5.123155E+03	1.135885E-03	1.463342E-04
5.133103E+03	1.134590E-03	1.461634E-04
5.143050E+03	1.133277E-03	1.459905E-04
5.152998E+03	1.131980E-03	1.458197E-04
5.162946E+03	1.130698E-03	1.456507E-04
5.172894E+03	1.129396E-03	1.454794E-04
5.182842E+03	1.128075E-03	1.453055E-04
5.192790E+03	1.126799E-03	1.451376E-04
5.202738E+03	1.125469E-03	1.449626E-04
5.212686E+03	1.124183E-03	1.447934E-04
5.222633E+03	1.122873E-03	1.446213E-04
5.232581E+03	1.121540E-03	1.444461E-04
5.242529E+03	1.120216E-03	1.442720E-04
5.252477E+03	1.118898E-03	1.440990E-04
5.262425E+03	1.117587E-03	1.439268E-04
5.272373E+03	1.116250E-03	1.437512E-04
5.282321E+03	1.114884E-03	1.435721E-04
5.292269E+03	1.113555E-03	1.433976E-04
5.302216E+03	1.112196E-03	1.432194E-04
5.312164E+03	1.110808E-03	1.430374E-04
5.322112E+03	1.109452E-03	1.428597E-04
5.332060E+03	1.108065E-03	1.426780E-04
5.342008E+03	1.106677E-03	1.424962E-04
5.351956E+03	1.105256E-03	1.423101E-04
5.361904E+03	1.103832E-03	1.421238E-04
5.371851E+03	1.102405E-03	1.419371E-04
5.381799E+03	1.100974E-03	1.417499E-04
5.391747E+03	1.099506E-03	1.415581E-04
5.401695E+03	1.098064E-03	1.413696E-04
5.411643E+03	1.096583E-03	1.411761E-04
5.421591E+03	1.095063E-03	1.409777E-04
5.431539E+03	1.093567E-03	1.407823E-04
5.441487E+03	1.092029E-03	1.405817E-04
5.451434E+03	1.090482E-03	1.403799E-04
5.461382E+03	1.088955E-03	1.401807E-04
5.471330E+03	1.087354E-03	1.399720E-04
5.481278E+03	1.085772E-03	1.397658E-04
5.491226E+03	1.084176E-03	1.395580E-04
5.501174E+03	1.082536E-03	1.393443E-04
5.511122E+03	1.080911E-03	1.391328E-04
5.521070E+03	1.079241E-03	1.389155E-04
5.531017E+03	1.077554E-03	1.386959E-04
5.540965E+03	1.075850E-03	1.384744E-04
5.550913E+03	1.074159E-03	1.382545E-04
5.560861E+03	1.072419E-03	1.380284E-04
5.570809E+03	1.070660E-03	1.377998E-04
5.580757E+03	1.068881E-03	1.375688E-04
5.590705E+03	1.067082E-03	1.373351E-04
5.600653E+03	1.065262E-03	1.370988E-04
5.610600E+03	1.063421E-03	1.368599E-04
5.620548E+03	1.061556E-03	1.366180E-04
5.630496E+03	1.059669E-03	1.363732E-04
5.640444E+03	1.057758E-03	1.361255E-04
5.650392E+03	1.055854E-03	1.358786E-04
5.660340E+03	1.053895E-03	1.356247E-04
5.670288E+03	1.051940E-03	1.353714E-04
5.680236E+03	1.049959E-03	1.351149E-04
5.690183E+03	1.047922E-03	1.348511E-04
5.700131E+03	1.045888E-03	1.345878E-04
5.710079E+03	1.043856E-03	1.343248E-04
5.720027E+03	1.041767E-03	1.340544E-04
5.729975E+03	1.039649E-03	1.337805E-04
5.739923E+03	1.037531E-03	1.335066E-04
5.749871E+03	1.035384E-03	1.332290E-04
5.759819E+03	1.033207E-03	1.329475E-04
5.769766E+03	1.031028E-03	1.326660E-04
5.779714E+03	1.028819E-03	1.323805E-04
5.789662E+03	1.026578E-03	1.320910E-04
5.799610E+03	1.024304E-03	1.317974E-04
5.809558E+03	1.021999E-03	1.314998E-04
5.819506E+03	1.019690E-03	1.312016E-04
5.829454E+03	1.017377E-03	1.309031E-04
5.839402E+03	1.015000E-03	1.305964E-04
5.849349E+03	1.012618E-03	1.302892E-04
5.859297E+03	1.010202E-03	1.299775E-04
5.869245E+03	1.007780E-03	1.296651E-04
5.879193E+03	1.005322E-03	1.293482E-04
5.889141E+03	1.002827E-03	1.290266E-04
5.899089E+03	1.000326E-03	1.287042E-04
5.909037E+03	9.978161E-04	1.283808E-04
5.918985E+03	9.952397E-04	1.280489E-04
5.928932E+03	9.926551E-04	1.277160E-04
5.938880E+03	9.900603E-04	1.273818E-04
5.948828E+03	9.874270E-04	1.270427E-04
5.958776E+03	9.847835E-04	1.267024E-04
5.968724E+03	9.821002E-04	1.263570E-04
5.978672E+03	9.793773E-04	1.260065E-04
5.988620E+03	9.766419E-04	1.256546E-04
5.998568E+03	9.738945E-04	1.253011E-04
6.008515E+03	9.711056E-04	1.249423E-04
6.018463E+03	9.682748E-04	1.245783E-04
6.028411E+03	9.654586E-04	1.242161E-04
6.038359E+03	9.625714E-04	1.238449E-04
6.048307E+03	9.596688E-04	1.234717E-04
6.058255E+03	9.567514E-04	1.230967E-04
6.068203E+03	9.538170E-04	1.227196E-04
6.078150E+03	9.508388E-04	1.223369E-04
6.088098E+03	9.478146E-04	1.219484E-04
6.098046E+03	9.447731E-04	1.215577E-04
6.107994E+03	9.417133E-04	1.211646E-04
6.117942E+03	9.386341E-04	1.207692E-04
6.127890E+03	9.355080E-04	1.203678E-04
6.137838E+03	9.323339E-04	1.199602E-04
6.147786E+03	9.291662E-04	1.195536E-04
6.157733E+03	9.259495E-04	1.191406E-04
6.167681E+03	9.226833E-04	1.187214E-04
6.177629E+03	9.194219E-04	1.183029E-04
6.187577E+03	9.161090E-04	1.178778E-04
6.197525E+03	9.127451E-04	1.174462E-04
6.207473E+03	9.093830E-04	1.170149E-04
6.217421E+03	9.059679E-04	1.165768E-04
6.227369E+03	9.025268E-04	1.161354E-04
6.237316E+03	8.990312E-04	1.156871E-04
6.247264E+03	8.955343E-04	1.152387E-04
6.257212E+03	8.919818E-04	1.147831E-04
6.267160E+03	8.883998E-04	1.143239E-04
6.277108E+03	8.847610E-04	1.138574E-04
6.287056E+03	8.811175E-04	1.133903E-04
6.297004E+03	8.774157E-04	1.129158E-04
6.306952E+03	8.736813E-04	1.124371E-04
6.316899E+03	8.699138E-04	1.119543E-04
6.326847E+03	8.661122E-04	1.114671E-04
6.336795E+03	8.622506E-04	1.109722E-04
6.346743E+03	8.583796E-04	1.104762E-04
6.356691E+03	8.544480E-04	1.099725E-04
6.366639E+03	8.504812E-04	1.094642E-04
6.376587E+03	8.464789E-04	1.089514E-04
6.386535E+03	8.424423E-04	1.084343E-04
6.396482E+03	8.383708E-04	1.079127E-04
6.406430E+03	8.342405E-04	1.073836E-04
6.416378E+03	8.301037E-04	1.068536E-04
6.426326E+03	8.259100E-04	1.063164E-04
6.436274E+03	8.217127E-04	1.057788E-04
6.446222E+03	8.174626E-04	1.052344E-04
6.456170E+03	8.132119E-04	1.046899E-04
6.466118E+03	8.089139E-04	1.041394E-04
6.476065E+03	8.046195E-04	1.035893E-04
6.486013E+03	8.002821E-04	1.030338E-04
6.495961E+03	7.959295E-04	1.024763E-04
6.505909E+03	7.915879E-04	1.019203E-04
6.515857E+03	7.872106E-04	1.013596E-04
6.525805E+03	7.828496E-04	1.008011E-04
6.535753E+03	7.784584E-04	1.002387E-04
6.545701E+03	7.740875E-04	9.967897E-05
6.555648E+03	7.697156E-04	9.911908E-05
6.565596E+03	7.653446E-04	9.855934E-05
6.575544E+03	7.609761E-04	9.799992E-05
6.585492E+03	7.566131E-04	9.744122E-05
6.595440E+03	7.522568E-04	9.688339E-05
6.605388E+03	7.479102E-04	9.632680E-05
6.615336E+03	7.435743E-04	9.577160E-05
6.625284E+03	7.392743E-04	9.522103E-05
6.635231E+03	7.349887E-04	9.467231E-05
6.645179E+03	7.307190E-04	9.412564E-05
6.655127E+03	7.264673E-04	9.358128E-05
6.665075E+03	7.222346E-04	9.303938E-05
6.675023E+03	7.180221E-04	9.250007E-05
6.684971E+03	7.138544E-04	9.196652E-05
6.694919E+03	7.097099E-04	9.143597E-05
6.704866E+03	7.055903E-04	9.090861E-05
6.714814E+03	7.014956E-04	9.038444E-05
6.724762E+03	6.974505E-04	8.986667E-05
6.734710E+03	6.934107E-04	8.934957E-05
6.744658E+03	6.894217E-04	8.883901E-05
6.754606E+03	6.854629E-04	8.833232E-05
6.764554E+03	6.815565E-04	8.783237E-05
6.774502E+03	6.776597E-04	8.733365E-05
6.784449E+03	6.738169E-04	8.684188E-05
6.794397E+03	6.700076E-04	8.635442E-05
6.804345E+03	6.662535E-04	8.587405E-05
6.814293E+03	6.625340E-04	8.539812E-05
6.824241E+03	6.588289E-04	8.492404E-05
6.834189E+03	6.552015E-04	8.445995E-05
6.844137E+03	6.515896E-04	8.399785E-05
6.854085E+03	6.480358E-04	8.354322E-05
6.864032E+03	6.445194E-04	8.309340E-05
6.873980E+03	6.410409E-04	8.264845E-05
6.883928E+03	6.376010E-04	8.220846E-05
6.893876E+03	6.342210E-04	8.177617E-05
6.903824E+03	6.308801E-04	8.134891E-05
6.913772E+03	6.275785E-04	8.092668E-05
6.923720E+03	6.243379E-04	8.051232E-05
6.933668E+03	6.211169E-04	8.010046E-05
6.943615E+03	6.179572E-04	7.969648E-05
6.953563E+03	6.148384E-04	7.929777E-05
6.963511E+03	6.117810E-04	7.890695E-05
6.973459E+03	6.087449E-04	7.851885E-05
6.983407E+03	6.057703E-04	7.813867E-05
6.993355E+03	6.028379E-04	7.776392E-05
7.003303E+03	5.999677E-04	7.739717E-05
7.013251E+03	5.971195E-04	7.703323E-05
7.023198E+03	5.943341E-04	7.667738E-05
7.033146E+03	5.915713E-04	7.632442E-05
7.043094E+03	5.888714E-04	7.597956E-05
7.053042E+03	5.862141E-04	7.564017E-05
7.062990E+03	5.836194E-04	7.530883E-05
7.072938E+03	5.810485E-04	7.498056E-05
7.082886E+03	5.785402E-04	7.466034E-05
7.092834E+03	5.760559E-04	7.434320E-05
7.102781E+03	5.736344E-04	7.403414E-05
7.112729E+03	5.712569E-04	7.373074E-05
7.122677E+03	5.689223E-04	7.343286E-05
7.132625E+03	5.666324E-04	7.314072E-05
7.142573E+03	5.643855E-04	7.285413E-05
7.152521E+03	5.621829E-04	7.257322E-05
7.162469E+03	5.600240E-04	7.229793E-05
7.172417E+03	5.579088E-04	7.202828E-05
7.182364E+03	5.558380E-04	7.176434E-05
7.192312E+03	5.538301E-04	7.150849E-05
7.202260E+03	5.518471E-04	7.125585E-05
7.212208E+03	5.499082E-04	7.100887E-05
7.222156E+03	5.480138E-04	7.076763E-05
7.232104E+03	5.461631E-04	7.053200E-05
7.242052E+03	5.443570E-04	7.030213E-05
7.252000E+03	5.425946E-04	7.007788E-05
7.261947E+03	5.408765E-04	6.985933E-05
7.271895E+03	5.391842E-04	6.964410E-05
7.281843E+03	5.375543E-04	6.943691E-05
7.291791E+03	5.359508E-04	6.923311E-05
7.301739E+03	5.343913E-04	6.903498E-05
7.311687E+03	5.328939E-04	6.884485E-05
7.321635E+03	5.314044E-04	6.865574E-05
7.331583E+03	5.299771E-04	6.847463E-05
7.341530E+03	5.285941E-04	6.829923E-05
7.351478E+03	5.272371E-04	6.812719E-05
7.361426E+03	5.259243E-04	6.796084E-05
7.371374E+03	5.246556E-04	6.780017E-05
7.381322E+03	5.234131E-04	6.764287E-05
7.391270E+03	5.222325E-04	6.749355E-05
7.401218E+03	5.210780E-04	6.734760E-05
7.411165E+03	5.199676E-04	6.720733E-05
7.421113E+03	5.188834E-04	6.707043E-05
7.431061E+03	5.178431E-04	6.693920E-05
7.441009E+03	5.168468E-04	6.681363E-05
7.450957E+03	5.158767E-04	6.669144E-05
7.460905E+03	5.149504E-04	6.657490E-05
7.470853E+03	5.140679E-04	6.646402E-05
7.480801E+03	5.132115E-04	6.635649E-05
7.490748E+03	5.123989E-04	6.625462E-05
7.500696E+03	5.116300E-04	6.615838E-05
7.510644E+03	5.108872E-04	6.606550E-05
7.520592E+03	5.101880E-04	6.597825E-05
7.530540E+03	5.095146E-04	6.589434E-05
7.540488E+03	5.088849E-04	6.581605E-05
7.550436E+03	5.082810E-04	6.574110E-05
7.560384E+03	5.077205E-04	6.567175E-05
7.570331E+03	5.072034E-04	6.560800E-05
7.580279E+03	5.067119E-04	6.554756E-05
7.590227E+03	5.062460E-04	6.549042E-05
7.600175E+03	5.058233E-04	6.543885E-05
7.610123E+03	5.054437E-04	6.539286E-05
7.620071E+03	5.050895E-04	6.535014E-05
7.630019E+03	5.047605E-04	6.531067E-05
7.639967E+03	5.044743E-04	6.527674E-05
7.649914E+03	5.042310E-04	6.524834E-05
7.659862E+03	5.039949E-04	6.522087E-05
7.669810E+03	5.038191E-04	6.520120E-05
7.679758E+03	5.036681E-04	6.518473E-05
7.689706E+03	5.035416E-04	6.517142E-05
7.699654E+03	5.034395E-04	6.516127E-05
7.709602E+03	5.033796E-04	6.515657E-05
7.719550E+03	5.033617E-04	6.515730E-05
