#wls	flux	fluxerr
1.591660E+03	1.323686E-04	1.071236E-05
1.631451E+03	1.376598E-04	1.113218E-05
1.671243E+03	1.428935E-04	1.154651E-05
1.711034E+03	1.480350E-04	1.195251E-05
1.750826E+03	1.530043E-04	1.234374E-05
1.790617E+03	1.577054E-04	1.271245E-05
1.830409E+03	1.619762E-04	1.304563E-05
1.870200E+03	1.656449E-04	1.332951E-05
1.909992E+03	1.684388E-04	1.354227E-05
1.949783E+03	1.702385E-04	1.367450E-05
1.989575E+03	1.710121E-04	1.372384E-05
2.029366E+03	1.711536E-04	1.372209E-05
2.069158E+03	1.715715E-04	1.374217E-05
2.108949E+03	1.736170E-04	1.389213E-05
2.148741E+03	1.787184E-04	1.428573E-05
2.188532E+03	1.875761E-04	1.497810E-05
2.228324E+03	1.999950E-04	1.595273E-05
2.268115E+03	2.151603E-04	1.714368E-05
2.307907E+03	2.320712E-04	1.847051E-05
2.347698E+03	2.499139E-04	1.986796E-05
2.387490E+03	2.681635E-04	2.129399E-05
2.427281E+03	2.865401E-04	2.272618E-05
2.467073E+03	3.050145E-04	2.416209E-05
2.506864E+03	3.234755E-04	2.559277E-05
2.546656E+03	3.419823E-04	2.702280E-05
2.586447E+03	3.606660E-04	2.846240E-05
2.626239E+03	3.794584E-04	2.990604E-05
2.666030E+03	3.984317E-04	3.135925E-05
2.705821E+03	4.176519E-04	3.282706E-05
2.745613E+03	4.371204E-04	3.430937E-05
2.785404E+03	4.568245E-04	3.580501E-05
2.825196E+03	4.767387E-04	3.731177E-05
2.864987E+03	4.969491E-04	3.883622E-05
2.904779E+03	5.173512E-04	4.036997E-05
2.944570E+03	5.379526E-04	4.191346E-05
2.984362E+03	5.587559E-04	4.346668E-05
2.994310E+03	5.639595E-04	4.385425E-05
3.004258E+03	5.691283E-04	4.423873E-05
3.014206E+03	5.743947E-04	4.463042E-05
3.024153E+03	5.796304E-04	4.501931E-05
3.034101E+03	5.848560E-04	4.540704E-05
3.044049E+03	5.902299E-04	4.580589E-05
3.053997E+03	5.956078E-04	4.620465E-05
3.063945E+03	6.009828E-04	4.660277E-05
3.073893E+03	6.064147E-04	4.700489E-05
3.083841E+03	6.118969E-04	4.741051E-05
3.093789E+03	6.174231E-04	4.781912E-05
3.103736E+03	6.229188E-04	4.822494E-05
3.113684E+03	6.284469E-04	4.863285E-05
3.123632E+03	6.340023E-04	4.904244E-05
3.133580E+03	6.395802E-04	4.945335E-05
3.143528E+03	6.451059E-04	4.985980E-05
3.153476E+03	6.506450E-04	5.026685E-05
3.163424E+03	6.561230E-04	5.066875E-05
3.173372E+03	6.616764E-04	5.107604E-05
3.183319E+03	6.671614E-04	5.147763E-05
3.193267E+03	6.726443E-04	5.187862E-05
3.203215E+03	6.781224E-04	5.227880E-05
3.213163E+03	6.835219E-04	5.267249E-05
3.223111E+03	6.889102E-04	5.306490E-05
3.233059E+03	6.942852E-04	5.345584E-05
3.243007E+03	6.996446E-04	5.384515E-05
3.252955E+03	7.049855E-04	5.423262E-05
3.262902E+03	7.103060E-04	5.461808E-05
3.272850E+03	7.155333E-04	5.499595E-05
3.282798E+03	7.207358E-04	5.537148E-05
3.292746E+03	7.259123E-04	5.574459E-05
3.302694E+03	7.310614E-04	5.611518E-05
3.312642E+03	7.361806E-04	5.648304E-05
3.322590E+03	7.411977E-04	5.684266E-05
3.332538E+03	7.462544E-04	5.720489E-05
3.342485E+03	7.512058E-04	5.755864E-05
3.352433E+03	7.561221E-04	5.790929E-05
3.362381E+03	7.610030E-04	5.825681E-05
3.372329E+03	7.658466E-04	5.860106E-05
3.382277E+03	7.706525E-04	5.894203E-05
3.392225E+03	7.754192E-04	5.927960E-05
3.402173E+03	7.801458E-04	5.961369E-05
3.412120E+03	7.848317E-04	5.994427E-05
3.422068E+03	7.894055E-04	6.026590E-05
3.432016E+03	7.940074E-04	6.058927E-05
3.441964E+03	7.984955E-04	6.090359E-05
3.451912E+03	8.030110E-04	6.121959E-05
3.461860E+03	8.074112E-04	6.152642E-05
3.471808E+03	8.118369E-04	6.183481E-05
3.481756E+03	8.161467E-04	6.213400E-05
3.491703E+03	8.204109E-04	6.242933E-05
3.501651E+03	8.246979E-04	6.272604E-05
3.511599E+03	8.288683E-04	6.301351E-05
3.521547E+03	8.329915E-04	6.329702E-05
3.531495E+03	8.371359E-04	6.358178E-05
3.541443E+03	8.411627E-04	6.385725E-05
3.551391E+03	8.451411E-04	6.412869E-05
3.561339E+03	8.490705E-04	6.439607E-05
3.571286E+03	8.530191E-04	6.466455E-05
3.581234E+03	8.568493E-04	6.492372E-05
3.591182E+03	8.606300E-04	6.517880E-05
3.601130E+03	8.644281E-04	6.543486E-05
3.611078E+03	8.681083E-04	6.568166E-05
3.621026E+03	8.717378E-04	6.592431E-05
3.630974E+03	8.753840E-04	6.616789E-05
3.640922E+03	8.789121E-04	6.640223E-05
3.650869E+03	8.824560E-04	6.663745E-05
3.660817E+03	8.858821E-04	6.686346E-05
3.670765E+03	8.893233E-04	6.709031E-05
3.680713E+03	8.926472E-04	6.730801E-05
3.690661E+03	8.959852E-04	6.752648E-05
3.700609E+03	8.992066E-04	6.773587E-05
3.710557E+03	9.024422E-04	6.794604E-05
3.720505E+03	9.055616E-04	6.814719E-05
3.730452E+03	9.086946E-04	6.834908E-05
3.740400E+03	9.117763E-04	6.854684E-05
3.750348E+03	9.147433E-04	6.873571E-05
3.760296E+03	9.177234E-04	6.892530E-05
3.770244E+03	9.205891E-04	6.910605E-05
3.780192E+03	9.234683E-04	6.928756E-05
3.790140E+03	9.262345E-04	6.946035E-05
3.800088E+03	9.290141E-04	6.963390E-05
3.810035E+03	9.316817E-04	6.979882E-05
3.819983E+03	9.343628E-04	6.996453E-05
3.829931E+03	9.369332E-04	7.012172E-05
3.839879E+03	9.394562E-04	7.027515E-05
3.849827E+03	9.419925E-04	7.042937E-05
3.859775E+03	9.444208E-04	7.057530E-05
3.869723E+03	9.468028E-04	7.071757E-05
3.879671E+03	9.491386E-04	7.085620E-05
3.889618E+03	9.514298E-04	7.099130E-05
3.899566E+03	9.536164E-04	7.111843E-05
3.909514E+03	9.558190E-04	7.124658E-05
3.919462E+03	9.579197E-04	7.136695E-05
3.929410E+03	9.599781E-04	7.148402E-05
3.939358E+03	9.619951E-04	7.159785E-05
3.949306E+03	9.639720E-04	7.170854E-05
3.959254E+03	9.659089E-04	7.181611E-05
3.969201E+03	9.677498E-04	7.191640E-05
3.979149E+03	9.695532E-04	7.201378E-05
3.989097E+03	9.713196E-04	7.210829E-05
3.999045E+03	9.729946E-04	7.219589E-05
4.008993E+03	9.746907E-04	7.228495E-05
4.018941E+03	9.762423E-04	7.236319E-05
4.028889E+03	9.778175E-04	7.244308E-05
4.038836E+03	9.793063E-04	7.251647E-05
4.048784E+03	9.807653E-04	7.258758E-05
4.058732E+03	9.821417E-04	7.265250E-05
4.068680E+03	9.834373E-04	7.271137E-05
4.078628E+03	9.847609E-04	7.277225E-05
4.088576E+03	9.859534E-04	7.282339E-05
4.098524E+03	9.871760E-04	7.287670E-05
4.108472E+03	9.882721E-04	7.292062E-05
4.118419E+03	9.893478E-04	7.296302E-05
4.128367E+03	9.904055E-04	7.300405E-05
4.138315E+03	9.913425E-04	7.303617E-05
4.148263E+03	9.922646E-04	7.306718E-05
4.158211E+03	9.931730E-04	7.309717E-05
4.168159E+03	9.939676E-04	7.311879E-05
4.178107E+03	9.947517E-04	7.313965E-05
4.188055E+03	9.954770E-04	7.315620E-05
4.198002E+03	9.961457E-04	7.316861E-05
4.207950E+03	9.968084E-04	7.318061E-05
4.217898E+03	9.973691E-04	7.318516E-05
4.227846E+03	9.979278E-04	7.318961E-05
4.237794E+03	9.983892E-04	7.318697E-05
4.247742E+03	9.988522E-04	7.318451E-05
4.257690E+03	9.992225E-04	7.317533E-05
4.267638E+03	9.995977E-04	7.316657E-05
4.277585E+03	9.998854E-04	7.315150E-05
4.287533E+03	1.000135E-03	7.313371E-05
4.297481E+03	1.000348E-03	7.311335E-05
4.307429E+03	1.000527E-03	7.309060E-05
4.317377E+03	1.000673E-03	7.306559E-05
4.327325E+03	1.000744E-03	7.303517E-05
4.337273E+03	1.000786E-03	7.300281E-05
4.347221E+03	1.000803E-03	7.296870E-05
4.357168E+03	1.000751E-03	7.292970E-05
4.367116E+03	1.000677E-03	7.288927E-05
4.377064E+03	1.000583E-03	7.284752E-05
4.387012E+03	1.000427E-03	7.280140E-05
4.396960E+03	1.000255E-03	7.275428E-05
4.406908E+03	1.000025E-03	7.270316E-05
4.416856E+03	9.997402E-04	7.264819E-05
4.426804E+03	9.994453E-04	7.259268E-05
4.436751E+03	9.990995E-04	7.253367E-05
4.446699E+03	9.987468E-04	7.247435E-05
4.456647E+03	9.983474E-04	7.241185E-05
4.466595E+03	9.979032E-04	7.234631E-05
4.476543E+03	9.974161E-04	7.227788E-05
4.486491E+03	9.969294E-04	7.220970E-05
4.496439E+03	9.964041E-04	7.213896E-05
4.506387E+03	9.958412E-04	7.206573E-05
4.516334E+03	9.952428E-04	7.199017E-05
4.526282E+03	9.946111E-04	7.191246E-05
4.536230E+03	9.939872E-04	7.183556E-05
4.546178E+03	9.932932E-04	7.175387E-05
4.556126E+03	9.926101E-04	7.167322E-05
4.566074E+03	9.918601E-04	7.158802E-05
4.576022E+03	9.911237E-04	7.150408E-05
4.585970E+03	9.903238E-04	7.141585E-05
4.595917E+03	9.895008E-04	7.132624E-05
4.605865E+03	9.886948E-04	7.123815E-05
4.615813E+03	9.878297E-04	7.114611E-05
4.625761E+03	9.869449E-04	7.105296E-05
4.635709E+03	9.860416E-04	7.095879E-05
4.645657E+03	9.851209E-04	7.086370E-05
4.655605E+03	9.841461E-04	7.076503E-05
4.665553E+03	9.831934E-04	7.066829E-05
4.675500E+03	9.821880E-04	7.056811E-05
4.685448E+03	9.811688E-04	7.046727E-05
4.695396E+03	9.801361E-04	7.036581E-05
4.705344E+03	9.790539E-04	7.026115E-05
4.715292E+03	9.779956E-04	7.015856E-05
4.725240E+03	9.768889E-04	7.005287E-05
4.735188E+03	9.757350E-04	6.994417E-05
4.745135E+03	9.746062E-04	6.983763E-05
4.755083E+03	9.734308E-04	6.972815E-05
4.765031E+03	9.722449E-04	6.961830E-05
4.774979E+03	9.710142E-04	6.950561E-05
4.784927E+03	9.697747E-04	6.939268E-05
4.794875E+03	9.685273E-04	6.927956E-05
4.804823E+03	9.672725E-04	6.916627E-05
4.814771E+03	9.659765E-04	6.905041E-05
4.824718E+03	9.646757E-04	6.893458E-05
4.834666E+03	9.633369E-04	6.881639E-05
4.844614E+03	9.619957E-04	6.869839E-05
4.854562E+03	9.606525E-04	6.858061E-05
4.864510E+03	9.592754E-04	6.846075E-05
4.874458E+03	9.578986E-04	6.834128E-05
4.884406E+03	9.565233E-04	6.822224E-05
4.894354E+03	9.551167E-04	6.810133E-05
4.904301E+03	9.537135E-04	6.798099E-05
4.914249E+03	9.523145E-04	6.786129E-05
4.924197E+03	9.508866E-04	6.773987E-05
4.934145E+03	9.494641E-04	6.761916E-05
4.944093E+03	9.480151E-04	6.749689E-05
4.954041E+03	9.465725E-04	6.737540E-05
4.963989E+03	9.451367E-04	6.725471E-05
4.973937E+03	9.437080E-04	6.713485E-05
4.983884E+03	9.422544E-04	6.701353E-05
4.993832E+03	9.407770E-04	6.689082E-05
5.003780E+03	9.393396E-04	6.677127E-05
5.013728E+03	9.378786E-04	6.665034E-05
5.023676E+03	9.363944E-04	6.652807E-05
5.033624E+03	9.349501E-04	6.640894E-05
5.043572E+03	9.334829E-04	6.628847E-05
5.053520E+03	9.319933E-04	6.616670E-05
5.063467E+03	9.305431E-04	6.604802E-05
5.073415E+03	9.290702E-04	6.592802E-05
5.083363E+03	9.275747E-04	6.580670E-05
5.093311E+03	9.261180E-04	6.568842E-05
5.103259E+03	9.246390E-04	6.556882E-05
5.113207E+03	9.231671E-04	6.545001E-05
5.123155E+03	9.216724E-04	6.532986E-05
5.133103E+03	9.202154E-04	6.521265E-05
5.143050E+03	9.187350E-04	6.509406E-05
5.152998E+03	9.172608E-04	6.497616E-05
5.162946E+03	9.157629E-04	6.485686E-05
5.172894E+03	9.142711E-04	6.473825E-05
5.182842E+03	9.127843E-04	6.462026E-05
5.192790E+03	9.113028E-04	6.450290E-05
5.202738E+03	9.098258E-04	6.438611E-05
5.212686E+03	9.083231E-04	6.426775E-05
5.222633E+03	9.068246E-04	6.414995E-05
5.232581E+03	9.053291E-04	6.403261E-05
5.242529E+03	9.038358E-04	6.391568E-05
5.252477E+03	9.023159E-04	6.379711E-05
5.262425E+03	9.008270E-04	6.368098E-05
5.272373E+03	8.993103E-04	6.356312E-05
5.282321E+03	8.977940E-04	6.344554E-05
5.292269E+03	8.962783E-04	6.332824E-05
5.302216E+03	8.947618E-04	6.321113E-05
5.312164E+03	8.932157E-04	6.309216E-05
5.322112E+03	8.916974E-04	6.297538E-05
5.332060E+03	8.901482E-04	6.285667E-05
5.342008E+03	8.885965E-04	6.273802E-05
5.351956E+03	8.870420E-04	6.261940E-05
5.361904E+03	8.854839E-04	6.250075E-05
5.371851E+03	8.839214E-04	6.238203E-05
5.381799E+03	8.823550E-04	6.226326E-05
5.391747E+03	8.807548E-04	6.214234E-05
5.401695E+03	8.791770E-04	6.202322E-05
5.411643E+03	8.775929E-04	6.190390E-05
5.421591E+03	8.759745E-04	6.178238E-05
5.431539E+03	8.743765E-04	6.166252E-05
5.441487E+03	8.727430E-04	6.154039E-05
5.451434E+03	8.711288E-04	6.141984E-05
5.461382E+03	8.694784E-04	6.129696E-05
5.471330E+03	8.678457E-04	6.117556E-05
5.481278E+03	8.661761E-04	6.105178E-05
5.491226E+03	8.645235E-04	6.092942E-05
5.501174E+03	8.628602E-04	6.080654E-05
5.511122E+03	8.611581E-04	6.068114E-05
5.521070E+03	8.594716E-04	6.055706E-05
5.531017E+03	8.577728E-04	6.043234E-05
5.540965E+03	8.560611E-04	6.030693E-05
5.550913E+03	8.543361E-04	6.018081E-05
5.560861E+03	8.525978E-04	6.005397E-05
5.570809E+03	8.508451E-04	5.992634E-05
5.580757E+03	8.490780E-04	5.979792E-05
5.590705E+03	8.473226E-04	5.967055E-05
5.600653E+03	8.455248E-04	5.954041E-05
5.610600E+03	8.437380E-04	5.941127E-05
5.620548E+03	8.419350E-04	5.928121E-05
5.630496E+03	8.401154E-04	5.915020E-05
5.640444E+03	8.382784E-04	5.901819E-05
5.650392E+03	8.364501E-04	5.888702E-05
5.660340E+03	8.345777E-04	5.875296E-05
5.670288E+03	8.327133E-04	5.861970E-05
5.680236E+03	8.308305E-04	5.848536E-05
5.690183E+03	8.289545E-04	5.835173E-05
5.700131E+03	8.270326E-04	5.821508E-05
5.710079E+03	8.251172E-04	5.807912E-05
5.720027E+03	8.232075E-04	5.794379E-05
5.729975E+03	8.212513E-04	5.780540E-05
5.739923E+03	8.193000E-04	5.766760E-05
5.749871E+03	8.173274E-04	5.752851E-05
5.759819E+03	8.153587E-04	5.738993E-05
5.769766E+03	8.133683E-04	5.725005E-05
5.779714E+03	8.113550E-04	5.710878E-05
5.789662E+03	8.093189E-04	5.696614E-05
5.799610E+03	8.072856E-04	5.682393E-05
5.809558E+03	8.052544E-04	5.668209E-05
5.819506E+03	8.031736E-04	5.653699E-05
5.829454E+03	8.011202E-04	5.639405E-05
5.839402E+03	7.990161E-04	5.624776E-05
5.849349E+03	7.969129E-04	5.610178E-05
5.859297E+03	7.947843E-04	5.595424E-05
5.869245E+03	7.926560E-04	5.580695E-05
5.879193E+03	7.905266E-04	5.565982E-05
5.889141E+03	7.883455E-04	5.550928E-05
5.899089E+03	7.861887E-04	5.536068E-05
5.909037E+03	7.839799E-04	5.520865E-05
5.918985E+03	7.817937E-04	5.505846E-05
5.928932E+03	7.795546E-04	5.490477E-05
5.938880E+03	7.773379E-04	5.475290E-05
5.948828E+03	7.750923E-04	5.459923E-05
5.958776E+03	7.728184E-04	5.444379E-05
5.968724E+03	7.705405E-04	5.428831E-05
5.978672E+03	7.682325E-04	5.413096E-05
5.988620E+03	7.659197E-04	5.397350E-05
5.998568E+03	7.636018E-04	5.381591E-05
6.008515E+03	7.612527E-04	5.365637E-05
6.018463E+03	7.588976E-04	5.349664E-05
6.028411E+03	7.565109E-04	5.333492E-05
6.038359E+03	7.541171E-04	5.317294E-05
6.048307E+03	7.516913E-04	5.300895E-05
6.058255E+03	7.492814E-04	5.284631E-05
6.068203E+03	7.468141E-04	5.267986E-05
6.078150E+03	7.443618E-04	5.251470E-05
6.088098E+03	7.418755E-04	5.234740E-05
6.098046E+03	7.393792E-04	5.217962E-05
6.107994E+03	7.368482E-04	5.200962E-05
6.117942E+03	7.343053E-04	5.183903E-05
6.127890E+03	7.317512E-04	5.166788E-05
6.137838E+03	7.291606E-04	5.149440E-05
6.147786E+03	7.265804E-04	5.132188E-05
6.157733E+03	7.239396E-04	5.114532E-05
6.167681E+03	7.213083E-04	5.096966E-05
6.177629E+03	7.186384E-04	5.079152E-05
6.187577E+03	7.159530E-04	5.061250E-05
6.197525E+03	7.132516E-04	5.043259E-05
6.207473E+03	7.105337E-04	5.025175E-05
6.217421E+03	7.077747E-04	5.006823E-05
6.227369E+03	7.049980E-04	4.988369E-05
6.237316E+03	7.022022E-04	4.969802E-05
6.247264E+03	6.993635E-04	4.950954E-05
6.257212E+03	6.965283E-04	4.932154E-05
6.267160E+03	6.936484E-04	4.913060E-05
6.277108E+03	6.907473E-04	4.893837E-05
6.287056E+03	6.878236E-04	4.874476E-05
6.297004E+03	6.848539E-04	4.854811E-05
6.306952E+03	6.818829E-04	4.835158E-05
6.316899E+03	6.788644E-04	4.815189E-05
6.326847E+03	6.758202E-04	4.795058E-05
6.336795E+03	6.727496E-04	4.774760E-05
6.346743E+03	6.696513E-04	4.754283E-05
6.356691E+03	6.665257E-04	4.733628E-05
6.366639E+03	6.633708E-04	4.712782E-05
6.376587E+03	6.601643E-04	4.691585E-05
6.386535E+03	6.569502E-04	4.670347E-05
6.396482E+03	6.536844E-04	4.648754E-05
6.406430E+03	6.503895E-04	4.626967E-05
6.416378E+03	6.470879E-04	4.605143E-05
6.426326E+03	6.437376E-04	4.582983E-05
6.436274E+03	6.403615E-04	4.560648E-05
6.446222E+03	6.369618E-04	4.538153E-05
6.456170E+03	6.335412E-04	4.515516E-05
6.466118E+03	6.301018E-04	4.492751E-05
6.476065E+03	6.266458E-04	4.469873E-05
6.486013E+03	6.231753E-04	4.446896E-05
6.495961E+03	6.196932E-04	4.423839E-05
6.505909E+03	6.162010E-04	4.400714E-05
6.515857E+03	6.127014E-04	4.377537E-05
6.525805E+03	6.091962E-04	4.354321E-05
6.535753E+03	6.056875E-04	4.331081E-05
6.545701E+03	6.021772E-04	4.307828E-05
6.555648E+03	5.986679E-04	4.284581E-05
6.565596E+03	5.951604E-04	4.261345E-05
6.575544E+03	5.916769E-04	4.238278E-05
6.585492E+03	5.881792E-04	4.215107E-05
6.595440E+03	5.846886E-04	4.191982E-05
6.605388E+03	5.812273E-04	4.169063E-05
6.615336E+03	5.777558E-04	4.146065E-05
6.625284E+03	5.743162E-04	4.123290E-05
6.635231E+03	5.708894E-04	4.100601E-05
6.645179E+03	5.674767E-04	4.078007E-05
6.655127E+03	5.640800E-04	4.055519E-05
6.665075E+03	5.606996E-04	4.033142E-05
6.675023E+03	5.573372E-04	4.010886E-05
6.684971E+03	5.540130E-04	3.988896E-05
6.694919E+03	5.506896E-04	3.966901E-05
6.704866E+03	5.474064E-04	3.945188E-05
6.714814E+03	5.441449E-04	3.923620E-05
6.724762E+03	5.409059E-04	3.902205E-05
6.734710E+03	5.376902E-04	3.880947E-05
6.744658E+03	5.344988E-04	3.859854E-05
6.754606E+03	5.313514E-04	3.839066E-05
6.764554E+03	5.282112E-04	3.818320E-05
6.774502E+03	5.251153E-04	3.797882E-05
6.784449E+03	5.220469E-04	3.777630E-05
6.794397E+03	5.190058E-04	3.757564E-05
6.804345E+03	5.160112E-04	3.737822E-05
6.814293E+03	5.130271E-04	3.718143E-05
6.824241E+03	5.100900E-04	3.698792E-05
6.834189E+03	5.071830E-04	3.679645E-05
6.844137E+03	5.043055E-04	3.660700E-05
6.854085E+03	5.014586E-04	3.641964E-05
6.864032E+03	4.986422E-04	3.623434E-05
6.873980E+03	4.958750E-04	3.605250E-05
6.883928E+03	4.931393E-04	3.587280E-05
6.893876E+03	4.904176E-04	3.569398E-05
6.903824E+03	4.877630E-04	3.551991E-05
6.913772E+03	4.851234E-04	3.534679E-05
6.923720E+03	4.825165E-04	3.517591E-05
6.933668E+03	4.799599E-04	3.500856E-05
6.943615E+03	4.774187E-04	3.484218E-05
6.953563E+03	4.749281E-04	3.467936E-05
6.963511E+03	4.724709E-04	3.451883E-05
6.973459E+03	4.700474E-04	3.436062E-05
6.983407E+03	4.676742E-04	3.420595E-05
6.993355E+03	4.653182E-04	3.405239E-05
7.003303E+03	4.630130E-04	3.390241E-05
7.013251E+03	4.607251E-04	3.375355E-05
7.023198E+03	4.584881E-04	3.360829E-05
7.033146E+03	4.562854E-04	3.346539E-05
7.043094E+03	4.541171E-04	3.332488E-05
7.053042E+03	4.519832E-04	3.318675E-05
7.062990E+03	4.498839E-04	3.305102E-05
7.072938E+03	4.478353E-04	3.291888E-05
7.082886E+03	4.458053E-04	3.278797E-05
7.092834E+03	4.438098E-04	3.265946E-05
7.102781E+03	4.418652E-04	3.253455E-05
7.112729E+03	4.399392E-04	3.241089E-05
7.122677E+03	4.380640E-04	3.229083E-05
7.132625E+03	4.362235E-04	3.217319E-05
7.142573E+03	4.344018E-04	3.205681E-05
7.152521E+03	4.326308E-04	3.194404E-05
7.162469E+03	4.308788E-04	3.183254E-05
7.172417E+03	4.291772E-04	3.172464E-05
7.182364E+03	4.275104E-04	3.161918E-05
7.192312E+03	4.258627E-04	3.151501E-05
7.202260E+03	4.242653E-04	3.141444E-05
7.212208E+03	4.226871E-04	3.131516E-05
7.222156E+03	4.211436E-04	3.121833E-05
7.232104E+03	4.196501E-04	3.112509E-05
7.242052E+03	4.181759E-04	3.103316E-05
7.252000E+03	4.167363E-04	3.094367E-05
7.261947E+03	4.153312E-04	3.085664E-05
7.271895E+03	4.139607E-04	3.077206E-05
7.281843E+03	4.126247E-04	3.068992E-05
7.291791E+03	4.113231E-04	3.061024E-05
7.301739E+03	4.100407E-04	3.053187E-05
7.311687E+03	4.088078E-04	3.045709E-05
7.321635E+03	4.075941E-04	3.038362E-05
7.331583E+03	4.064147E-04	3.031260E-05
7.341530E+03	4.052696E-04	3.024403E-05
7.351478E+03	4.041586E-04	3.017791E-05
7.361426E+03	4.030667E-04	3.011312E-05
7.371374E+03	4.020089E-04	3.005077E-05
7.381322E+03	4.009851E-04	2.999086E-05
7.391270E+03	3.999953E-04	2.993340E-05
7.401218E+03	3.990395E-04	2.987839E-05
7.411165E+03	3.981025E-04	2.982470E-05
7.421113E+03	3.971994E-04	2.977345E-05
7.431061E+03	3.963300E-04	2.972464E-05
7.441009E+03	3.954795E-04	2.967715E-05
7.450957E+03	3.946626E-04	2.963210E-05
7.460905E+03	3.938792E-04	2.958948E-05
7.470853E+03	3.931294E-04	2.954930E-05
7.480801E+03	3.923982E-04	2.951044E-05
7.490748E+03	3.917004E-04	2.947400E-05
7.500696E+03	3.910211E-04	2.943889E-05
7.510644E+03	3.903750E-04	2.940619E-05
7.520592E+03	3.897622E-04	2.937592E-05
7.530540E+03	3.891824E-04	2.934807E-05
7.540488E+03	3.886209E-04	2.932152E-05
7.550436E+03	3.880923E-04	2.929739E-05
7.560384E+03	3.875819E-04	2.927456E-05
7.570331E+03	3.871042E-04	2.925414E-05
7.580279E+03	3.866446E-04	2.923500E-05
7.590227E+03	3.862175E-04	2.921828E-05
7.600175E+03	3.858230E-04	2.920395E-05
7.610123E+03	3.854462E-04	2.919089E-05
7.620071E+03	3.851018E-04	2.918023E-05
7.630019E+03	3.847748E-04	2.917084E-05
7.639967E+03	3.844801E-04	2.916382E-05
7.649914E+03	3.842174E-04	2.915919E-05
7.659862E+03	3.839719E-04	2.915581E-05
7.669810E+03	3.837435E-04	2.915366E-05
7.679758E+03	3.835468E-04	2.915388E-05
7.689706E+03	3.833818E-04	2.915646E-05
7.699654E+03	3.832335E-04	2.916026E-05
7.709602E+03	3.831166E-04	2.916640E-05
7.719550E+03	3.830161E-04	2.917374E-05
