#wls	flux	fluxerr
1.591660E+03	8.901968E-05	1.691597E-05
1.631451E+03	9.248610E-05	1.756244E-05
1.671243E+03	9.586819E-05	1.819174E-05
1.711034E+03	9.917310E-05	1.880526E-05
1.750826E+03	1.023472E-04	1.939285E-05
1.790617E+03	1.053266E-04	1.994241E-05
1.830409E+03	1.079857E-04	2.043024E-05
1.870200E+03	1.101920E-04	2.083144E-05
1.909992E+03	1.118217E-04	2.112279E-05
1.949783E+03	1.127629E-04	2.128340E-05
1.989575E+03	1.129992E-04	2.131050E-05
2.029366E+03	1.127962E-04	2.125447E-05
2.069158E+03	1.127743E-04	2.123229E-05
2.108949E+03	1.138001E-04	2.140692E-05
2.148741E+03	1.167806E-04	2.194830E-05
2.188532E+03	1.221920E-04	2.294485E-05
2.228324E+03	1.298665E-04	2.436384E-05
2.268115E+03	1.392330E-04	2.609699E-05
2.307907E+03	1.496480E-04	2.802286E-05
2.347698E+03	1.605531E-04	3.003635E-05
2.387490E+03	1.716303E-04	3.207771E-05
2.427281E+03	1.827022E-04	3.411362E-05
2.467073E+03	1.936977E-04	3.613074E-05
2.506864E+03	2.046043E-04	3.812670E-05
2.546656E+03	2.154688E-04	4.011022E-05
2.586447E+03	2.262527E-04	4.207406E-05
2.626239E+03	2.370801E-04	4.404128E-05
2.666030E+03	2.478709E-04	4.599690E-05
2.705821E+03	2.587460E-04	4.796329E-05
2.745613E+03	2.696813E-04	4.993591E-05
2.785404E+03	2.806422E-04	5.190825E-05
2.825196E+03	2.917040E-04	5.389417E-05
2.864987E+03	3.028631E-04	5.589286E-05
2.904779E+03	3.140270E-04	5.788721E-05
2.944570E+03	3.253059E-04	5.989745E-05
2.984362E+03	3.365986E-04	6.190487E-05
2.994310E+03	3.394379E-04	6.240885E-05
3.004258E+03	3.422653E-04	6.291031E-05
3.014206E+03	3.450806E-04	6.340920E-05
3.024153E+03	3.479313E-04	6.391426E-05
3.034101E+03	3.507865E-04	6.441981E-05
3.044049E+03	3.537048E-04	6.493660E-05
3.053997E+03	3.565920E-04	6.544733E-05
3.063945E+03	3.595333E-04	6.596765E-05
3.073893E+03	3.625253E-04	6.649690E-05
3.083841E+03	3.654734E-04	6.701775E-05
3.093789E+03	3.684649E-04	6.754623E-05
3.103736E+03	3.714971E-04	6.808180E-05
3.113684E+03	3.744752E-04	6.860708E-05
3.123632E+03	3.774882E-04	6.913841E-05
3.133580E+03	3.805341E-04	6.967540E-05
3.143528E+03	3.835641E-04	7.020913E-05
3.153476E+03	3.865760E-04	7.073918E-05
3.163424E+03	3.895676E-04	7.126516E-05
3.173372E+03	3.925841E-04	7.179534E-05
3.183319E+03	3.955768E-04	7.232081E-05
3.193267E+03	3.985440E-04	7.284127E-05
3.203215E+03	4.015319E-04	7.336515E-05
3.213163E+03	4.044917E-04	7.388355E-05
3.223111E+03	4.074700E-04	7.440498E-05
3.233059E+03	4.103700E-04	7.491175E-05
3.243007E+03	4.133347E-04	7.543000E-05
3.252955E+03	4.162189E-04	7.593322E-05
3.262902E+03	4.191185E-04	7.643890E-05
3.272850E+03	4.219842E-04	7.693807E-05
3.282798E+03	4.248642E-04	7.743951E-05
3.292746E+03	4.277093E-04	7.793425E-05
3.302694E+03	4.305190E-04	7.842222E-05
3.312642E+03	4.333418E-04	7.891224E-05
3.322590E+03	4.361286E-04	7.939537E-05
3.332538E+03	4.388788E-04	7.987153E-05
3.342485E+03	4.416414E-04	8.034963E-05
3.352433E+03	4.443672E-04	8.082073E-05
3.362381E+03	4.471053E-04	8.129374E-05
3.372329E+03	4.498063E-04	8.175970E-05
3.382277E+03	4.524700E-04	8.221858E-05
3.392225E+03	4.551460E-04	8.267939E-05
3.402173E+03	4.577847E-04	8.313313E-05
3.412120E+03	4.603861E-04	8.357980E-05
3.422068E+03	4.629999E-04	8.402844E-05
3.432016E+03	4.655765E-04	8.447004E-05
3.441964E+03	4.681160E-04	8.490462E-05
3.451912E+03	4.706683E-04	8.534125E-05
3.461860E+03	4.732337E-04	8.577997E-05
3.471808E+03	4.757123E-04	8.620270E-05
3.481756E+03	4.782042E-04	8.662757E-05
3.491703E+03	4.806597E-04	8.704559E-05
3.501651E+03	4.831289E-04	8.746581E-05
3.511599E+03	4.855619E-04	8.787925E-05
3.521547E+03	4.880090E-04	8.829497E-05
3.531495E+03	4.903703E-04	8.869493E-05
3.541443E+03	4.927962E-04	8.910633E-05
3.551391E+03	4.951369E-04	8.950208E-05
3.561339E+03	4.974922E-04	8.990023E-05
3.571286E+03	4.998129E-04	9.029191E-05
3.581234E+03	5.021484E-04	9.068604E-05
3.591182E+03	5.044501E-04	9.107384E-05
3.601130E+03	5.067171E-04	9.145517E-05
3.611078E+03	5.090002E-04	9.183918E-05
3.621026E+03	5.112498E-04	9.221694E-05
3.630974E+03	5.134656E-04	9.258842E-05
3.640922E+03	5.156979E-04	9.296266E-05
3.650869E+03	5.178971E-04	9.333074E-05
3.660817E+03	5.200638E-04	9.369278E-05
3.670765E+03	5.222473E-04	9.405767E-05
3.680713E+03	5.243989E-04	9.441662E-05
3.690661E+03	5.265181E-04	9.476957E-05
3.700609E+03	5.286549E-04	9.512552E-05
3.710557E+03	5.307607E-04	9.547573E-05
3.720505E+03	5.328348E-04	9.582007E-05
3.730452E+03	5.349269E-04	9.616752E-05
3.740400E+03	5.369886E-04	9.650933E-05
3.750348E+03	5.390194E-04	9.684544E-05
3.760296E+03	5.410203E-04	9.717605E-05
3.770244E+03	5.430399E-04	9.750990E-05
3.780192E+03	5.450785E-04	9.784702E-05
3.790140E+03	5.470388E-04	9.816998E-05
3.800088E+03	5.490188E-04	9.849634E-05
3.810035E+03	5.509692E-04	9.881729E-05
3.819983E+03	5.528912E-04	9.913302E-05
3.829931E+03	5.548334E-04	9.945229E-05
3.839879E+03	5.566987E-04	9.975769E-05
3.849827E+03	5.585844E-04	1.000666E-04
3.859775E+03	5.604910E-04	1.003793E-04
3.869723E+03	5.623215E-04	1.006782E-04
3.879671E+03	5.641729E-04	1.009808E-04
3.889618E+03	5.659977E-04	1.012786E-04
3.899566E+03	5.677961E-04	1.015716E-04
3.909514E+03	5.696154E-04	1.018682E-04
3.919462E+03	5.714094E-04	1.021603E-04
3.929410E+03	5.731769E-04	1.024477E-04
3.939358E+03	5.749192E-04	1.027305E-04
3.949306E+03	5.766363E-04	1.030087E-04
3.959254E+03	5.783280E-04	1.032824E-04
3.969201E+03	5.800432E-04	1.035603E-04
3.979149E+03	5.817334E-04	1.038338E-04
3.989097E+03	5.834003E-04	1.041030E-04
3.999045E+03	5.850428E-04	1.043680E-04
4.008993E+03	5.866623E-04	1.046288E-04
4.018941E+03	5.883054E-04	1.048939E-04
4.028889E+03	5.898788E-04	1.051466E-04
4.038836E+03	5.914765E-04	1.054036E-04
4.048784E+03	5.930521E-04	1.056568E-04
4.058732E+03	5.946059E-04	1.059061E-04
4.068680E+03	5.961376E-04	1.061515E-04
4.078628E+03	5.976487E-04	1.063933E-04
4.088576E+03	5.991383E-04	1.066314E-04
4.098524E+03	6.006078E-04	1.068660E-04
4.108472E+03	6.021028E-04	1.071052E-04
4.118419E+03	6.035316E-04	1.073328E-04
4.128367E+03	6.049413E-04	1.075570E-04
4.138315E+03	6.063769E-04	1.077860E-04
4.148263E+03	6.077481E-04	1.080036E-04
4.158211E+03	6.091461E-04	1.082261E-04
4.168159E+03	6.104801E-04	1.084374E-04
4.178107E+03	6.117964E-04	1.086457E-04
4.188055E+03	6.131400E-04	1.088590E-04
4.198002E+03	6.144209E-04	1.090613E-04
4.207950E+03	6.157299E-04	1.092687E-04
4.217898E+03	6.169771E-04	1.094654E-04
4.227846E+03	6.182077E-04	1.096593E-04
4.237794E+03	6.194224E-04	1.098506E-04
4.247742E+03	6.206206E-04	1.100391E-04
4.257690E+03	6.218035E-04	1.102252E-04
4.267638E+03	6.229710E-04	1.104087E-04
4.277585E+03	6.241233E-04	1.105898E-04
4.287533E+03	6.252609E-04	1.107685E-04
4.297481E+03	6.263398E-04	1.109371E-04
4.307429E+03	6.274486E-04	1.111112E-04
4.317377E+03	6.284988E-04	1.112751E-04
4.327325E+03	6.295358E-04	1.114371E-04
4.337273E+03	6.305591E-04	1.115968E-04
4.347221E+03	6.315688E-04	1.117544E-04
4.357168E+03	6.325653E-04	1.119100E-04
4.367116E+03	6.335056E-04	1.120560E-04
4.377064E+03	6.344337E-04	1.122001E-04
4.387012E+03	6.353486E-04	1.123422E-04
4.396960E+03	6.362515E-04	1.124825E-04
4.406908E+03	6.370992E-04	1.126134E-04
4.416856E+03	6.379772E-04	1.127500E-04
4.426804E+03	6.388011E-04	1.128773E-04
4.436751E+03	6.395705E-04	1.129955E-04
4.446699E+03	6.403709E-04	1.131194E-04
4.456647E+03	6.411174E-04	1.132343E-04
4.466595E+03	6.418527E-04	1.133475E-04
4.476543E+03	6.425761E-04	1.134590E-04
4.486491E+03	6.432461E-04	1.135615E-04
4.496439E+03	6.439053E-04	1.136626E-04
4.506387E+03	6.445532E-04	1.137620E-04
4.516334E+03	6.451485E-04	1.138526E-04
4.526282E+03	6.457325E-04	1.139417E-04
4.536230E+03	6.463056E-04	1.140293E-04
4.546178E+03	6.468267E-04	1.141082E-04
4.556126E+03	6.473359E-04	1.141854E-04
4.566074E+03	6.477935E-04	1.142540E-04
4.576022E+03	6.482402E-04	1.143212E-04
4.585970E+03	6.486761E-04	1.143870E-04
4.595917E+03	6.490593E-04	1.144440E-04
4.605865E+03	6.494321E-04	1.144997E-04
4.615813E+03	6.497938E-04	1.145539E-04
4.625761E+03	6.501032E-04	1.145994E-04
4.635709E+03	6.504017E-04	1.146436E-04
4.645657E+03	6.506488E-04	1.146792E-04
4.655605E+03	6.508840E-04	1.147133E-04
4.665553E+03	6.510685E-04	1.147390E-04
4.675500E+03	6.512419E-04	1.147634E-04
4.685448E+03	6.514032E-04	1.147862E-04
4.695396E+03	6.515137E-04	1.148006E-04
4.705344E+03	6.515733E-04	1.148066E-04
4.715292E+03	6.516603E-04	1.148181E-04
4.725240E+03	6.516582E-04	1.148144E-04
4.735188E+03	6.516443E-04	1.148093E-04
4.745135E+03	6.516195E-04	1.148030E-04
4.755083E+03	6.515442E-04	1.147883E-04
4.765031E+03	6.514583E-04	1.147724E-04
4.774979E+03	6.513221E-04	1.147483E-04
4.784927E+03	6.511759E-04	1.147230E-04
4.794875E+03	6.509808E-04	1.146898E-04
4.804823E+03	6.507762E-04	1.146555E-04
4.814771E+03	6.505237E-04	1.146134E-04
4.824718E+03	6.502616E-04	1.145701E-04
4.834666E+03	6.499538E-04	1.145195E-04
4.844614E+03	6.496375E-04	1.144679E-04
4.854562E+03	6.492754E-04	1.144089E-04
4.864510E+03	6.488691E-04	1.143426E-04
4.874458E+03	6.484565E-04	1.142758E-04
4.884406E+03	6.480383E-04	1.142085E-04
4.894354E+03	6.475769E-04	1.141342E-04
4.904301E+03	6.471110E-04	1.140596E-04
4.914249E+03	6.466042E-04	1.139784E-04
4.924197E+03	6.460566E-04	1.138905E-04
4.934145E+03	6.455061E-04	1.138025E-04
4.944093E+03	6.449164E-04	1.137082E-04
4.954041E+03	6.443250E-04	1.136141E-04
4.963989E+03	6.437326E-04	1.135203E-04
4.973937E+03	6.430668E-04	1.134140E-04
4.983884E+03	6.424372E-04	1.133146E-04
4.993832E+03	6.417358E-04	1.132030E-04
5.003780E+03	6.410351E-04	1.130920E-04
5.013728E+03	6.403365E-04	1.129818E-04
5.023676E+03	6.396045E-04	1.128661E-04
5.033624E+03	6.388746E-04	1.127512E-04
5.043572E+03	6.381118E-04	1.126310E-04
5.053520E+03	6.373180E-04	1.125057E-04
5.063467E+03	6.365276E-04	1.123813E-04
5.073415E+03	6.357067E-04	1.122520E-04
5.083363E+03	6.348911E-04	1.121241E-04
5.093311E+03	6.340801E-04	1.119973E-04
5.103259E+03	6.332406E-04	1.118658E-04
5.113207E+03	6.323720E-04	1.117296E-04
5.123155E+03	6.315100E-04	1.115949E-04
5.133103E+03	6.306201E-04	1.114556E-04
5.143050E+03	6.297029E-04	1.113119E-04
5.152998E+03	6.288277E-04	1.111758E-04
5.162946E+03	6.278913E-04	1.110293E-04
5.172894E+03	6.269635E-04	1.108847E-04
5.182842E+03	6.260440E-04	1.107417E-04
5.192790E+03	6.250986E-04	1.105945E-04
5.202738E+03	6.241626E-04	1.104493E-04
5.212686E+03	6.232015E-04	1.102999E-04
5.222633E+03	6.222158E-04	1.101465E-04
5.232581E+03	6.212399E-04	1.099950E-04
5.242529E+03	6.202731E-04	1.098454E-04
5.252477E+03	6.192831E-04	1.096920E-04
5.262425E+03	6.182693E-04	1.095346E-04
5.272373E+03	6.172656E-04	1.093792E-04
5.282321E+03	6.162719E-04	1.092258E-04
5.292269E+03	6.152552E-04	1.090686E-04
5.302216E+03	6.142156E-04	1.089075E-04
5.312164E+03	6.131869E-04	1.087486E-04
5.322112E+03	6.121680E-04	1.085916E-04
5.332060E+03	6.111275E-04	1.084310E-04
5.342008E+03	6.100969E-04	1.082723E-04
5.351956E+03	6.090443E-04	1.081099E-04
5.361904E+03	6.080018E-04	1.079495E-04
5.371851E+03	6.069374E-04	1.077854E-04
5.381799E+03	6.058511E-04	1.076175E-04
5.391747E+03	6.048078E-04	1.074575E-04
5.401695E+03	6.037423E-04	1.072936E-04
5.411643E+03	6.026550E-04	1.071261E-04
5.421591E+03	6.015777E-04	1.069604E-04
5.431539E+03	6.004789E-04	1.067910E-04
5.441487E+03	5.993901E-04	1.066236E-04
5.451434E+03	5.983109E-04	1.064580E-04
5.461382E+03	5.972098E-04	1.062886E-04
5.471330E+03	5.961190E-04	1.061212E-04
5.481278E+03	5.950052E-04	1.059497E-04
5.491226E+03	5.939012E-04	1.057802E-04
5.501174E+03	5.927750E-04	1.056067E-04
5.511122E+03	5.916582E-04	1.054350E-04
5.521070E+03	5.905502E-04	1.052650E-04
5.531017E+03	5.894196E-04	1.050910E-04
5.540965E+03	5.882974E-04	1.049186E-04
5.550913E+03	5.871527E-04	1.047423E-04
5.560861E+03	5.860162E-04	1.045675E-04
5.570809E+03	5.848877E-04	1.043941E-04
5.580757E+03	5.837359E-04	1.042167E-04
5.590705E+03	5.825917E-04	1.040406E-04
5.600653E+03	5.814240E-04	1.038604E-04
5.610600E+03	5.802634E-04	1.036815E-04
5.620548E+03	5.791097E-04	1.035039E-04
5.630496E+03	5.779320E-04	1.033220E-04
5.640444E+03	5.767606E-04	1.031412E-04
5.650392E+03	5.755952E-04	1.029616E-04
5.660340E+03	5.744052E-04	1.027776E-04
5.670288E+03	5.732208E-04	1.025945E-04
5.680236E+03	5.720416E-04	1.024124E-04
5.690183E+03	5.708370E-04	1.022258E-04
5.700131E+03	5.696372E-04	1.020400E-04
5.710079E+03	5.684115E-04	1.018496E-04
5.720027E+03	5.672201E-04	1.016653E-04
5.729975E+03	5.659723E-04	1.014708E-04
5.739923E+03	5.647579E-04	1.012824E-04
5.749871E+03	5.635167E-04	1.010891E-04
5.759819E+03	5.622783E-04	1.008962E-04
5.769766E+03	5.610423E-04	1.007038E-04
5.779714E+03	5.597787E-04	1.005064E-04
5.789662E+03	5.585168E-04	1.003092E-04
5.799610E+03	5.572564E-04	1.001123E-04
5.809558E+03	5.559674E-04	9.991013E-05
5.819506E+03	5.546790E-04	9.970805E-05
5.829454E+03	5.533910E-04	9.950597E-05
5.839402E+03	5.521029E-04	9.930381E-05
5.849349E+03	5.507849E-04	9.909622E-05
5.859297E+03	5.494661E-04	9.888840E-05
5.869245E+03	5.481461E-04	9.868028E-05
5.879193E+03	5.468243E-04	9.847178E-05
5.889141E+03	5.454715E-04	9.825758E-05
5.899089E+03	5.441161E-04	9.804286E-05
5.909037E+03	5.427579E-04	9.782752E-05
5.918985E+03	5.413675E-04	9.760629E-05
5.928932E+03	5.399734E-04	9.738429E-05
5.938880E+03	5.385752E-04	9.716143E-05
5.948828E+03	5.371723E-04	9.693764E-05
5.958776E+03	5.357643E-04	9.671281E-05
5.968724E+03	5.343224E-04	9.648174E-05
5.978672E+03	5.328745E-04	9.624948E-05
5.988620E+03	5.314203E-04	9.601593E-05
5.998568E+03	5.299591E-04	9.578102E-05
6.008515E+03	5.284625E-04	9.553956E-05
6.018463E+03	5.269862E-04	9.530165E-05
6.028411E+03	5.254735E-04	9.505702E-05
6.038359E+03	5.239521E-04	9.481068E-05
6.048307E+03	5.223936E-04	9.455747E-05
6.058255E+03	5.208534E-04	9.430743E-05
6.068203E+03	5.192752E-04	9.405035E-05
6.078150E+03	5.176865E-04	9.379122E-05
6.088098E+03	5.160867E-04	9.352992E-05
6.098046E+03	5.144755E-04	9.326637E-05
6.107994E+03	5.128521E-04	9.300047E-05
6.117942E+03	5.111889E-04	9.272717E-05
6.127890E+03	5.095401E-04	9.245630E-05
6.137838E+03	5.078505E-04	9.217787E-05
6.147786E+03	5.061473E-04	9.189676E-05
6.157733E+03	5.044297E-04	9.161287E-05
6.167681E+03	5.026704E-04	9.132121E-05
6.177629E+03	5.009229E-04	9.103151E-05
6.187577E+03	4.991331E-04	9.073391E-05
6.197525E+03	4.973541E-04	9.043809E-05
6.207473E+03	4.955320E-04	9.013423E-05
6.217421E+03	4.936934E-04	8.982715E-05
6.227369E+03	4.918377E-04	8.951675E-05
6.237316E+03	4.899382E-04	8.919817E-05
6.247264E+03	4.880476E-04	8.888099E-05
6.257212E+03	4.861390E-04	8.856031E-05
6.267160E+03	4.841861E-04	8.823132E-05
6.277108E+03	4.822149E-04	8.789879E-05
6.287056E+03	4.802253E-04	8.756267E-05
6.297004E+03	4.782430E-04	8.722764E-05
6.306952E+03	4.761902E-04	8.687952E-05
6.316899E+03	4.741446E-04	8.653245E-05
6.326847E+03	4.720802E-04	8.618172E-05
6.336795E+03	4.699970E-04	8.582732E-05
6.346743E+03	4.678953E-04	8.546927E-05
6.356691E+03	4.657497E-04	8.510297E-05
6.366639E+03	4.636113E-04	8.473769E-05
6.376587E+03	4.614297E-04	8.436429E-05
6.386535E+03	4.592305E-04	8.398740E-05
6.396482E+03	4.570143E-04	8.360713E-05
6.406430E+03	4.548062E-04	8.322806E-05
6.416378E+03	4.525570E-04	8.284121E-05
6.426326E+03	4.502921E-04	8.245121E-05
6.436274E+03	4.480123E-04	8.205820E-05
6.446222E+03	4.457181E-04	8.166228E-05
6.456170E+03	4.433861E-04	8.125914E-05
6.466118E+03	4.410655E-04	8.085782E-05
6.476065E+03	4.387330E-04	8.045402E-05
6.486013E+03	4.363892E-04	8.004787E-05
6.495961E+03	4.340113E-04	7.963517E-05
6.505909E+03	4.316479E-04	7.922484E-05
6.515857E+03	4.292524E-04	7.880834E-05
6.525805E+03	4.268731E-04	7.839450E-05
6.535753E+03	4.244638E-04	7.797486E-05
6.545701E+03	4.220724E-04	7.755822E-05
6.555648E+03	4.196532E-04	7.713616E-05
6.565596E+03	4.172535E-04	7.671741E-05
6.575544E+03	4.148283E-04	7.629367E-05
6.585492E+03	4.124015E-04	7.586934E-05
6.595440E+03	4.099970E-04	7.544880E-05
6.605388E+03	4.075700E-04	7.502383E-05
6.615336E+03	4.051444E-04	7.459882E-05
6.625284E+03	4.027211E-04	7.417393E-05
6.635231E+03	4.003009E-04	7.374934E-05
6.645179E+03	3.979070E-04	7.332926E-05
6.655127E+03	3.954958E-04	7.290572E-05
6.665075E+03	3.930904E-04	7.248296E-05
6.675023E+03	3.906917E-04	7.206112E-05
6.684971E+03	3.883004E-04	7.164037E-05
6.694919E+03	3.859174E-04	7.122083E-05
6.704866E+03	3.835434E-04	7.080268E-05
6.714814E+03	3.811791E-04	7.038603E-05
6.724762E+03	3.788252E-04	6.997101E-05
6.734710E+03	3.764825E-04	6.955777E-05
6.744658E+03	3.741516E-04	6.914643E-05
6.754606E+03	3.718332E-04	6.873710E-05
6.764554E+03	3.695484E-04	6.833372E-05
6.774502E+03	3.672566E-04	6.792875E-05
6.784449E+03	3.649584E-04	6.752233E-05
6.794397E+03	3.626957E-04	6.712218E-05
6.804345E+03	3.604481E-04	6.672457E-05
6.814293E+03	3.582164E-04	6.632961E-05
6.824241E+03	3.560008E-04	6.593738E-05
6.834189E+03	3.538020E-04	6.554797E-05
6.844137E+03	3.516203E-04	6.516147E-05
6.854085E+03	3.494561E-04	6.477796E-05
6.864032E+03	3.473098E-04	6.439749E-05
6.873980E+03	3.451818E-04	6.402015E-05
6.883928E+03	3.430724E-04	6.364602E-05
6.893876E+03	3.409819E-04	6.327513E-05
6.903824E+03	3.389106E-04	6.290756E-05
6.913772E+03	3.368399E-04	6.253983E-05
6.923720E+03	3.348080E-04	6.217908E-05
6.933668E+03	3.327963E-04	6.182182E-05
6.943615E+03	3.308048E-04	6.146807E-05
6.953563E+03	3.288338E-04	6.111790E-05
6.963511E+03	3.268836E-04	6.077134E-05
6.973459E+03	3.249357E-04	6.042499E-05
6.983407E+03	3.230275E-04	6.008578E-05
6.993355E+03	3.211406E-04	5.975029E-05
7.003303E+03	3.192567E-04	5.941515E-05
7.013251E+03	3.174127E-04	5.908721E-05
7.023198E+03	3.155904E-04	5.876307E-05
7.033146E+03	3.137718E-04	5.843941E-05
7.043094E+03	3.119931E-04	5.812296E-05
7.053042E+03	3.102185E-04	5.780707E-05
7.062990E+03	3.084838E-04	5.749839E-05
7.072938E+03	3.067535E-04	5.719032E-05
7.082886E+03	3.050630E-04	5.688947E-05
7.092834E+03	3.033772E-04	5.658929E-05
7.102781E+03	3.017138E-04	5.629309E-05
7.112729E+03	3.000900E-04	5.600407E-05
7.122677E+03	2.984712E-04	5.571580E-05
7.132625E+03	2.968748E-04	5.543150E-05
7.142573E+03	2.953007E-04	5.515120E-05
7.152521E+03	2.937491E-04	5.487489E-05
7.162469E+03	2.922198E-04	5.460257E-05
7.172417E+03	2.907128E-04	5.433424E-05
7.182364E+03	2.892282E-04	5.406989E-05
7.192312E+03	2.877658E-04	5.380954E-05
7.202260E+03	2.863257E-04	5.355316E-05
7.212208E+03	2.848911E-04	5.329766E-05
7.222156E+03	2.834953E-04	5.304923E-05
7.232104E+03	2.821216E-04	5.280478E-05
7.242052E+03	2.807536E-04	5.256122E-05
7.252000E+03	2.794076E-04	5.232162E-05
7.261947E+03	2.780999E-04	5.208901E-05
7.271895E+03	2.767978E-04	5.185731E-05
7.281843E+03	2.755175E-04	5.162954E-05
7.291791E+03	2.742590E-04	5.140570E-05
7.301739E+03	2.730222E-04	5.118576E-05
7.311687E+03	2.718069E-04	5.096972E-05
7.321635E+03	2.705972E-04	5.075458E-05
7.331583E+03	2.694249E-04	5.054630E-05
7.341530E+03	2.682739E-04	5.034186E-05
7.351478E+03	2.671283E-04	5.013832E-05
7.361426E+03	2.660039E-04	4.993860E-05
7.371374E+03	2.649005E-04	4.974270E-05
7.381322E+03	2.638181E-04	4.955061E-05
7.391270E+03	2.627566E-04	4.936230E-05
7.401218E+03	2.617158E-04	4.917776E-05
7.411165E+03	2.606957E-04	4.899696E-05
7.421113E+03	2.596806E-04	4.881700E-05
7.431061E+03	2.587013E-04	4.864364E-05
7.441009E+03	2.577270E-04	4.847109E-05
7.450957E+03	2.567729E-04	4.830221E-05
7.460905E+03	2.558389E-04	4.813700E-05
7.470853E+03	2.549248E-04	4.797543E-05
7.480801E+03	2.540154E-04	4.781462E-05
7.490748E+03	2.531409E-04	4.766027E-05
7.500696E+03	2.522709E-04	4.750665E-05
7.510644E+03	2.514203E-04	4.735659E-05
7.520592E+03	2.505892E-04	4.721008E-05
7.530540E+03	2.497773E-04	4.706708E-05
7.540488E+03	2.489844E-04	4.692757E-05
7.550436E+03	2.482106E-04	4.679154E-05
7.560384E+03	2.474407E-04	4.665615E-05
7.570331E+03	2.466895E-04	4.652420E-05
7.580279E+03	2.459569E-04	4.639565E-05
7.590227E+03	2.452428E-04	4.627049E-05
7.600175E+03	2.445470E-04	4.614869E-05
7.610123E+03	2.438546E-04	4.602745E-05
7.620071E+03	2.431950E-04	4.591230E-05
7.630019E+03	2.425386E-04	4.579767E-05
7.639967E+03	2.418999E-04	4.568630E-05
7.649914E+03	2.412643E-04	4.557541E-05
7.659862E+03	2.406608E-04	4.547052E-05
7.669810E+03	2.400601E-04	4.536605E-05
7.679758E+03	2.394765E-04	4.526476E-05
7.689706E+03	2.389100E-04	4.516660E-05
7.699654E+03	2.383605E-04	4.507158E-05
7.709602E+03	2.378278E-04	4.497966E-05
7.719550E+03	2.372971E-04	4.488804E-05
