#wls	flux	fluxerr
1.591660E+03	5.860477E-05	1.020972E-05
1.631451E+03	6.055564E-05	1.054940E-05
1.671243E+03	6.242546E-05	1.087495E-05
1.711034E+03	6.420913E-05	1.118547E-05
1.750826E+03	6.587251E-05	1.147503E-05
1.790617E+03	6.738764E-05	1.173874E-05
1.830409E+03	6.866547E-05	1.196110E-05
1.870200E+03	6.963821E-05	1.213031E-05
1.909992E+03	7.021046E-05	1.222975E-05
1.949783E+03	7.034384E-05	1.225273E-05
1.989575E+03	7.002539E-05	1.219701E-05
2.029366E+03	6.942866E-05	1.209282E-05
2.069158E+03	6.892837E-05	1.200542E-05
2.108949E+03	6.907222E-05	1.203022E-05
2.148741E+03	7.038334E-05	1.225830E-05
2.188532E+03	7.311116E-05	1.273310E-05
2.228324E+03	7.713706E-05	1.343395E-05
2.268115E+03	8.209652E-05	1.429734E-05
2.307907E+03	8.757961E-05	1.525188E-05
2.347698E+03	9.327893E-05	1.624402E-05
2.387490E+03	9.896356E-05	1.723355E-05
2.427281E+03	1.045633E-04	1.820824E-05
2.467073E+03	1.100255E-04	1.915893E-05
2.506864E+03	1.153477E-04	2.008519E-05
2.546656E+03	1.205438E-04	2.098944E-05
2.586447E+03	1.256333E-04	2.187506E-05
2.626239E+03	1.306565E-04	2.274910E-05
2.666030E+03	1.356119E-04	2.361126E-05
2.705821E+03	1.405357E-04	2.446788E-05
2.745613E+03	1.454188E-04	2.531736E-05
2.785404E+03	1.502698E-04	2.616119E-05
2.825196E+03	1.551183E-04	2.700455E-05
2.864987E+03	1.599459E-04	2.784419E-05
2.904779E+03	1.647793E-04	2.868481E-05
2.944570E+03	1.695956E-04	2.952238E-05
2.984362E+03	1.743942E-04	3.035682E-05
2.994310E+03	1.756064E-04	3.056760E-05
3.004258E+03	1.767898E-04	3.077336E-05
3.014206E+03	1.779964E-04	3.098317E-05
3.024153E+03	1.792021E-04	3.119282E-05
3.034101E+03	1.804140E-04	3.140354E-05
3.044049E+03	1.816392E-04	3.161656E-05
3.053997E+03	1.828754E-04	3.183151E-05
3.063945E+03	1.841205E-04	3.204800E-05
3.073893E+03	1.853997E-04	3.227041E-05
3.083841E+03	1.866570E-04	3.248901E-05
3.093789E+03	1.879452E-04	3.271299E-05
3.103736E+03	1.892081E-04	3.293256E-05
3.113684E+03	1.904992E-04	3.315705E-05
3.123632E+03	1.917900E-04	3.338146E-05
3.133580E+03	1.930792E-04	3.360559E-05
3.143528E+03	1.943377E-04	3.382438E-05
3.153476E+03	1.956487E-04	3.405230E-05
3.163424E+03	1.969273E-04	3.427458E-05
3.173372E+03	1.982006E-04	3.449595E-05
3.183319E+03	1.994682E-04	3.471630E-05
3.193267E+03	2.007578E-04	3.494049E-05
3.203215E+03	2.020119E-04	3.515848E-05
3.213163E+03	2.032873E-04	3.538020E-05
3.223111E+03	2.045262E-04	3.559554E-05
3.233059E+03	2.057858E-04	3.581449E-05
3.243007E+03	2.070371E-04	3.603199E-05
3.252955E+03	2.082797E-04	3.624798E-05
3.262902E+03	2.095136E-04	3.646244E-05
3.272850E+03	2.107385E-04	3.667533E-05
3.282798E+03	2.119542E-04	3.688662E-05
3.292746E+03	2.131607E-04	3.709631E-05
3.302694E+03	2.143878E-04	3.730958E-05
3.312642E+03	2.155758E-04	3.751605E-05
3.322590E+03	2.167847E-04	3.772613E-05
3.332538E+03	2.179542E-04	3.792937E-05
3.342485E+03	2.191448E-04	3.813627E-05
3.352433E+03	2.203264E-04	3.834159E-05
3.362381E+03	2.214991E-04	3.854537E-05
3.372329E+03	2.226629E-04	3.874761E-05
3.382277E+03	2.238181E-04	3.894834E-05
3.392225E+03	2.249646E-04	3.914756E-05
3.402173E+03	2.261028E-04	3.934531E-05
3.412120E+03	2.272327E-04	3.954163E-05
3.422068E+03	2.283854E-04	3.974191E-05
3.432016E+03	2.294993E-04	3.993543E-05
3.441964E+03	2.306053E-04	4.012759E-05
3.451912E+03	2.317350E-04	4.032386E-05
3.461860E+03	2.328574E-04	4.051885E-05
3.471808E+03	2.339413E-04	4.070714E-05
3.481756E+03	2.350496E-04	4.089969E-05
3.491703E+03	2.361512E-04	4.109105E-05
3.501651E+03	2.372462E-04	4.128126E-05
3.511599E+03	2.383349E-04	4.147038E-05
3.521547E+03	2.394173E-04	4.165841E-05
3.531495E+03	2.404939E-04	4.184540E-05
3.541443E+03	2.415646E-04	4.203139E-05
3.551391E+03	2.426297E-04	4.221638E-05
3.561339E+03	2.437213E-04	4.240600E-05
3.571286E+03	2.447757E-04	4.258914E-05
3.581234E+03	2.458573E-04	4.277699E-05
3.591182E+03	2.469017E-04	4.295839E-05
3.601130E+03	2.479737E-04	4.314457E-05
3.611078E+03	2.490088E-04	4.332435E-05
3.621026E+03	2.500720E-04	4.350899E-05
3.630974E+03	2.511310E-04	4.369291E-05
3.640922E+03	2.521859E-04	4.387613E-05
3.650869E+03	2.532370E-04	4.405867E-05
3.660817E+03	2.542517E-04	4.423487E-05
3.670765E+03	2.552954E-04	4.441611E-05
3.680713E+03	2.563356E-04	4.459675E-05
3.690661E+03	2.574052E-04	4.478251E-05
3.700609E+03	2.584389E-04	4.496201E-05
3.710557E+03	2.594694E-04	4.514095E-05
3.720505E+03	2.604969E-04	4.531937E-05
3.730452E+03	2.615215E-04	4.549728E-05
3.740400E+03	2.625764E-04	4.568046E-05
3.750348E+03	2.635954E-04	4.585740E-05
3.760296E+03	2.646119E-04	4.603389E-05
3.770244E+03	2.656591E-04	4.621572E-05
3.780192E+03	2.666705E-04	4.639134E-05
3.790140E+03	2.677129E-04	4.657234E-05
3.800088E+03	2.687196E-04	4.674712E-05
3.810035E+03	2.697575E-04	4.692734E-05
3.819983E+03	2.707598E-04	4.710135E-05
3.829931E+03	2.717934E-04	4.728081E-05
3.839879E+03	2.728250E-04	4.745992E-05
3.849827E+03	2.738209E-04	4.763282E-05
3.859775E+03	2.748485E-04	4.781124E-05
3.869723E+03	2.758741E-04	4.798931E-05
3.879671E+03	2.768978E-04	4.816703E-05
3.889618E+03	2.778858E-04	4.833855E-05
3.899566E+03	2.789057E-04	4.851562E-05
3.909514E+03	2.799238E-04	4.869237E-05
3.919462E+03	2.809400E-04	4.886879E-05
3.929410E+03	2.819543E-04	4.904488E-05
3.939358E+03	2.829327E-04	4.921474E-05
3.949306E+03	2.839433E-04	4.939017E-05
3.959254E+03	2.849520E-04	4.956529E-05
3.969201E+03	2.859588E-04	4.974007E-05
3.979149E+03	2.869637E-04	4.991451E-05
3.989097E+03	2.879666E-04	5.008862E-05
3.999045E+03	2.889676E-04	5.026240E-05
4.008993E+03	2.899322E-04	5.042983E-05
4.018941E+03	2.909291E-04	5.060289E-05
4.028889E+03	2.919239E-04	5.077558E-05
4.038836E+03	2.929165E-04	5.094790E-05
4.048784E+03	2.939071E-04	5.111985E-05
4.058732E+03	2.948953E-04	5.129139E-05
4.068680E+03	2.958466E-04	5.145652E-05
4.078628E+03	2.968302E-04	5.162726E-05
4.088576E+03	2.978112E-04	5.179756E-05
4.098524E+03	2.987898E-04	5.196743E-05
4.108472E+03	2.997658E-04	5.213686E-05
4.118419E+03	3.007044E-04	5.229976E-05
4.128367E+03	3.016749E-04	5.246824E-05
4.138315E+03	3.026426E-04	5.263620E-05
4.148263E+03	3.035724E-04	5.279759E-05
4.158211E+03	3.045340E-04	5.296451E-05
4.168159E+03	3.054925E-04	5.313089E-05
4.178107E+03	3.064126E-04	5.329060E-05
4.188055E+03	3.073644E-04	5.345581E-05
4.198002E+03	3.082775E-04	5.361431E-05
4.207950E+03	3.092221E-04	5.377827E-05
4.217898E+03	3.101277E-04	5.393546E-05
4.227846E+03	3.110294E-04	5.409196E-05
4.237794E+03	3.119622E-04	5.425387E-05
4.247742E+03	3.128555E-04	5.440892E-05
4.257690E+03	3.137444E-04	5.456320E-05
4.267638E+03	3.146287E-04	5.471670E-05
4.277585E+03	3.155083E-04	5.486937E-05
4.287533E+03	3.164183E-04	5.502733E-05
4.297481E+03	3.172880E-04	5.517828E-05
4.307429E+03	3.181524E-04	5.532831E-05
4.317377E+03	3.189759E-04	5.547124E-05
4.327325E+03	3.198292E-04	5.561935E-05
4.337273E+03	3.206767E-04	5.576645E-05
4.347221E+03	3.215182E-04	5.591251E-05
4.357168E+03	3.223179E-04	5.605130E-05
4.367116E+03	3.231466E-04	5.619515E-05
4.377064E+03	3.239332E-04	5.633166E-05
4.387012E+03	3.247485E-04	5.647317E-05
4.396960E+03	3.255209E-04	5.660724E-05
4.406908E+03	3.263217E-04	5.674623E-05
4.416856E+03	3.270792E-04	5.687771E-05
4.426804E+03	3.278288E-04	5.700781E-05
4.436751E+03	3.285703E-04	5.713652E-05
4.446699E+03	3.293035E-04	5.726376E-05
4.456647E+03	3.300280E-04	5.738951E-05
4.466595E+03	3.307436E-04	5.751371E-05
4.476543E+03	3.314142E-04	5.763011E-05
4.486491E+03	3.321112E-04	5.775107E-05
4.496439E+03	3.327626E-04	5.786414E-05
4.506387E+03	3.334398E-04	5.798168E-05
4.516334E+03	3.340709E-04	5.809120E-05
4.526282E+03	3.346913E-04	5.819888E-05
4.536230E+03	3.353364E-04	5.831086E-05
4.546178E+03	3.359347E-04	5.841469E-05
4.556126E+03	3.365212E-04	5.851650E-05
4.566074E+03	3.370960E-04	5.861625E-05
4.576022E+03	3.376227E-04	5.870766E-05
4.585970E+03	3.381725E-04	5.880310E-05
4.595917E+03	3.386738E-04	5.889009E-05
4.605865E+03	3.391975E-04	5.898100E-05
4.615813E+03	3.396719E-04	5.906333E-05
4.625761E+03	3.401682E-04	5.914947E-05
4.635709E+03	3.406143E-04	5.922690E-05
4.645657E+03	3.410459E-04	5.930181E-05
4.655605E+03	3.414624E-04	5.937410E-05
4.665553E+03	3.418280E-04	5.943754E-05
4.675500E+03	3.422134E-04	5.950444E-05
4.685448E+03	3.425828E-04	5.956856E-05
4.695396E+03	3.429001E-04	5.962363E-05
4.705344E+03	3.432006E-04	5.967578E-05
4.715292E+03	3.435196E-04	5.973114E-05
4.725240E+03	3.437854E-04	5.977729E-05
4.735188E+03	3.440333E-04	5.982032E-05
4.745135E+03	3.442632E-04	5.986021E-05
4.755083E+03	3.444390E-04	5.989071E-05
4.765031E+03	3.446316E-04	5.992414E-05
4.774979E+03	3.447699E-04	5.994814E-05
4.784927E+03	3.449246E-04	5.997501E-05
4.794875E+03	3.450251E-04	5.999244E-05
4.804823E+03	3.451068E-04	6.000662E-05
4.814771E+03	3.451700E-04	6.001759E-05
4.824718E+03	3.452150E-04	6.002540E-05
4.834666E+03	3.452421E-04	6.003011E-05
4.844614E+03	3.452167E-04	6.002568E-05
4.854562E+03	3.452093E-04	6.002442E-05
4.864510E+03	3.451503E-04	6.001417E-05
4.874458E+03	3.450751E-04	6.000111E-05
4.884406E+03	3.449842E-04	5.998533E-05
4.894354E+03	3.448780E-04	5.996691E-05
4.904301E+03	3.447569E-04	5.994590E-05
4.914249E+03	3.446215E-04	5.992240E-05
4.924197E+03	3.444373E-04	5.989042E-05
4.934145E+03	3.442742E-04	5.986213E-05
4.944093E+03	3.440634E-04	5.982553E-05
4.954041E+03	3.438399E-04	5.978675E-05
4.963989E+03	3.436041E-04	5.974583E-05
4.973937E+03	3.433565E-04	5.970287E-05
4.983884E+03	3.430975E-04	5.965791E-05
4.993832E+03	3.428273E-04	5.961103E-05
5.003780E+03	3.425122E-04	5.955635E-05
5.013728E+03	3.422212E-04	5.950585E-05
5.023676E+03	3.418860E-04	5.944769E-05
5.033624E+03	3.415415E-04	5.938790E-05
5.043572E+03	3.411879E-04	5.932653E-05
5.053520E+03	3.408255E-04	5.926365E-05
5.063467E+03	3.404209E-04	5.919344E-05
5.073415E+03	3.400421E-04	5.912772E-05
5.083363E+03	3.396220E-04	5.905481E-05
5.093311E+03	3.392282E-04	5.898649E-05
5.103259E+03	3.387939E-04	5.891112E-05
5.113207E+03	3.383528E-04	5.883458E-05
5.123155E+03	3.379055E-04	5.875696E-05
5.133103E+03	3.374188E-04	5.867251E-05
5.143050E+03	3.369598E-04	5.859286E-05
5.152998E+03	3.364621E-04	5.850650E-05
5.162946E+03	3.359924E-04	5.842501E-05
5.172894E+03	3.354849E-04	5.833694E-05
5.182842E+03	3.349728E-04	5.824809E-05
5.192790E+03	3.344563E-04	5.815848E-05
5.202738E+03	3.339359E-04	5.806818E-05
5.212686E+03	3.333790E-04	5.797155E-05
5.222633E+03	3.328512E-04	5.787997E-05
5.232581E+03	3.322875E-04	5.778216E-05
5.242529E+03	3.317533E-04	5.768948E-05
5.252477E+03	3.311837E-04	5.759065E-05
5.262425E+03	3.306115E-04	5.749137E-05
5.272373E+03	3.300369E-04	5.739167E-05
5.282321E+03	3.294278E-04	5.728598E-05
5.292269E+03	3.288488E-04	5.718554E-05
5.302216E+03	3.282360E-04	5.707920E-05
5.312164E+03	3.276534E-04	5.697813E-05
5.322112E+03	3.270374E-04	5.687125E-05
5.332060E+03	3.264200E-04	5.676413E-05
5.342008E+03	3.258013E-04	5.665679E-05
5.351956E+03	3.251816E-04	5.654927E-05
5.361904E+03	3.245609E-04	5.644159E-05
5.371851E+03	3.239079E-04	5.632829E-05
5.381799E+03	3.232856E-04	5.622033E-05
5.391747E+03	3.226314E-04	5.610681E-05
5.401695E+03	3.219767E-04	5.599324E-05
5.411643E+03	3.213217E-04	5.587959E-05
5.421591E+03	3.206663E-04	5.576589E-05
5.431539E+03	3.200108E-04	5.565216E-05
5.441487E+03	3.193551E-04	5.553840E-05
5.451434E+03	3.186685E-04	5.541927E-05
5.461382E+03	3.180127E-04	5.530550E-05
5.471330E+03	3.173262E-04	5.518639E-05
5.481278E+03	3.166704E-04	5.507263E-05
5.491226E+03	3.159842E-04	5.495358E-05
5.501174E+03	3.152983E-04	5.483457E-05
5.511122E+03	3.146125E-04	5.471559E-05
5.521070E+03	3.138967E-04	5.459139E-05
5.531017E+03	3.132115E-04	5.447252E-05
5.540965E+03	3.125265E-04	5.435369E-05
5.550913E+03	3.118117E-04	5.422967E-05
5.560861E+03	3.110974E-04	5.410573E-05
5.570809E+03	3.104132E-04	5.398703E-05
5.580757E+03	3.096994E-04	5.386319E-05
5.590705E+03	3.089860E-04	5.373941E-05
5.600653E+03	3.082728E-04	5.361567E-05
5.610600E+03	3.075303E-04	5.348684E-05
5.620548E+03	3.068176E-04	5.336320E-05
5.630496E+03	3.061051E-04	5.323958E-05
5.640444E+03	3.053633E-04	5.311088E-05
5.650392E+03	3.046218E-04	5.298222E-05
5.660340E+03	3.039096E-04	5.285865E-05
5.670288E+03	3.031682E-04	5.273002E-05
5.680236E+03	3.024268E-04	5.260139E-05
5.690183E+03	3.016855E-04	5.247276E-05
5.700131E+03	3.009439E-04	5.234409E-05
5.710079E+03	3.001734E-04	5.221039E-05
5.720027E+03	2.994315E-04	5.208167E-05
5.729975E+03	2.986893E-04	5.195288E-05
5.739923E+03	2.979180E-04	5.181905E-05
5.749871E+03	2.971464E-04	5.168516E-05
5.759819E+03	2.964028E-04	5.155613E-05
5.769766E+03	2.956300E-04	5.142204E-05
5.779714E+03	2.948567E-04	5.128785E-05
5.789662E+03	2.940826E-04	5.115354E-05
5.799610E+03	2.933077E-04	5.101907E-05
5.809558E+03	2.925319E-04	5.088445E-05
5.819506E+03	2.917272E-04	5.074478E-05
5.829454E+03	2.909493E-04	5.060979E-05
5.839402E+03	2.901424E-04	5.046976E-05
5.849349E+03	2.893620E-04	5.033435E-05
5.859297E+03	2.885525E-04	5.019387E-05
5.869245E+03	2.877693E-04	5.005794E-05
5.879193E+03	2.869569E-04	4.991695E-05
5.889141E+03	2.861429E-04	4.977568E-05
5.899089E+03	2.853273E-04	4.963413E-05
5.909037E+03	2.845098E-04	4.949225E-05
5.918985E+03	2.836905E-04	4.935004E-05
5.928932E+03	2.828420E-04	4.920278E-05
5.938880E+03	2.820186E-04	4.905987E-05
5.948828E+03	2.811931E-04	4.891659E-05
5.958776E+03	2.803383E-04	4.876822E-05
5.968724E+03	2.795081E-04	4.862412E-05
5.978672E+03	2.786487E-04	4.847494E-05
5.988620E+03	2.778134E-04	4.832996E-05
5.998568E+03	2.769490E-04	4.817991E-05
6.008515E+03	2.760819E-04	4.802939E-05
6.018463E+03	2.752122E-04	4.787840E-05
6.028411E+03	2.743396E-04	4.772693E-05
6.038359E+03	2.734642E-04	4.757496E-05
6.048307E+03	2.725857E-04	4.742246E-05
6.058255E+03	2.717043E-04	4.726945E-05
6.068203E+03	2.708198E-04	4.711589E-05
6.078150E+03	2.699062E-04	4.695727E-05
6.088098E+03	2.690154E-04	4.680260E-05
6.098046E+03	2.681212E-04	4.664736E-05
6.107994E+03	2.671980E-04	4.648708E-05
6.117942E+03	2.662971E-04	4.633066E-05
6.127890E+03	2.653673E-04	4.616922E-05
6.137838E+03	2.644342E-04	4.600719E-05
6.147786E+03	2.634977E-04	4.584457E-05
6.157733E+03	2.625830E-04	4.568575E-05
6.167681E+03	2.616395E-04	4.552192E-05
6.177629E+03	2.606926E-04	4.535748E-05
6.187577E+03	2.597422E-04	4.519244E-05
6.197525E+03	2.587882E-04	4.502678E-05
6.207473E+03	2.578308E-04	4.486051E-05
6.217421E+03	2.568698E-04	4.469363E-05
6.227369E+03	2.559054E-04	4.452615E-05
6.237316E+03	2.549130E-04	4.435378E-05
6.247264E+03	2.539416E-04	4.418508E-05
6.257212E+03	2.529668E-04	4.401579E-05
6.267160E+03	2.519643E-04	4.384167E-05
6.277108E+03	2.509827E-04	4.367119E-05
6.287056E+03	2.499737E-04	4.349593E-05
6.297004E+03	2.489856E-04	4.332431E-05
6.306952E+03	2.479704E-04	4.314796E-05
6.316899E+03	2.469520E-04	4.297108E-05
6.326847E+03	2.459545E-04	4.279780E-05
6.336795E+03	2.449303E-04	4.261989E-05
6.346743E+03	2.439032E-04	4.244148E-05
6.356691E+03	2.428734E-04	4.226259E-05
6.366639E+03	2.418643E-04	4.208731E-05
6.376587E+03	2.408293E-04	4.190750E-05
6.386535E+03	2.397918E-04	4.172728E-05
6.396482E+03	2.387520E-04	4.154664E-05
6.406430E+03	2.377100E-04	4.136561E-05
6.416378E+03	2.366658E-04	4.118420E-05
6.426326E+03	2.355969E-04	4.099849E-05
6.436274E+03	2.345491E-04	4.081644E-05
6.446222E+03	2.334994E-04	4.063408E-05
6.456170E+03	2.324483E-04	4.045145E-05
6.466118E+03	2.313732E-04	4.026466E-05
6.476065E+03	2.303194E-04	4.008156E-05
6.486013E+03	2.292644E-04	3.989826E-05
6.495961E+03	2.281864E-04	3.971095E-05
6.505909E+03	2.271297E-04	3.952734E-05
6.515857E+03	2.260504E-04	3.933979E-05
6.525805E+03	2.249927E-04	3.915600E-05
6.535753E+03	2.239128E-04	3.896835E-05
6.545701E+03	2.228546E-04	3.878448E-05
6.555648E+03	2.217748E-04	3.859684E-05
6.565596E+03	2.206955E-04	3.840928E-05
6.575544E+03	2.196380E-04	3.822551E-05
6.585492E+03	2.185599E-04	3.803815E-05
6.595440E+03	2.174826E-04	3.785095E-05
6.605388E+03	2.164064E-04	3.766391E-05
6.615336E+03	2.153524E-04	3.748075E-05
6.625284E+03	2.142789E-04	3.729417E-05
6.635231E+03	2.132070E-04	3.710788E-05
6.645179E+03	2.121368E-04	3.692189E-05
6.655127E+03	2.110687E-04	3.673626E-05
6.665075E+03	2.100027E-04	3.655100E-05
6.675023E+03	2.089391E-04	3.636614E-05
6.684971E+03	2.078781E-04	3.618173E-05
6.694919E+03	2.068198E-04	3.599779E-05
6.704866E+03	2.057644E-04	3.581434E-05
6.714814E+03	2.046920E-04	3.562795E-05
6.724762E+03	2.036430E-04	3.544562E-05
6.734710E+03	2.025974E-04	3.526389E-05
6.744658E+03	2.015555E-04	3.508278E-05
6.754606E+03	2.004977E-04	3.489891E-05
6.764554E+03	1.994635E-04	3.471914E-05
6.774502E+03	1.984334E-04	3.454010E-05
6.784449E+03	1.973883E-04	3.435843E-05
6.794397E+03	1.963670E-04	3.418091E-05
6.804345E+03	1.953504E-04	3.400418E-05
6.814293E+03	1.943194E-04	3.382496E-05
6.824241E+03	1.933124E-04	3.364992E-05
6.834189E+03	1.922916E-04	3.347246E-05
6.844137E+03	1.912950E-04	3.329922E-05
6.854085E+03	1.902849E-04	3.312364E-05
6.864032E+03	1.892806E-04	3.294903E-05
6.873980E+03	1.883005E-04	3.277866E-05
6.883928E+03	1.873077E-04	3.260608E-05
6.893876E+03	1.863210E-04	3.243453E-05
6.903824E+03	1.853587E-04	3.226725E-05
6.913772E+03	1.843843E-04	3.209785E-05
6.923720E+03	1.834163E-04	3.192957E-05
6.933668E+03	1.824548E-04	3.176241E-05
6.943615E+03	1.815000E-04	3.159641E-05
6.953563E+03	1.805518E-04	3.143157E-05
6.963511E+03	1.796282E-04	3.127100E-05
6.973459E+03	1.786937E-04	3.110853E-05
6.983407E+03	1.777663E-04	3.094729E-05
6.993355E+03	1.768458E-04	3.078726E-05
7.003303E+03	1.759152E-04	3.062547E-05
7.013251E+03	1.750094E-04	3.046798E-05
7.023198E+03	1.741109E-04	3.031176E-05
7.033146E+03	1.732197E-04	3.015682E-05
7.043094E+03	1.723361E-04	3.000321E-05
7.053042E+03	1.714600E-04	2.985088E-05
7.062990E+03	1.705747E-04	2.969694E-05
7.072938E+03	1.697140E-04	2.954731E-05
7.082886E+03	1.688610E-04	2.939900E-05
7.092834E+03	1.680159E-04	2.925206E-05
7.102781E+03	1.671619E-04	2.910357E-05
7.112729E+03	1.663326E-04	2.895938E-05
7.122677E+03	1.654946E-04	2.881368E-05
7.132625E+03	1.646812E-04	2.867225E-05
7.142573E+03	1.638594E-04	2.852937E-05
7.152521E+03	1.630621E-04	2.839073E-05
7.162469E+03	1.622566E-04	2.825068E-05
7.172417E+03	1.614594E-04	2.811206E-05
7.182364E+03	1.606865E-04	2.797768E-05
7.192312E+03	1.599057E-04	2.784192E-05
7.202260E+03	1.591332E-04	2.770760E-05
7.212208E+03	1.583691E-04	2.757473E-05
7.222156E+03	1.576290E-04	2.744605E-05
7.232104E+03	1.568814E-04	2.731606E-05
7.242052E+03	1.561421E-04	2.718751E-05
7.252000E+03	1.554111E-04	2.706040E-05
7.261947E+03	1.546885E-04	2.693475E-05
7.271895E+03	1.539742E-04	2.681056E-05
7.281843E+03	1.532682E-04	2.668780E-05
7.291791E+03	1.525705E-04	2.656649E-05
7.301739E+03	1.518812E-04	2.644662E-05
7.311687E+03	1.511849E-04	2.632555E-05
7.321635E+03	1.505122E-04	2.620858E-05
7.331583E+03	1.498478E-04	2.609306E-05
7.341530E+03	1.491916E-04	2.597897E-05
7.351478E+03	1.485286E-04	2.586368E-05
7.361426E+03	1.478890E-04	2.575245E-05
7.371374E+03	1.472426E-04	2.564006E-05
7.381322E+03	1.466194E-04	2.553170E-05
7.391270E+03	1.459895E-04	2.542217E-05
7.401218E+03	1.453825E-04	2.531664E-05
7.411165E+03	1.447690E-04	2.520995E-05
7.421113E+03	1.441636E-04	2.510469E-05
7.431061E+03	1.435809E-04	2.500337E-05
7.441009E+03	1.429917E-04	2.490092E-05
7.450957E+03	1.424106E-04	2.479987E-05
7.460905E+03	1.418375E-04	2.470022E-05
7.470853E+03	1.412723E-04	2.460195E-05
7.480801E+03	1.407151E-04	2.450505E-05
7.490748E+03	1.401658E-04	2.440954E-05
7.500696E+03	1.396243E-04	2.431539E-05
7.510644E+03	1.390906E-04	2.422260E-05
7.520592E+03	1.385647E-04	2.413116E-05
7.530540E+03	1.380466E-04	2.404107E-05
7.540488E+03	1.375220E-04	2.394985E-05
7.550436E+03	1.370192E-04	2.386242E-05
7.560384E+03	1.365238E-04	2.377630E-05
7.570331E+03	1.360222E-04	2.368907E-05
7.580279E+03	1.355420E-04	2.360558E-05
7.590227E+03	1.350553E-04	2.352097E-05
7.600175E+03	1.345899E-04	2.344005E-05
7.610123E+03	1.341181E-04	2.335800E-05
7.620071E+03	1.336535E-04	2.327723E-05
7.630019E+03	1.331963E-04	2.319773E-05
7.639967E+03	1.327600E-04	2.312188E-05
7.649914E+03	1.323171E-04	2.304489E-05
7.659862E+03	1.318814E-04	2.296912E-05
7.669810E+03	1.314527E-04	2.289458E-05
7.679758E+03	1.310310E-04	2.282127E-05
7.689706E+03	1.306162E-04	2.274916E-05
7.699654E+03	1.302083E-04	2.267824E-05
7.709602E+03	1.297937E-04	2.260616E-05
7.719550E+03	1.293995E-04	2.253762E-05
