#wls	flux	fluxerr
1.591660E+03	3.607414E-05	0.000000E+00
1.631451E+03	3.723582E-05	0.000000E+00
1.671243E+03	3.835188E-05	0.000000E+00
1.711034E+03	3.940615E-05	0.000000E+00
1.750826E+03	4.039144E-05	0.000000E+00
1.790617E+03	4.127714E-05	0.000000E+00
1.830409E+03	4.201591E-05	0.000000E+00
1.870200E+03	4.256687E-05	0.000000E+00
1.909992E+03	4.287239E-05	0.000000E+00
1.949783E+03	4.290272E-05	0.000000E+00
1.989575E+03	4.266547E-05	0.000000E+00
2.029366E+03	4.225991E-05	0.000000E+00
2.069158E+03	4.190735E-05	0.000000E+00
2.108949E+03	4.194758E-05	0.000000E+00
2.148741E+03	4.269676E-05	0.000000E+00
2.188532E+03	4.430388E-05	0.000000E+00
2.228324E+03	4.668680E-05	0.000000E+00
2.268115E+03	4.963814E-05	0.000000E+00
2.307907E+03	5.289283E-05	0.000000E+00
2.347698E+03	5.626339E-05	0.000000E+00
2.387490E+03	5.963866E-05	0.000000E+00
2.427281E+03	6.293898E-05	0.000000E+00
2.467073E+03	6.615206E-05	0.000000E+00
2.506864E+03	6.927748E-05	0.000000E+00
2.546656E+03	7.232459E-05	0.000000E+00
2.586447E+03	7.530604E-05	0.000000E+00
2.626239E+03	7.823471E-05	0.000000E+00
2.666030E+03	8.112204E-05	0.000000E+00
2.705821E+03	8.399107E-05	0.000000E+00
2.745613E+03	8.682333E-05	0.000000E+00
2.785404E+03	8.963789E-05	0.000000E+00
2.825196E+03	9.245370E-05	0.000000E+00
2.864987E+03	9.524565E-05	0.000000E+00
2.904779E+03	9.804522E-05	0.000000E+00
2.944570E+03	1.008393E-04	0.000000E+00
2.984362E+03	1.036287E-04	0.000000E+00
2.994310E+03	1.043188E-04	0.000000E+00
3.004258E+03	1.050236E-04	0.000000E+00
3.014206E+03	1.057112E-04	0.000000E+00
3.024153E+03	1.064146E-04	0.000000E+00
3.034101E+03	1.071221E-04	0.000000E+00
3.044049E+03	1.078217E-04	0.000000E+00
3.053997E+03	1.085446E-04	0.000000E+00
3.063945E+03	1.092732E-04	0.000000E+00
3.073893E+03	1.100065E-04	0.000000E+00
3.083841E+03	1.107433E-04	0.000000E+00
3.093789E+03	1.114828E-04	0.000000E+00
3.103736E+03	1.122240E-04	0.000000E+00
3.113684E+03	1.129661E-04	0.000000E+00
3.123632E+03	1.137253E-04	0.000000E+00
3.133580E+03	1.144672E-04	0.000000E+00
3.143528E+03	1.152251E-04	0.000000E+00
3.153476E+03	1.159643E-04	0.000000E+00
3.163424E+03	1.167187E-04	0.000000E+00
3.173372E+03	1.174533E-04	0.000000E+00
3.183319E+03	1.182024E-04	0.000000E+00
3.193267E+03	1.189483E-04	0.000000E+00
3.203215E+03	1.196907E-04	0.000000E+00
3.213163E+03	1.204118E-04	0.000000E+00
3.223111E+03	1.211465E-04	0.000000E+00
3.233059E+03	1.218770E-04	0.000000E+00
3.243007E+03	1.226211E-04	0.000000E+00
3.252955E+03	1.233428E-04	0.000000E+00
3.262902E+03	1.240600E-04	0.000000E+00
3.272850E+03	1.247726E-04	0.000000E+00
3.282798E+03	1.254804E-04	0.000000E+00
3.292746E+03	1.262017E-04	0.000000E+00
3.302694E+03	1.269000E-04	0.000000E+00
3.312642E+03	1.276119E-04	0.000000E+00
3.322590E+03	1.283006E-04	0.000000E+00
3.332538E+03	1.290031E-04	0.000000E+00
3.342485E+03	1.297010E-04	0.000000E+00
3.352433E+03	1.303943E-04	0.000000E+00
3.362381E+03	1.310644E-04	0.000000E+00
3.372329E+03	1.317488E-04	0.000000E+00
3.382277E+03	1.324287E-04	0.000000E+00
3.392225E+03	1.331044E-04	0.000000E+00
3.402173E+03	1.337759E-04	0.000000E+00
3.412120E+03	1.344433E-04	0.000000E+00
3.422068E+03	1.351067E-04	0.000000E+00
3.432016E+03	1.357854E-04	0.000000E+00
3.441964E+03	1.364411E-04	0.000000E+00
3.451912E+03	1.370933E-04	0.000000E+00
3.461860E+03	1.377611E-04	0.000000E+00
3.471808E+03	1.384063E-04	0.000000E+00
3.481756E+03	1.390675E-04	0.000000E+00
3.491703E+03	1.397061E-04	0.000000E+00
3.501651E+03	1.403612E-04	0.000000E+00
3.511599E+03	1.409938E-04	0.000000E+00
3.521547E+03	1.416431E-04	0.000000E+00
3.531495E+03	1.422898E-04	0.000000E+00
3.541443E+03	1.429142E-04	0.000000E+00
3.551391E+03	1.435558E-04	0.000000E+00
3.561339E+03	1.441950E-04	0.000000E+00
3.571286E+03	1.448321E-04	0.000000E+00
3.581234E+03	1.454670E-04	0.000000E+00
3.591182E+03	1.460999E-04	0.000000E+00
3.601130E+03	1.467308E-04	0.000000E+00
3.611078E+03	1.473599E-04	0.000000E+00
3.621026E+03	1.479872E-04	0.000000E+00
3.630974E+03	1.486129E-04	0.000000E+00
3.640922E+03	1.492572E-04	0.000000E+00
3.650869E+03	1.498798E-04	0.000000E+00
3.660817E+03	1.505011E-04	0.000000E+00
3.670765E+03	1.511210E-04	0.000000E+00
3.680713E+03	1.517600E-04	0.000000E+00
3.690661E+03	1.523775E-04	0.000000E+00
3.700609E+03	1.529938E-04	0.000000E+00
3.710557E+03	1.536296E-04	0.000000E+00
3.720505E+03	1.542439E-04	0.000000E+00
3.730452E+03	1.548778E-04	0.000000E+00
3.740400E+03	1.554903E-04	0.000000E+00
3.750348E+03	1.561226E-04	0.000000E+00
3.760296E+03	1.567334E-04	0.000000E+00
3.770244E+03	1.573643E-04	0.000000E+00
3.780192E+03	1.579944E-04	0.000000E+00
3.790140E+03	1.586032E-04	0.000000E+00
3.800088E+03	1.592320E-04	0.000000E+00
3.810035E+03	1.598395E-04	0.000000E+00
3.819983E+03	1.604673E-04	0.000000E+00
3.829931E+03	1.610945E-04	0.000000E+00
3.839879E+03	1.617213E-04	0.000000E+00
3.849827E+03	1.623265E-04	0.000000E+00
3.859775E+03	1.629522E-04	0.000000E+00
3.869723E+03	1.635775E-04	0.000000E+00
3.879671E+03	1.642024E-04	0.000000E+00
3.889618E+03	1.648054E-04	0.000000E+00
3.899566E+03	1.654293E-04	0.000000E+00
3.909514E+03	1.660527E-04	0.000000E+00
3.919462E+03	1.666755E-04	0.000000E+00
3.929410E+03	1.672979E-04	0.000000E+00
3.939358E+03	1.678983E-04	0.000000E+00
3.949306E+03	1.685197E-04	0.000000E+00
3.959254E+03	1.691404E-04	0.000000E+00
3.969201E+03	1.697606E-04	0.000000E+00
3.979149E+03	1.703802E-04	0.000000E+00
3.989097E+03	1.709775E-04	0.000000E+00
3.999045E+03	1.715958E-04	0.000000E+00
4.008993E+03	1.722134E-04	0.000000E+00
4.018941E+03	1.728302E-04	0.000000E+00
4.028889E+03	1.734463E-04	0.000000E+00
4.038836E+03	1.740397E-04	0.000000E+00
4.048784E+03	1.746540E-04	0.000000E+00
4.058732E+03	1.752675E-04	0.000000E+00
4.068680E+03	1.758799E-04	0.000000E+00
4.078628E+03	1.764694E-04	0.000000E+00
4.088576E+03	1.770797E-04	0.000000E+00
4.098524E+03	1.776889E-04	0.000000E+00
4.108472E+03	1.782748E-04	0.000000E+00
4.118419E+03	1.788814E-04	0.000000E+00
4.128367E+03	1.794867E-04	0.000000E+00
4.138315E+03	1.800684E-04	0.000000E+00
4.148263E+03	1.806708E-04	0.000000E+00
4.158211E+03	1.812493E-04	0.000000E+00
4.168159E+03	1.818484E-04	0.000000E+00
4.178107E+03	1.824234E-04	0.000000E+00
4.188055E+03	1.830189E-04	0.000000E+00
4.198002E+03	1.835901E-04	0.000000E+00
4.207950E+03	1.841816E-04	0.000000E+00
4.217898E+03	1.847485E-04	0.000000E+00
4.227846E+03	1.853132E-04	0.000000E+00
4.237794E+03	1.858980E-04	0.000000E+00
4.247742E+03	1.864579E-04	0.000000E+00
4.257690E+03	1.870152E-04	0.000000E+00
4.267638E+03	1.875697E-04	0.000000E+00
4.277585E+03	1.881215E-04	0.000000E+00
4.287533E+03	1.886703E-04	0.000000E+00
4.297481E+03	1.892160E-04	0.000000E+00
4.307429E+03	1.897586E-04	0.000000E+00
4.317377E+03	1.902979E-04	0.000000E+00
4.327325E+03	1.908337E-04	0.000000E+00
4.337273E+03	1.913660E-04	0.000000E+00
4.347221E+03	1.918945E-04	0.000000E+00
4.357168E+03	1.924192E-04	0.000000E+00
4.367116E+03	1.929171E-04	0.000000E+00
4.377064E+03	1.934336E-04	0.000000E+00
4.387012E+03	1.939230E-04	0.000000E+00
4.396960E+03	1.944308E-04	0.000000E+00
4.406908E+03	1.949110E-04	0.000000E+00
4.416856E+03	1.954094E-04	0.000000E+00
4.426804E+03	1.958799E-04	0.000000E+00
4.436751E+03	1.963453E-04	0.000000E+00
4.446699E+03	1.968283E-04	0.000000E+00
4.456647E+03	1.972830E-04	0.000000E+00
4.466595E+03	1.977319E-04	0.000000E+00
4.476543E+03	1.981751E-04	0.000000E+00
4.486491E+03	1.986122E-04	0.000000E+00
4.496439E+03	1.990431E-04	0.000000E+00
4.506387E+03	1.994446E-04	0.000000E+00
4.516334E+03	1.998626E-04	0.000000E+00
4.526282E+03	2.002738E-04	0.000000E+00
4.536230E+03	2.006549E-04	0.000000E+00
4.546178E+03	2.010520E-04	0.000000E+00
4.556126E+03	2.014186E-04	0.000000E+00
4.566074E+03	2.018007E-04	0.000000E+00
4.576022E+03	2.021519E-04	0.000000E+00
4.585970E+03	2.024950E-04	0.000000E+00
4.595917E+03	2.028300E-04	0.000000E+00
4.605865E+03	2.031565E-04	0.000000E+00
4.615813E+03	2.034744E-04	0.000000E+00
4.625761E+03	2.037834E-04	0.000000E+00
4.635709E+03	2.040833E-04	0.000000E+00
4.645657E+03	2.043507E-04	0.000000E+00
4.655605E+03	2.046317E-04	0.000000E+00
4.665553E+03	2.049030E-04	0.000000E+00
4.675500E+03	2.051410E-04	0.000000E+00
4.685448E+03	2.053689E-04	0.000000E+00
4.695396E+03	2.056094E-04	0.000000E+00
4.705344E+03	2.058161E-04	0.000000E+00
4.715292E+03	2.060119E-04	0.000000E+00
4.725240E+03	2.061965E-04	0.000000E+00
4.735188E+03	2.063698E-04	0.000000E+00
4.745135E+03	2.065315E-04	0.000000E+00
4.755083E+03	2.066583E-04	0.000000E+00
4.765031E+03	2.067964E-04	0.000000E+00
4.774979E+03	2.069225E-04	0.000000E+00
4.784927E+03	2.070134E-04	0.000000E+00
4.794875E+03	2.070922E-04	0.000000E+00
4.804823E+03	2.071822E-04	0.000000E+00
4.814771E+03	2.072372E-04	0.000000E+00
4.824718E+03	2.072805E-04	0.000000E+00
4.834666E+03	2.073124E-04	0.000000E+00
4.844614E+03	2.073331E-04	0.000000E+00
4.854562E+03	2.073427E-04	0.000000E+00
4.864510E+03	2.073186E-04	0.000000E+00
4.874458E+03	2.073069E-04	0.000000E+00
4.884406E+03	2.072621E-04	0.000000E+00
4.894354E+03	2.072300E-04	0.000000E+00
4.904301E+03	2.071654E-04	0.000000E+00
4.914249E+03	2.070913E-04	0.000000E+00
4.924197E+03	2.070079E-04	0.000000E+00
4.934145E+03	2.069154E-04	0.000000E+00
4.944093E+03	2.068142E-04	0.000000E+00
4.954041E+03	2.067045E-04	0.000000E+00
4.963989E+03	2.065864E-04	0.000000E+00
4.973937E+03	2.064376E-04	0.000000E+00
4.983884E+03	2.063037E-04	0.000000E+00
4.993832E+03	2.061396E-04	0.000000E+00
5.003780E+03	2.059682E-04	0.000000E+00
5.013728E+03	2.058121E-04	0.000000E+00
5.023676E+03	2.056267E-04	0.000000E+00
5.033624E+03	2.054346E-04	0.000000E+00
5.043572E+03	2.052137E-04	0.000000E+00
5.053520E+03	2.050089E-04	0.000000E+00
5.063467E+03	2.047982E-04	0.000000E+00
5.073415E+03	2.045593E-04	0.000000E+00
5.083363E+03	2.043371E-04	0.000000E+00
5.093311E+03	2.040873E-04	0.000000E+00
5.103259E+03	2.038544E-04	0.000000E+00
5.113207E+03	2.035944E-04	0.000000E+00
5.123155E+03	2.033296E-04	0.000000E+00
5.133103E+03	2.030601E-04	0.000000E+00
5.143050E+03	2.027863E-04	0.000000E+00
5.152998E+03	2.024863E-04	0.000000E+00
5.162946E+03	2.022040E-04	0.000000E+00
5.172894E+03	2.018961E-04	0.000000E+00
5.182842E+03	2.016061E-04	0.000000E+00
5.192790E+03	2.012909E-04	0.000000E+00
5.202738E+03	2.009723E-04	0.000000E+00
5.212686E+03	2.006719E-04	0.000000E+00
5.222633E+03	2.003468E-04	0.000000E+00
5.232581E+03	2.000188E-04	0.000000E+00
5.242529E+03	1.996665E-04	0.000000E+00
5.252477E+03	1.993329E-04	0.000000E+00
5.262425E+03	1.989966E-04	0.000000E+00
5.272373E+03	1.986367E-04	0.000000E+00
5.282321E+03	1.982957E-04	0.000000E+00
5.292269E+03	1.979312E-04	0.000000E+00
5.302216E+03	1.975648E-04	0.000000E+00
5.312164E+03	1.971963E-04	0.000000E+00
5.322112E+03	1.968470E-04	0.000000E+00
5.332060E+03	1.964539E-04	0.000000E+00
5.342008E+03	1.960802E-04	0.000000E+00
5.351956E+03	1.957049E-04	0.000000E+00
5.361904E+03	1.953280E-04	0.000000E+00
5.371851E+03	1.949290E-04	0.000000E+00
5.381799E+03	1.945494E-04	0.000000E+00
5.391747E+03	1.941478E-04	0.000000E+00
5.401695E+03	1.937452E-04	0.000000E+00
5.411643E+03	1.933620E-04	0.000000E+00
5.421591E+03	1.929572E-04	0.000000E+00
5.431539E+03	1.925515E-04	0.000000E+00
5.441487E+03	1.921448E-04	0.000000E+00
5.451434E+03	1.917170E-04	0.000000E+00
5.461382E+03	1.913087E-04	0.000000E+00
5.471330E+03	1.908997E-04	0.000000E+00
5.481278E+03	1.904697E-04	0.000000E+00
5.491226E+03	1.900592E-04	0.000000E+00
5.501174E+03	1.896281E-04	0.000000E+00
5.511122E+03	1.891963E-04	0.000000E+00
5.521070E+03	1.887640E-04	0.000000E+00
5.531017E+03	1.883511E-04	0.000000E+00
5.540965E+03	1.879178E-04	0.000000E+00
5.550913E+03	1.874642E-04	0.000000E+00
5.560861E+03	1.870299E-04	0.000000E+00
5.570809E+03	1.865952E-04	0.000000E+00
5.580757E+03	1.861601E-04	0.000000E+00
5.590705E+03	1.857049E-04	0.000000E+00
5.600653E+03	1.852688E-04	0.000000E+00
5.610600E+03	1.848128E-04	0.000000E+00
5.620548E+03	1.843565E-04	0.000000E+00
5.630496E+03	1.839192E-04	0.000000E+00
5.640444E+03	1.834621E-04	0.000000E+00
5.650392E+03	1.830045E-04	0.000000E+00
5.660340E+03	1.825466E-04	0.000000E+00
5.670288E+03	1.820882E-04	0.000000E+00
5.680236E+03	1.816294E-04	0.000000E+00
5.690183E+03	1.811510E-04	0.000000E+00
5.700131E+03	1.806913E-04	0.000000E+00
5.710079E+03	1.802311E-04	0.000000E+00
5.720027E+03	1.797514E-04	0.000000E+00
5.729975E+03	1.792901E-04	0.000000E+00
5.739923E+03	1.788095E-04	0.000000E+00
5.749871E+03	1.783282E-04	0.000000E+00
5.759819E+03	1.778465E-04	0.000000E+00
5.769766E+03	1.773828E-04	0.000000E+00
5.779714E+03	1.768998E-04	0.000000E+00
5.789662E+03	1.764161E-04	0.000000E+00
5.799610E+03	1.759317E-04	0.000000E+00
5.809558E+03	1.754282E-04	0.000000E+00
5.819506E+03	1.749424E-04	0.000000E+00
5.829454E+03	1.744558E-04	0.000000E+00
5.839402E+03	1.739683E-04	0.000000E+00
5.849349E+03	1.734618E-04	0.000000E+00
5.859297E+03	1.729726E-04	0.000000E+00
5.869245E+03	1.724643E-04	0.000000E+00
5.879193E+03	1.719551E-04	0.000000E+00
5.889141E+03	1.714630E-04	0.000000E+00
5.899089E+03	1.709519E-04	0.000000E+00
5.909037E+03	1.704397E-04	0.000000E+00
5.918985E+03	1.699265E-04	0.000000E+00
5.928932E+03	1.694122E-04	0.000000E+00
5.938880E+03	1.688967E-04	0.000000E+00
5.948828E+03	1.683801E-04	0.000000E+00
5.958776E+03	1.678623E-04	0.000000E+00
5.968724E+03	1.673433E-04	0.000000E+00
5.978672E+03	1.668229E-04	0.000000E+00
5.988620E+03	1.662837E-04	0.000000E+00
5.998568E+03	1.657608E-04	0.000000E+00
6.008515E+03	1.652364E-04	0.000000E+00
6.018463E+03	1.646933E-04	0.000000E+00
6.028411E+03	1.641662E-04	0.000000E+00
6.038359E+03	1.636203E-04	0.000000E+00
6.048307E+03	1.630731E-04	0.000000E+00
6.058255E+03	1.625415E-04	0.000000E+00
6.068203E+03	1.619913E-04	0.000000E+00
6.078150E+03	1.614397E-04	0.000000E+00
6.088098E+03	1.608866E-04	0.000000E+00
6.098046E+03	1.603319E-04	0.000000E+00
6.107994E+03	1.597757E-04	0.000000E+00
6.117942E+03	1.592180E-04	0.000000E+00
6.127890E+03	1.586587E-04	0.000000E+00
6.137838E+03	1.580978E-04	0.000000E+00
6.147786E+03	1.575354E-04	0.000000E+00
6.157733E+03	1.569714E-04	0.000000E+00
6.167681E+03	1.563893E-04	0.000000E+00
6.177629E+03	1.558222E-04	0.000000E+00
6.187577E+03	1.552534E-04	0.000000E+00
6.197525E+03	1.546668E-04	0.000000E+00
6.207473E+03	1.540950E-04	0.000000E+00
6.217421E+03	1.535054E-04	0.000000E+00
6.227369E+03	1.529304E-04	0.000000E+00
6.237316E+03	1.523379E-04	0.000000E+00
6.247264E+03	1.517440E-04	0.000000E+00
6.257212E+03	1.511645E-04	0.000000E+00
6.267160E+03	1.505677E-04	0.000000E+00
6.277108E+03	1.499696E-04	0.000000E+00
6.287056E+03	1.493701E-04	0.000000E+00
6.297004E+03	1.487850E-04	0.000000E+00
6.306952E+03	1.481829E-04	0.000000E+00
6.316899E+03	1.475796E-04	0.000000E+00
6.326847E+03	1.469751E-04	0.000000E+00
6.336795E+03	1.463694E-04	0.000000E+00
6.346743E+03	1.457626E-04	0.000000E+00
6.356691E+03	1.451548E-04	0.000000E+00
6.366639E+03	1.445459E-04	0.000000E+00
6.376587E+03	1.439209E-04	0.000000E+00
6.386535E+03	1.433102E-04	0.000000E+00
6.396482E+03	1.426987E-04	0.000000E+00
6.406430E+03	1.420864E-04	0.000000E+00
6.416378E+03	1.414583E-04	0.000000E+00
6.426326E+03	1.408446E-04	0.000000E+00
6.436274E+03	1.402304E-04	0.000000E+00
6.446222E+03	1.396008E-04	0.000000E+00
6.456170E+03	1.389855E-04	0.000000E+00
6.466118E+03	1.383552E-04	0.000000E+00
6.476065E+03	1.377393E-04	0.000000E+00
6.486013E+03	1.371086E-04	0.000000E+00
6.495961E+03	1.364924E-04	0.000000E+00
6.505909E+03	1.358616E-04	0.000000E+00
6.515857E+03	1.352309E-04	0.000000E+00
6.525805E+03	1.346147E-04	0.000000E+00
6.535753E+03	1.339844E-04	0.000000E+00
6.545701E+03	1.333544E-04	0.000000E+00
6.555648E+03	1.327249E-04	0.000000E+00
6.565596E+03	1.321099E-04	0.000000E+00
6.575544E+03	1.314814E-04	0.000000E+00
6.585492E+03	1.308536E-04	0.000000E+00
6.595440E+03	1.302266E-04	0.000000E+00
6.605388E+03	1.296005E-04	0.000000E+00
6.615336E+03	1.289753E-04	0.000000E+00
6.625284E+03	1.283512E-04	0.000000E+00
6.635231E+03	1.277282E-04	0.000000E+00
6.645179E+03	1.271063E-04	0.000000E+00
6.655127E+03	1.264859E-04	0.000000E+00
6.665075E+03	1.258668E-04	0.000000E+00
6.675023E+03	1.252491E-04	0.000000E+00
6.684971E+03	1.246331E-04	0.000000E+00
6.694919E+03	1.240055E-04	0.000000E+00
6.704866E+03	1.233929E-04	0.000000E+00
6.714814E+03	1.227822E-04	0.000000E+00
6.724762E+03	1.221734E-04	0.000000E+00
6.734710E+03	1.215536E-04	0.000000E+00
6.744658E+03	1.209490E-04	0.000000E+00
6.754606E+03	1.203465E-04	0.000000E+00
6.764554E+03	1.197335E-04	0.000000E+00
6.774502E+03	1.191357E-04	0.000000E+00
6.784449E+03	1.185276E-04	0.000000E+00
6.794397E+03	1.179348E-04	0.000000E+00
6.804345E+03	1.173320E-04	0.000000E+00
6.814293E+03	1.167445E-04	0.000000E+00
6.824241E+03	1.161473E-04	0.000000E+00
6.834189E+03	1.155654E-04	0.000000E+00
6.844137E+03	1.149740E-04	0.000000E+00
6.854085E+03	1.143857E-04	0.000000E+00
6.864032E+03	1.138128E-04	0.000000E+00
6.873980E+03	1.132308E-04	0.000000E+00
6.883928E+03	1.126520E-04	0.000000E+00
6.893876E+03	1.120887E-04	0.000000E+00
6.903824E+03	1.115166E-04	0.000000E+00
6.913772E+03	1.109480E-04	0.000000E+00
6.923720E+03	1.103830E-04	0.000000E+00
6.933668E+03	1.098215E-04	0.000000E+00
6.943615E+03	1.092637E-04	0.000000E+00
6.953563E+03	1.087212E-04	0.000000E+00
6.963511E+03	1.081708E-04	0.000000E+00
6.973459E+03	1.076241E-04	0.000000E+00
6.983407E+03	1.070813E-04	0.000000E+00
6.993355E+03	1.065423E-04	0.000000E+00
7.003303E+03	1.060073E-04	0.000000E+00
7.013251E+03	1.054763E-04	0.000000E+00
7.023198E+03	1.049379E-04	0.000000E+00
7.033146E+03	1.044150E-04	0.000000E+00
7.043094E+03	1.038963E-04	0.000000E+00
7.053042E+03	1.033816E-04	0.000000E+00
7.062990E+03	1.028711E-04	0.000000E+00
7.072938E+03	1.023538E-04	0.000000E+00
7.082886E+03	1.018518E-04	0.000000E+00
7.092834E+03	1.013541E-04	0.000000E+00
7.102781E+03	1.008496E-04	0.000000E+00
7.112729E+03	1.003606E-04	0.000000E+00
7.122677E+03	9.987582E-05	0.000000E+00
7.132625E+03	9.938470E-05	0.000000E+00
7.142573E+03	9.890875E-05	0.000000E+00
7.152521E+03	9.842651E-05	0.000000E+00
7.162469E+03	9.795943E-05	0.000000E+00
7.172417E+03	9.748620E-05	0.000000E+00
7.182364E+03	9.702805E-05	0.000000E+00
7.192312E+03	9.656391E-05	0.000000E+00
7.202260E+03	9.610429E-05	0.000000E+00
7.212208E+03	9.565967E-05	0.000000E+00
7.222156E+03	9.520917E-05	0.000000E+00
7.232104E+03	9.476326E-05	0.000000E+00
7.242052E+03	9.432194E-05	0.000000E+00
7.252000E+03	9.389547E-05	0.000000E+00
7.261947E+03	9.346332E-05	0.000000E+00
7.271895E+03	9.303578E-05	0.000000E+00
7.281843E+03	9.261281E-05	0.000000E+00
7.291791E+03	9.219446E-05	0.000000E+00
7.301739E+03	9.178074E-05	0.000000E+00
7.311687E+03	9.137156E-05	0.000000E+00
7.321635E+03	9.096702E-05	0.000000E+00
7.331583E+03	9.056702E-05	0.000000E+00
7.341530E+03	9.017163E-05	0.000000E+00
7.351478E+03	8.977091E-05	0.000000E+00
7.361426E+03	8.938468E-05	0.000000E+00
7.371374E+03	8.900302E-05	0.000000E+00
7.381322E+03	8.862583E-05	0.000000E+00
7.391270E+03	8.824348E-05	0.000000E+00
7.401218E+03	8.787540E-05	0.000000E+00
7.411165E+03	8.751182E-05	0.000000E+00
7.421113E+03	8.714312E-05	0.000000E+00
7.431061E+03	8.678852E-05	0.000000E+00
7.441009E+03	8.642882E-05	0.000000E+00
7.450957E+03	8.608313E-05	0.000000E+00
7.460905E+03	8.573239E-05	0.000000E+00
7.470853E+03	8.539554E-05	0.000000E+00
7.480801E+03	8.505369E-05	0.000000E+00
7.490748E+03	8.471621E-05	0.000000E+00
7.500696E+03	8.439249E-05	0.000000E+00
7.510644E+03	8.406378E-05	0.000000E+00
7.520592E+03	8.373940E-05	0.000000E+00
7.530540E+03	8.341937E-05	0.000000E+00
7.540488E+03	8.310363E-05	0.000000E+00
7.550436E+03	8.279215E-05	0.000000E+00
7.560384E+03	8.248492E-05	0.000000E+00
7.570331E+03	8.218196E-05	0.000000E+00
7.580279E+03	8.188316E-05	0.000000E+00
7.590227E+03	8.158853E-05	0.000000E+00
7.600175E+03	8.129803E-05	0.000000E+00
7.610123E+03	8.101166E-05	0.000000E+00
7.620071E+03	8.072942E-05	0.000000E+00
7.630019E+03	8.044219E-05	0.000000E+00
7.639967E+03	8.016803E-05	0.000000E+00
7.649914E+03	7.989786E-05	0.000000E+00
7.659862E+03	7.962271E-05	0.000000E+00
7.669810E+03	7.936045E-05	0.000000E+00
7.679758E+03	7.909324E-05	0.000000E+00
7.689706E+03	7.883880E-05	0.000000E+00
7.699654E+03	7.857936E-05	0.000000E+00
7.709602E+03	7.833260E-05	0.000000E+00
7.719550E+03	7.808085E-05	0.000000E+00
