#wls	flux	fluxerr
1.591660E+03	6.241195E-05	1.521011E-05
1.631451E+03	6.452720E-05	1.572485E-05
1.671243E+03	6.655862E-05	1.621910E-05
1.711034E+03	6.850056E-05	1.669148E-05
1.750826E+03	7.031641E-05	1.713307E-05
1.790617E+03	7.196353E-05	1.753350E-05
1.830409E+03	7.338373E-05	1.787859E-05
1.870200E+03	7.445405E-05	1.813838E-05
1.909992E+03	7.512233E-05	1.830019E-05
1.949783E+03	7.530841E-05	1.834451E-05
1.989575E+03	7.502305E-05	1.827397E-05
2.029366E+03	7.442567E-05	1.812743E-05
2.069158E+03	7.394292E-05	1.800881E-05
2.108949E+03	7.413773E-05	1.805519E-05
2.148741E+03	7.559807E-05	1.840974E-05
2.188532E+03	7.858217E-05	1.913527E-05
2.228324E+03	8.296520E-05	2.020132E-05
2.268115E+03	8.835745E-05	2.151295E-05
2.307907E+03	9.431898E-05	2.296299E-05
2.347698E+03	1.005026E-04	2.446690E-05
2.387490E+03	1.067086E-04	2.597602E-05
2.427281E+03	1.128112E-04	2.745977E-05
2.467073E+03	1.187693E-04	2.890811E-05
2.506864E+03	1.245991E-04	3.032503E-05
2.546656E+03	1.302965E-04	3.170949E-05
2.586447E+03	1.359029E-04	3.307159E-05
2.626239E+03	1.414187E-04	3.441143E-05
2.666030E+03	1.468846E-04	3.573894E-05
2.705821E+03	1.522942E-04	3.705250E-05
2.745613E+03	1.576587E-04	3.835488E-05
2.785404E+03	1.630112E-04	3.965413E-05
2.825196E+03	1.683592E-04	4.095207E-05
2.864987E+03	1.737079E-04	4.224994E-05
2.904779E+03	1.790334E-04	4.354196E-05
2.944570E+03	1.843355E-04	4.482808E-05
2.984362E+03	1.896682E-04	4.612141E-05
2.994310E+03	1.910002E-04	4.644440E-05
3.004258E+03	1.923007E-04	4.675974E-05
3.014206E+03	1.936539E-04	4.708788E-05
3.024153E+03	1.949776E-04	4.740883E-05
3.034101E+03	1.963075E-04	4.773128E-05
3.044049E+03	1.976514E-04	4.805712E-05
3.053997E+03	1.990356E-04	4.839273E-05
3.063945E+03	2.004003E-04	4.872359E-05
3.073893E+03	2.018011E-04	4.906322E-05
3.083841E+03	2.032072E-04	4.940413E-05
3.093789E+03	2.046169E-04	4.974588E-05
3.103736E+03	2.060283E-04	5.008806E-05
3.113684E+03	2.074402E-04	5.043030E-05
3.123632E+03	2.088509E-04	5.077228E-05
3.133580E+03	2.102594E-04	5.111367E-05
3.143528E+03	2.116943E-04	5.146150E-05
3.153476E+03	2.130949E-04	5.180095E-05
3.163424E+03	2.145201E-04	5.214640E-05
3.173372E+03	2.159394E-04	5.249036E-05
3.183319E+03	2.173518E-04	5.283265E-05
3.193267E+03	2.187259E-04	5.316562E-05
3.203215E+03	2.201534E-04	5.351153E-05
3.213163E+03	2.215414E-04	5.384785E-05
3.223111E+03	2.229203E-04	5.418193E-05
3.233059E+03	2.242896E-04	5.451368E-05
3.243007E+03	2.256804E-04	5.485062E-05
3.252955E+03	2.270297E-04	5.517747E-05
3.262902E+03	2.284001E-04	5.550944E-05
3.272850E+03	2.297601E-04	5.583887E-05
3.282798E+03	2.311096E-04	5.616572E-05
3.292746E+03	2.324165E-04	5.648220E-05
3.302694E+03	2.337763E-04	5.681155E-05
3.312642E+03	2.350935E-04	5.713051E-05
3.322590E+03	2.363998E-04	5.744682E-05
3.332538E+03	2.376953E-04	5.776049E-05
3.342485E+03	2.390124E-04	5.807939E-05
3.352433E+03	2.402865E-04	5.838783E-05
3.362381E+03	2.415825E-04	5.870157E-05
3.372329E+03	2.428680E-04	5.901278E-05
3.382277E+03	2.441106E-04	5.931353E-05
3.392225E+03	2.453757E-04	5.961974E-05
3.402173E+03	2.466309E-04	5.992351E-05
3.412120E+03	2.479091E-04	6.023289E-05
3.422068E+03	2.491448E-04	6.053192E-05
3.432016E+03	2.503710E-04	6.082862E-05
3.441964E+03	2.515878E-04	6.112303E-05
3.451912E+03	2.528288E-04	6.142331E-05
3.461860E+03	2.540276E-04	6.171333E-05
3.471808E+03	2.552511E-04	6.200934E-05
3.481756E+03	2.564662E-04	6.230330E-05
3.491703E+03	2.576731E-04	6.259524E-05
3.501651E+03	2.588719E-04	6.288521E-05
3.511599E+03	2.600629E-04	6.317328E-05
3.521547E+03	2.612463E-04	6.345949E-05
3.531495E+03	2.624221E-04	6.374386E-05
3.541443E+03	2.635908E-04	6.402648E-05
3.551391E+03	2.647525E-04	6.430737E-05
3.561339E+03	2.659414E-04	6.459488E-05
3.571286E+03	2.670895E-04	6.487249E-05
3.581234E+03	2.682655E-04	6.515683E-05
3.591182E+03	2.694010E-04	6.543134E-05
3.601130E+03	2.705647E-04	6.571269E-05
3.611078E+03	2.717226E-04	6.599263E-05
3.621026E+03	2.728749E-04	6.627118E-05
3.630974E+03	2.740216E-04	6.654838E-05
3.640922E+03	2.751630E-04	6.682429E-05
3.650869E+03	2.762993E-04	6.709893E-05
3.660817E+03	2.774306E-04	6.737235E-05
3.670765E+03	2.785570E-04	6.764460E-05
3.680713E+03	2.796787E-04	6.791567E-05
3.690661E+03	2.808306E-04	6.819408E-05
3.700609E+03	2.819433E-04	6.846295E-05
3.710557E+03	2.830516E-04	6.873077E-05
3.720505E+03	2.841908E-04	6.900606E-05
3.730452E+03	2.852909E-04	6.927187E-05
3.740400E+03	2.864221E-04	6.954522E-05
3.750348E+03	2.875496E-04	6.981764E-05
3.760296E+03	2.886381E-04	7.008062E-05
3.770244E+03	2.897583E-04	7.035125E-05
3.780192E+03	2.908749E-04	7.062103E-05
3.790140E+03	2.919881E-04	7.088997E-05
3.800088E+03	2.930980E-04	7.115810E-05
3.810035E+03	2.941691E-04	7.141682E-05
3.819983E+03	2.952725E-04	7.168337E-05
3.829931E+03	2.963727E-04	7.194913E-05
3.839879E+03	2.974699E-04	7.221416E-05
3.849827E+03	2.985996E-04	7.248708E-05
3.859775E+03	2.996908E-04	7.275065E-05
3.869723E+03	3.007791E-04	7.301350E-05
3.879671E+03	3.018645E-04	7.327563E-05
3.889618E+03	3.029470E-04	7.353708E-05
3.899566E+03	3.040267E-04	7.379783E-05
3.909514E+03	3.051394E-04	7.406660E-05
3.919462E+03	3.062135E-04	7.432599E-05
3.929410E+03	3.072848E-04	7.458471E-05
3.939358E+03	3.083534E-04	7.484275E-05
3.949306E+03	3.094552E-04	7.510887E-05
3.959254E+03	3.105184E-04	7.536559E-05
3.969201E+03	3.115787E-04	7.562163E-05
3.979149E+03	3.126724E-04	7.588576E-05
3.989097E+03	3.137273E-04	7.614046E-05
3.999045E+03	3.147793E-04	7.639448E-05
4.008993E+03	3.158647E-04	7.665661E-05
4.018941E+03	3.169111E-04	7.690925E-05
4.028889E+03	3.179546E-04	7.716121E-05
4.038836E+03	3.190316E-04	7.742127E-05
4.048784E+03	3.200692E-04	7.767180E-05
4.058732E+03	3.211403E-04	7.793044E-05
4.068680E+03	3.221720E-04	7.817951E-05
4.078628E+03	3.232006E-04	7.842785E-05
4.088576E+03	3.242260E-04	7.867541E-05
4.098524E+03	3.252846E-04	7.893103E-05
4.108472E+03	3.263035E-04	7.917703E-05
4.118419E+03	3.273191E-04	7.942220E-05
4.128367E+03	3.283312E-04	7.966654E-05
4.138315E+03	3.293763E-04	7.991890E-05
4.148263E+03	3.303813E-04	8.016152E-05
4.158211E+03	3.313825E-04	8.040324E-05
4.168159E+03	3.323800E-04	8.064405E-05
4.178107E+03	3.333735E-04	8.088389E-05
4.188055E+03	3.343630E-04	8.112277E-05
4.198002E+03	3.353484E-04	8.136066E-05
4.207950E+03	3.363295E-04	8.159751E-05
4.217898E+03	3.373062E-04	8.183330E-05
4.227846E+03	3.382784E-04	8.206801E-05
4.237794E+03	3.392460E-04	8.230160E-05
4.247742E+03	3.401718E-04	8.252508E-05
4.257690E+03	3.411297E-04	8.275632E-05
4.267638E+03	3.420823E-04	8.298632E-05
4.277585E+03	3.429929E-04	8.320611E-05
4.287533E+03	3.439349E-04	8.343353E-05
4.297481E+03	3.448343E-04	8.365064E-05
4.307429E+03	3.457649E-04	8.387532E-05
4.317377E+03	3.466526E-04	8.408960E-05
4.327325E+03	3.475342E-04	8.430240E-05
4.337273E+03	3.484463E-04	8.452264E-05
4.347221E+03	3.493149E-04	8.473230E-05
4.357168E+03	3.501767E-04	8.494035E-05
4.367116E+03	3.510315E-04	8.514671E-05
4.377064E+03	3.518791E-04	8.535133E-05
4.387012E+03	3.526821E-04	8.554517E-05
4.396960E+03	3.535146E-04	8.574615E-05
4.406908E+03	3.543392E-04	8.594522E-05
4.416856E+03	3.551185E-04	8.613334E-05
4.426804E+03	3.559265E-04	8.632844E-05
4.436751E+03	3.566888E-04	8.651244E-05
4.446699E+03	3.574791E-04	8.670327E-05
4.456647E+03	3.582233E-04	8.688292E-05
4.466595E+03	3.589578E-04	8.706025E-05
4.476543E+03	3.596826E-04	8.723525E-05
4.486491E+03	3.603974E-04	8.740781E-05
4.496439E+03	3.611018E-04	8.757789E-05
4.506387E+03	3.617584E-04	8.773639E-05
4.516334E+03	3.624412E-04	8.790126E-05
4.526282E+03	3.630755E-04	8.805441E-05
4.536230E+03	3.637355E-04	8.821378E-05
4.546178E+03	3.643464E-04	8.836127E-05
4.556126E+03	3.649450E-04	8.850581E-05
4.566074E+03	3.655310E-04	8.864732E-05
4.576022E+03	3.661042E-04	8.878572E-05
4.585970E+03	3.666641E-04	8.892095E-05
4.595917E+03	3.671734E-04	8.904391E-05
4.605865E+03	3.677057E-04	8.917249E-05
4.615813E+03	3.681868E-04	8.928865E-05
4.625761E+03	3.686903E-04	8.941028E-05
4.635709E+03	3.691417E-04	8.951929E-05
4.645657E+03	3.695778E-04	8.962462E-05
4.655605E+03	3.699982E-04	8.972618E-05
4.665553E+03	3.704026E-04	8.982387E-05
4.675500E+03	3.707536E-04	8.990866E-05
4.685448E+03	3.711249E-04	8.999837E-05
4.695396E+03	3.714422E-04	9.007504E-05
4.705344E+03	3.717791E-04	9.015646E-05
4.715292E+03	3.720613E-04	9.022467E-05
4.725240E+03	3.723257E-04	9.028858E-05
4.735188E+03	3.725718E-04	9.034808E-05
4.745135E+03	3.727629E-04	9.039427E-05
4.755083E+03	3.729720E-04	9.044487E-05
4.765031E+03	3.731258E-04	9.048208E-05
4.774979E+03	3.732975E-04	9.052366E-05
4.784927E+03	3.734138E-04	9.055183E-05
4.794875E+03	3.735113E-04	9.057547E-05
4.804823E+03	3.735903E-04	9.059466E-05
4.814771E+03	3.736507E-04	9.060938E-05
4.824718E+03	3.736566E-04	9.061089E-05
4.834666E+03	3.736809E-04	9.061692E-05
4.844614E+03	3.736513E-04	9.060988E-05
4.854562E+03	3.736045E-04	9.059871E-05
4.864510E+03	3.735408E-04	9.058348E-05
4.874458E+03	3.734607E-04	9.056428E-05
4.884406E+03	3.733285E-04	9.053248E-05
4.894354E+03	3.732167E-04	9.050567E-05
4.904301E+03	3.730538E-04	9.046649E-05
4.914249E+03	3.729121E-04	9.043246E-05
4.924197E+03	3.727202E-04	9.038630E-05
4.934145E+03	3.725146E-04	9.033684E-05
4.944093E+03	3.722599E-04	9.027549E-05
4.954041E+03	3.720281E-04	9.021971E-05
4.963989E+03	3.717482E-04	9.015231E-05
4.973937E+03	3.714919E-04	9.009064E-05
4.983884E+03	3.711885E-04	9.001757E-05
4.993832E+03	3.708740E-04	8.994185E-05
5.003780E+03	3.705489E-04	8.986356E-05
5.013728E+03	3.701782E-04	8.977427E-05
5.023676E+03	3.698330E-04	8.969115E-05
5.033624E+03	3.694433E-04	8.959728E-05
5.043572E+03	3.690796E-04	8.950972E-05
5.053520E+03	3.686723E-04	8.941161E-05
5.063467E+03	3.682568E-04	8.931155E-05
5.073415E+03	3.677988E-04	8.920119E-05
5.083363E+03	3.673682E-04	8.909748E-05
5.093311E+03	3.668958E-04	8.898367E-05
5.103259E+03	3.664514E-04	8.887666E-05
5.113207E+03	3.659660E-04	8.875974E-05
5.123155E+03	3.654747E-04	8.864140E-05
5.133103E+03	3.649778E-04	8.852171E-05
5.143050E+03	3.644414E-04	8.839246E-05
5.152998E+03	3.639342E-04	8.827031E-05
5.162946E+03	3.633883E-04	8.813878E-05
5.172894E+03	3.628380E-04	8.800622E-05
5.182842E+03	3.622838E-04	8.787270E-05
5.192790E+03	3.617258E-04	8.773828E-05
5.202738E+03	3.611642E-04	8.760302E-05
5.212686E+03	3.605993E-04	8.746698E-05
5.222633E+03	3.599980E-04	8.732210E-05
5.232581E+03	3.593939E-04	8.717657E-05
5.242529E+03	3.587875E-04	8.703048E-05
5.252477E+03	3.581788E-04	8.688386E-05
5.262425E+03	3.575681E-04	8.673676E-05
5.272373E+03	3.569556E-04	8.658924E-05
5.282321E+03	3.563084E-04	8.643331E-05
5.292269E+03	3.556929E-04	8.628507E-05
5.302216E+03	3.550431E-04	8.612855E-05
5.312164E+03	3.543924E-04	8.597181E-05
5.322112E+03	3.537409E-04	8.581486E-05
5.332060E+03	3.530886E-04	8.565776E-05
5.342008E+03	3.524033E-04	8.549264E-05
5.351956E+03	3.517501E-04	8.533534E-05
5.361904E+03	3.510642E-04	8.517010E-05
5.371851E+03	3.503782E-04	8.500485E-05
5.381799E+03	3.496923E-04	8.483962E-05
5.391747E+03	3.490065E-04	8.467443E-05
5.401695E+03	3.483209E-04	8.450930E-05
5.411643E+03	3.476355E-04	8.434423E-05
5.421591E+03	3.469187E-04	8.417153E-05
5.431539E+03	3.462342E-04	8.400668E-05
5.441487E+03	3.455184E-04	8.383424E-05
5.451434E+03	3.448032E-04	8.366198E-05
5.461382E+03	3.440888E-04	8.348989E-05
5.471330E+03	3.433750E-04	8.331797E-05
5.481278E+03	3.426307E-04	8.313863E-05
5.491226E+03	3.419185E-04	8.296711E-05
5.501174E+03	3.411759E-04	8.278819E-05
5.511122E+03	3.404342E-04	8.260952E-05
5.521070E+03	3.397246E-04	8.243862E-05
5.531017E+03	3.389846E-04	8.226038E-05
5.540965E+03	3.382147E-04	8.207485E-05
5.550913E+03	3.374766E-04	8.189706E-05
5.560861E+03	3.367394E-04	8.171949E-05
5.570809E+03	3.359723E-04	8.153467E-05
5.580757E+03	3.352368E-04	8.135750E-05
5.590705E+03	3.344715E-04	8.117311E-05
5.600653E+03	3.337069E-04	8.098891E-05
5.610600E+03	3.329432E-04	8.080492E-05
5.620548E+03	3.321802E-04	8.062110E-05
5.630496E+03	3.313876E-04	8.043010E-05
5.640444E+03	3.306259E-04	8.024659E-05
5.650392E+03	3.298648E-04	8.006323E-05
5.660340E+03	3.290741E-04	7.987269E-05
5.670288E+03	3.282838E-04	7.968225E-05
5.680236E+03	3.274940E-04	7.949193E-05
5.690183E+03	3.267046E-04	7.930169E-05
5.700131E+03	3.259153E-04	7.911150E-05
5.710079E+03	3.251263E-04	7.892136E-05
5.720027E+03	3.243372E-04	7.873121E-05
5.729975E+03	3.235186E-04	7.853389E-05
5.739923E+03	3.227294E-04	7.834371E-05
5.749871E+03	3.219105E-04	7.814631E-05
5.759819E+03	3.210914E-04	7.794888E-05
5.769766E+03	3.203011E-04	7.775843E-05
5.779714E+03	3.194811E-04	7.756075E-05
5.789662E+03	3.186604E-04	7.736293E-05
5.799610E+03	3.178102E-04	7.715791E-05
5.809558E+03	3.169880E-04	7.695971E-05
5.819506E+03	3.161649E-04	7.676128E-05
5.829454E+03	3.153120E-04	7.655561E-05
5.839402E+03	3.144865E-04	7.635661E-05
5.849349E+03	3.136312E-04	7.615036E-05
5.859297E+03	3.127746E-04	7.594376E-05
5.869245E+03	3.119164E-04	7.573681E-05
5.879193E+03	3.110850E-04	7.553633E-05
5.889141E+03	3.101952E-04	7.532168E-05
5.899089E+03	3.093318E-04	7.511344E-05
5.909037E+03	3.084664E-04	7.490471E-05
5.918985E+03	3.075988E-04	7.469545E-05
5.928932E+03	3.067011E-04	7.447886E-05
5.938880E+03	3.058289E-04	7.426846E-05
5.948828E+03	3.049265E-04	7.405072E-05
5.958776E+03	3.040492E-04	7.383906E-05
5.968724E+03	3.031415E-04	7.362002E-05
5.978672E+03	3.022311E-04	7.340033E-05
5.988620E+03	3.013177E-04	7.317991E-05
5.998568E+03	3.004014E-04	7.295876E-05
6.008515E+03	2.994819E-04	7.273684E-05
6.018463E+03	2.985592E-04	7.251413E-05
6.028411E+03	2.976331E-04	7.229059E-05
6.038359E+03	2.966766E-04	7.205965E-05
6.048307E+03	2.957436E-04	7.183441E-05
6.058255E+03	2.947801E-04	7.160175E-05
6.068203E+03	2.938397E-04	7.137472E-05
6.078150E+03	2.928688E-04	7.114025E-05
6.088098E+03	2.919206E-04	7.091131E-05
6.098046E+03	2.909419E-04	7.067494E-05
6.107994E+03	2.899593E-04	7.043761E-05
6.117942E+03	2.889726E-04	7.019928E-05
6.127890E+03	2.879818E-04	6.995994E-05
6.137838E+03	2.869868E-04	6.971959E-05
6.147786E+03	2.859876E-04	6.947820E-05
6.157733E+03	2.849842E-04	6.923577E-05
6.167681E+03	2.839764E-04	6.899227E-05
6.177629E+03	2.829384E-04	6.874143E-05
6.187577E+03	2.819220E-04	6.849582E-05
6.197525E+03	2.808755E-04	6.824289E-05
6.207473E+03	2.798502E-04	6.799511E-05
6.217421E+03	2.787950E-04	6.774005E-05
6.227369E+03	2.777609E-04	6.749010E-05
6.237316E+03	2.766971E-04	6.723294E-05
6.247264E+03	2.756289E-04	6.697470E-05
6.257212E+03	2.745817E-04	6.672154E-05
6.267160E+03	2.735050E-04	6.646121E-05
6.277108E+03	2.724241E-04	6.619985E-05
6.287056E+03	2.713390E-04	6.593745E-05
6.297004E+03	2.702499E-04	6.567408E-05
6.306952E+03	2.691566E-04	6.540968E-05
6.316899E+03	2.680595E-04	6.514432E-05
6.326847E+03	2.669583E-04	6.487799E-05
6.336795E+03	2.658290E-04	6.460479E-05
6.346743E+03	2.647204E-04	6.433661E-05
6.356691E+03	2.636081E-04	6.406754E-05
6.366639E+03	2.624681E-04	6.379173E-05
6.376587E+03	2.613489E-04	6.352094E-05
6.386535E+03	2.602264E-04	6.324935E-05
6.396482E+03	2.590768E-04	6.297118E-05
6.406430E+03	2.579482E-04	6.269806E-05
6.416378E+03	2.567929E-04	6.241847E-05
6.426326E+03	2.556350E-04	6.213823E-05
6.436274E+03	2.544982E-04	6.186310E-05
6.446222E+03	2.533355E-04	6.158167E-05
6.456170E+03	2.521706E-04	6.129970E-05
6.466118E+03	2.510039E-04	6.101727E-05
6.476065E+03	2.498584E-04	6.073998E-05
6.486013E+03	2.486881E-04	6.045666E-05
6.495961E+03	2.475165E-04	6.017300E-05
6.505909E+03	2.463436E-04	5.988902E-05
6.515857E+03	2.451698E-04	5.960480E-05
6.525805E+03	2.439950E-04	5.932035E-05
6.535753E+03	2.428197E-04	5.903574E-05
6.545701E+03	2.416216E-04	5.874556E-05
6.555648E+03	2.404457E-04	5.846081E-05
6.565596E+03	2.392699E-04	5.817603E-05
6.575544E+03	2.380942E-04	5.789129E-05
6.585492E+03	2.369189E-04	5.760663E-05
6.595440E+03	2.357225E-04	5.731682E-05
6.605388E+03	2.345489E-04	5.703254E-05
6.615336E+03	2.333763E-04	5.674850E-05
6.625284E+03	2.321836E-04	5.645954E-05
6.635231E+03	2.310139E-04	5.617618E-05
6.645179E+03	2.298247E-04	5.588807E-05
6.655127E+03	2.286589E-04	5.560562E-05
6.665075E+03	2.274742E-04	5.531856E-05
6.675023E+03	2.263130E-04	5.503722E-05
6.684971E+03	2.251336E-04	5.475144E-05
6.694919E+03	2.239572E-04	5.446636E-05
6.704866E+03	2.228048E-04	5.418712E-05
6.714814E+03	2.216350E-04	5.390363E-05
6.724762E+03	2.204688E-04	5.362102E-05
6.734710E+03	2.193067E-04	5.333935E-05
6.744658E+03	2.181688E-04	5.306360E-05
6.754606E+03	2.170149E-04	5.278393E-05
6.764554E+03	2.158655E-04	5.250532E-05
6.774502E+03	2.147207E-04	5.222786E-05
6.784449E+03	2.135808E-04	5.195155E-05
6.794397E+03	2.124460E-04	5.167646E-05
6.804345E+03	2.113164E-04	5.140266E-05
6.814293E+03	2.101923E-04	5.113016E-05
6.824241E+03	2.090738E-04	5.085901E-05
6.834189E+03	2.079611E-04	5.058927E-05
6.844137E+03	2.068544E-04	5.032095E-05
6.854085E+03	2.057538E-04	5.005413E-05
6.864032E+03	2.046403E-04	4.978416E-05
6.873980E+03	2.035525E-04	4.952041E-05
6.883928E+03	2.024713E-04	4.925828E-05
6.893876E+03	2.013969E-04	4.899777E-05
6.903824E+03	2.003105E-04	4.873436E-05
6.913772E+03	1.992501E-04	4.847722E-05
6.923720E+03	1.981968E-04	4.822183E-05
6.933668E+03	1.971323E-04	4.796370E-05
6.943615E+03	1.960939E-04	4.771190E-05
6.953563E+03	1.950447E-04	4.745745E-05
6.963511E+03	1.940215E-04	4.720934E-05
6.973459E+03	1.929879E-04	4.695867E-05
6.983407E+03	1.919625E-04	4.670998E-05
6.993355E+03	1.909630E-04	4.646761E-05
7.003303E+03	1.899538E-04	4.622285E-05
7.013251E+03	1.889709E-04	4.598446E-05
7.023198E+03	1.879783E-04	4.574373E-05
7.033146E+03	1.869943E-04	4.550507E-05
7.043094E+03	1.860189E-04	4.526850E-05
7.053042E+03	1.850521E-04	4.503400E-05
7.062990E+03	1.841115E-04	4.480588E-05
7.072938E+03	1.831622E-04	4.457561E-05
7.082886E+03	1.822217E-04	4.434750E-05
7.092834E+03	1.812903E-04	4.412156E-05
7.102781E+03	1.803677E-04	4.389778E-05
7.112729E+03	1.794541E-04	4.367618E-05
7.122677E+03	1.785497E-04	4.345679E-05
7.132625E+03	1.776543E-04	4.323959E-05
7.142573E+03	1.767512E-04	4.302053E-05
7.152521E+03	1.758743E-04	4.280780E-05
7.162469E+03	1.750065E-04	4.259729E-05
7.172417E+03	1.741479E-04	4.238904E-05
7.182364E+03	1.732822E-04	4.217900E-05
7.192312E+03	1.724422E-04	4.197524E-05
7.202260E+03	1.716116E-04	4.177375E-05
7.212208E+03	1.707739E-04	4.157054E-05
7.222156E+03	1.699620E-04	4.137359E-05
7.232104E+03	1.691433E-04	4.117495E-05
7.242052E+03	1.683500E-04	4.098252E-05
7.252000E+03	1.675502E-04	4.078848E-05
7.261947E+03	1.667598E-04	4.059671E-05
7.271895E+03	1.659946E-04	4.041110E-05
7.281843E+03	1.652231E-04	4.022392E-05
7.291791E+03	1.644609E-04	4.003901E-05
7.301739E+03	1.637082E-04	3.985640E-05
7.311687E+03	1.629649E-04	3.967607E-05
7.321635E+03	1.622309E-04	3.949801E-05
7.331583E+03	1.615064E-04	3.932223E-05
7.341530E+03	1.607912E-04	3.914872E-05
7.351478E+03	1.600853E-04	3.897748E-05
7.361426E+03	1.593887E-04	3.880848E-05
7.371374E+03	1.587015E-04	3.864175E-05
7.381322E+03	1.580234E-04	3.847725E-05
7.391270E+03	1.573394E-04	3.831129E-05
7.401218E+03	1.566797E-04	3.815127E-05
7.411165E+03	1.560293E-04	3.799347E-05
7.421113E+03	1.553729E-04	3.783422E-05
7.431061E+03	1.547406E-04	3.768083E-05
7.441009E+03	1.541024E-04	3.752600E-05
7.450957E+03	1.534882E-04	3.737700E-05
7.460905E+03	1.528681E-04	3.722656E-05
7.470853E+03	1.522569E-04	3.707830E-05
7.480801E+03	1.516695E-04	3.693581E-05
7.490748E+03	1.510762E-04	3.679186E-05
7.500696E+03	1.504917E-04	3.665008E-05
7.510644E+03	1.499160E-04	3.651041E-05
7.520592E+03	1.493490E-04	3.637287E-05
7.530540E+03	1.487907E-04	3.623744E-05
7.540488E+03	1.482411E-04	3.610412E-05
7.550436E+03	1.477000E-04	3.597286E-05
7.560384E+03	1.471675E-04	3.584368E-05
7.570331E+03	1.466290E-04	3.571305E-05
7.580279E+03	1.461133E-04	3.558797E-05
7.590227E+03	1.456060E-04	3.546492E-05
7.600175E+03	1.450926E-04	3.534040E-05
7.610123E+03	1.446018E-04	3.522136E-05
7.620071E+03	1.441051E-04	3.510086E-05
7.630019E+03	1.436165E-04	3.498234E-05
7.639967E+03	1.431500E-04	3.486921E-05
7.649914E+03	1.426775E-04	3.475461E-05
7.659862E+03	1.422129E-04	3.464193E-05
7.669810E+03	1.417562E-04	3.453117E-05
7.679758E+03	1.413074E-04	3.442232E-05
7.689706E+03	1.408664E-04	3.431537E-05
7.699654E+03	1.404330E-04	3.421026E-05
7.709602E+03	1.400073E-04	3.410703E-05
7.719550E+03	1.395891E-04	3.400562E-05
