#wls	flux	flux_err
3308.0600	3.1912e-16	4.0505e-18
3315.0600	3.2091e-16	4.0505e-18
3322.0600	3.2345e-16	4.0505e-18
3329.0600	3.2555e-16	4.0505e-18
3336.0600	3.2613e-16	5.9016e-18
3343.0600	3.2539e-16	7.2488e-18
3350.0600	3.2303e-16	6.8386e-18
3357.0600	3.1957e-16	5.1952e-18
3364.0600	3.1601e-16	3.7162e-18
3371.0600	3.1289e-16	6.9219e-18
3378.0600	3.1025e-16	9.3530e-18
3385.0600	3.0774e-16	1.1366e-17
3392.0600	3.0553e-16	1.1100e-17
3399.0600	3.0398e-16	9.3905e-18
3406.0600	3.0352e-16	1.0393e-17
3413.0600	3.0491e-16	1.1528e-17
3420.0600	3.0893e-16	1.3267e-17
3427.0600	3.1453e-16	1.2866e-17
3434.0600	3.2130e-16	1.0953e-17
3441.0600	3.2857e-16	8.3871e-18
3448.0600	3.3503e-16	8.3287e-18
3455.0600	3.4085e-16	8.0471e-18
3462.0600	3.4500e-16	7.9549e-18
3469.0600	3.4749e-16	7.2097e-18
3476.0600	3.4789e-16	7.0830e-18
3483.0600	3.4623e-16	7.1181e-18
3490.0600	3.4192e-16	7.4998e-18
3497.0600	3.3664e-16	7.8362e-18
3504.0600	3.3049e-16	7.6135e-18
3511.0600	3.2474e-16	6.2342e-18
3518.0600	3.2045e-16	4.6544e-18
3525.0600	3.1698e-16	4.0009e-18
3532.0600	3.1385e-16	4.0311e-18
3539.0600	3.1114e-16	2.7441e-18
3546.0600	3.0839e-16	2.6562e-18
3553.0600	3.0595e-16	2.7368e-18
3560.0600	3.0415e-16	3.7915e-18
3567.0600	3.0286e-16	4.1492e-18
3574.0600	3.0207e-16	4.1272e-18
3581.0600	3.0140e-16	4.1974e-18
3588.0600	3.0095e-16	5.7305e-18
3595.0600	3.0112e-16	8.1619e-18
3602.0600	3.0199e-16	9.0273e-18
3609.0600	3.0346e-16	7.8648e-18
3616.0600	3.0553e-16	6.5991e-18
3623.0600	3.0740e-16	7.0073e-18
3630.0600	3.0880e-16	1.0203e-17
3637.0600	3.0993e-16	1.1912e-17
3644.0600	3.1047e-16	1.0520e-17
3651.0600	3.1044e-16	8.2602e-18
3658.0600	3.0988e-16	8.0822e-18
3665.0600	3.0929e-16	1.0552e-17
3672.0600	3.0778e-16	1.1915e-17
3679.0600	3.0553e-16	1.0545e-17
3686.0600	3.0253e-16	7.5521e-18
3693.0600	2.9882e-16	6.1075e-18
3700.0600	2.9455e-16	6.6283e-18
3707.0600	2.9009e-16	6.7580e-18
3714.0600	2.8627e-16	5.2126e-18
3721.0600	2.8318e-16	2.8278e-18
3728.0600	2.8061e-16	1.9151e-18
3735.0600	2.7799e-16	1.5484e-18
3742.0600	2.7552e-16	1.7348e-18
3749.0600	2.7283e-16	1.3926e-18
3756.0600	2.6947e-16	1.7996e-18
3763.0600	2.6560e-16	1.9662e-18
3770.0600	2.6200e-16	3.0148e-18
3777.0600	2.5885e-16	3.8955e-18
3784.0600	2.5634e-16	4.8112e-18
3791.0600	2.5476e-16	3.9392e-18
3798.0600	2.5369e-16	3.6111e-18
3805.0600	2.5260e-16	6.1465e-18
3812.0600	2.5142e-16	7.5700e-18
3819.0600	2.4971e-16	8.1493e-18
3826.0600	2.4746e-16	7.6296e-18
3833.0600	2.4530e-16	5.5876e-18
3840.0600	2.4335e-16	6.0967e-18
3847.0600	2.4154e-16	8.0211e-18
3854.0600	2.3991e-16	8.6200e-18
3861.0600	2.3866e-16	7.9720e-18
3868.0600	2.3729e-16	6.2417e-18
3875.0600	2.3573e-16	4.6213e-18
3882.0600	2.3400e-16	6.1091e-18
3889.0600	2.3224e-16	7.9194e-18
3896.0600	2.3069e-16	7.7815e-18
3903.0600	2.3002e-16	6.3166e-18
3910.0600	2.3085e-16	5.5763e-18
3917.0600	2.3310e-16	6.9242e-18
3924.0600	2.3608e-16	8.2810e-18
3931.0600	2.3913e-16	8.5503e-18
3938.0600	2.4140e-16	6.7574e-18
3945.0600	2.4254e-16	6.3738e-18
3952.0600	2.4208e-16	9.0791e-18
3959.0600	2.4022e-16	1.0756e-17
3966.0600	2.3770e-16	1.0786e-17
3973.0600	2.3533e-16	9.1326e-18
3980.0600	2.3317e-16	8.6232e-18
3987.0600	2.3169e-16	1.1667e-17
3994.0600	2.3145e-16	1.3724e-17
4001.0600	2.3223e-16	1.3301e-17
4008.0600	2.3376e-16	1.0960e-17
4015.0600	2.3576e-16	7.9426e-18
4022.0600	2.3843e-16	9.5457e-18
4029.0600	2.4166e-16	1.1701e-17
4036.0600	2.4590e-16	1.1196e-17
4043.0600	2.5099e-16	8.8446e-18
4050.0600	2.5639e-16	5.2899e-18
4057.0600	2.6167e-16	4.9942e-18
4064.0600	2.6614e-16	6.1472e-18
4071.0600	2.6879e-16	5.7872e-18
4078.0600	2.6893e-16	4.1852e-18
4085.0600	2.6667e-16	3.1471e-18
4092.0600	2.6185e-16	3.2296e-18
4099.0600	2.5555e-16	3.2481e-18
4106.0600	2.4836e-16	3.7965e-18
4113.0600	2.4094e-16	3.9438e-18
4120.0600	2.3401e-16	4.3492e-18
4127.0600	2.2830e-16	4.1907e-18
4134.0600	2.2340e-16	3.3850e-18
4141.0600	2.1986e-16	3.1460e-18
4148.0600	2.1758e-16	3.1709e-18
4155.0600	2.1635e-16	3.1215e-18
4162.0600	2.1647e-16	2.5630e-18
4169.0600	2.1826e-16	1.9711e-18
4176.0600	2.2092e-16	1.6475e-18
4183.0600	2.2419e-16	1.4471e-18
4190.0600	2.2810e-16	1.4139e-18
4197.0600	2.3165e-16	1.3293e-18
4204.0600	2.3428e-16	1.9701e-18
4211.0600	2.3574e-16	1.9323e-18
4218.0600	2.3649e-16	1.4421e-18
4225.0600	2.3618e-16	1.4634e-18
4232.0600	2.3565e-16	2.5783e-18
4239.0600	2.3474e-16	3.8308e-18
4246.0600	2.3369e-16	4.0850e-18
4253.0600	2.3211e-16	3.3007e-18
4260.0600	2.3045e-16	2.6553e-18
4267.0600	2.2818e-16	3.1983e-18
4274.0600	2.2565e-16	4.4137e-18
4281.0600	2.2308e-16	4.6907e-18
4288.0600	2.2098e-16	3.7661e-18
4295.0600	2.1909e-16	3.0065e-18
4302.0600	2.1724e-16	3.3498e-18
4309.0600	2.1520e-16	3.6365e-18
4316.0600	2.1286e-16	3.7601e-18
4323.0600	2.0979e-16	2.9775e-18
4330.0600	2.0593e-16	2.6449e-18
4337.0600	2.0170e-16	3.7174e-18
4344.0600	1.9709e-16	3.8368e-18
4351.0600	1.9247e-16	3.4511e-18
4358.0600	1.8858e-16	4.2300e-18
4365.0600	1.8558e-16	4.6841e-18
4372.0600	1.8315e-16	5.2529e-18
4379.0600	1.8134e-16	5.0735e-18
4386.0600	1.8024e-16	3.9733e-18
4393.0600	1.7939e-16	4.8752e-18
4400.0600	1.7865e-16	5.7468e-18
4407.0600	1.7800e-16	5.7352e-18
4414.0600	1.7782e-16	5.3604e-18
4421.0600	1.7767e-16	4.1187e-18
4428.0600	1.7787e-16	4.1860e-18
4435.0600	1.7821e-16	4.9764e-18
4442.0600	1.7897e-16	4.7203e-18
4449.0600	1.7965e-16	4.1844e-18
4456.0600	1.8047e-16	3.3606e-18
4463.0600	1.8083e-16	1.9767e-18
4470.0600	1.8122e-16	2.1172e-18
4477.0600	1.8182e-16	1.8890e-18
4484.0600	1.8313e-16	1.2304e-18
4491.0600	1.8465e-16	1.0356e-18
4498.0600	1.8672e-16	5.5910e-19
4505.0600	1.8899e-16	7.7336e-19
4512.0600	1.9073e-16	7.9315e-19
4519.0600	1.9138e-16	1.1353e-18
4526.0600	1.9104e-16	1.4747e-18
4533.0600	1.8990e-16	1.6607e-18
4540.0600	1.8802e-16	1.5768e-18
4547.0600	1.8605e-16	2.4560e-18
4554.0600	1.8436e-16	3.7757e-18
4561.0600	1.8311e-16	4.5959e-18
4568.0600	1.8234e-16	5.1208e-18
4575.0600	1.8209e-16	4.5605e-18
4582.0600	1.8214e-16	3.5238e-18
4589.0600	1.8252e-16	4.9140e-18
4596.0600	1.8322e-16	6.4057e-18
4603.0600	1.8396e-16	6.6856e-18
4610.0600	1.8463e-16	6.1358e-18
4617.0600	1.8502e-16	4.2997e-18
4624.0600	1.8504e-16	3.1070e-18
4631.0600	1.8454e-16	4.2855e-18
4638.0600	1.8355e-16	5.0783e-18
4645.0600	1.8208e-16	4.5400e-18
4652.0600	1.8021e-16	3.5946e-18
4659.0600	1.7775e-16	2.5233e-18
4666.0600	1.7504e-16	1.7280e-18
4673.0600	1.7230e-16	2.1752e-18
4680.0600	1.6993e-16	2.6557e-18
4687.0600	1.6797e-16	2.3343e-18
4694.0600	1.6663e-16	2.0919e-18
4701.0600	1.6596e-16	1.8944e-18
4708.0600	1.6577e-16	1.2043e-18
4715.0600	1.6570e-16	1.4246e-18
4722.0600	1.6602e-16	2.4094e-18
4729.0600	1.6704e-16	2.8275e-18
4736.0600	1.6864e-16	2.9635e-18
4743.0600	1.7096e-16	2.7567e-18
4750.0600	1.7392e-16	2.1048e-18
4757.0600	1.7724e-16	1.4351e-18
4764.0600	1.8088e-16	2.8575e-18
4771.0600	1.8437e-16	3.6521e-18
4778.0600	1.8731e-16	4.3239e-18
4785.0600	1.8992e-16	4.5902e-18
4792.0600	1.9199e-16	3.8186e-18
4799.0600	1.9351e-16	3.2065e-18
4806.0600	1.9443e-16	3.9888e-18
4813.0600	1.9476e-16	5.3341e-18
4820.0600	1.9442e-16	5.7427e-18
4827.0600	1.9356e-16	5.0157e-18
4834.0600	1.9206e-16	3.1687e-18
4841.0600	1.9032e-16	2.8992e-18
4848.0600	1.8859e-16	4.1386e-18
4855.0600	1.8697e-16	4.5001e-18
4862.0600	1.8566e-16	3.8359e-18
4869.0600	1.8480e-16	2.7562e-18
4876.0600	1.8452e-16	2.5781e-18
4883.0600	1.8463e-16	2.6133e-18
4890.0600	1.8489e-16	2.8177e-18
4897.0600	1.8533e-16	2.2688e-18
4904.0600	1.8564e-16	1.7721e-18
4911.0600	1.8557e-16	1.3475e-18
4918.0600	1.8540e-16	1.4676e-18
4925.0600	1.8519e-16	1.4634e-18
4932.0600	1.8497e-16	1.2595e-18
4939.0600	1.8500e-16	1.0145e-18
4946.0600	1.8520e-16	5.4934e-19
4953.0600	1.8548e-16	5.9205e-19
4960.0600	1.8596e-16	5.5430e-19
4967.0600	1.8631e-16	4.3357e-19
4974.0600	1.8634e-16	3.7361e-19
4981.0600	1.8622e-16	4.5141e-19
4988.0600	1.8584e-16	5.4845e-19
4995.0600	1.8544e-16	5.2663e-19
5002.0600	1.8516e-16	4.2204e-19
5009.0600	1.8506e-16	4.3072e-19
5016.0600	1.8519e-16	7.2929e-19
5023.0600	1.8566e-16	1.1398e-18
5030.0600	1.8625e-16	1.1846e-18
5037.0600	1.8706e-16	1.0242e-18
5044.0600	1.8806e-16	9.2583e-19
5051.0600	1.8921e-16	1.1489e-18
5058.0600	1.9046e-16	1.5893e-18
5065.0600	1.9175e-16	1.6949e-18
5072.0600	1.9303e-16	1.3664e-18
5079.0600	1.9424e-16	1.0043e-18
5086.0600	1.9532e-16	8.9444e-19
5093.0600	1.9624e-16	9.9434e-19
5100.0600	1.9695e-16	1.0541e-18
5107.0600	1.9724e-16	7.7959e-19
5114.0600	1.9743e-16	4.0907e-19
5121.0600	1.9738e-16	1.8464e-19
5128.0600	1.9725e-16	2.8792e-19
5135.0600	1.9720e-16	4.8816e-19
5142.0600	1.9752e-16	6.3716e-19
5149.0600	1.9804e-16	6.3699e-19
5156.0600	1.9854e-16	6.1566e-19
5163.0600	1.9876e-16	1.0676e-18
5170.0600	1.9839e-16	1.8992e-18
5177.0600	1.9737e-16	2.8190e-18
5184.0600	1.9563e-16	2.6934e-18
5191.0600	1.9362e-16	2.3469e-18
5198.0600	1.9145e-16	2.1490e-18
5205.0600	1.8928e-16	3.1909e-18
5212.0600	1.8686e-16	4.6614e-18
5219.0600	1.8424e-16	4.8386e-18
5226.0600	1.8149e-16	3.9159e-18
5233.0600	1.7884e-16	3.6538e-18
5240.0600	1.7632e-16	4.2318e-18
5247.0600	1.7432e-16	5.1001e-18
5254.0600	1.7281e-16	5.2148e-18
5261.0600	1.7162e-16	4.1256e-18
5268.0600	1.7058e-16	3.5798e-18
5275.0600	1.6999e-16	3.8025e-18
5282.0600	1.6980e-16	3.8518e-18
5289.0600	1.7007e-16	3.4059e-18
5296.0600	1.7061e-16	2.5801e-18
5303.0600	1.7107e-16	1.7029e-18
5310.0600	1.7129e-16	1.7679e-18
5317.0600	1.7120e-16	1.7031e-18
5324.0600	1.7091e-16	1.0864e-18
5331.0600	1.7085e-16	1.3670e-18
5338.0600	1.7161e-16	1.7234e-18
5345.0600	1.7284e-16	1.7495e-18
5352.0600	1.7415e-16	1.8441e-18
5359.0600	1.7523e-16	2.0794e-18
5366.0600	1.7585e-16	1.9602e-18
5373.0600	1.7567e-16	2.0092e-18
5380.0600	1.7500e-16	2.6902e-18
5387.0600	1.7445e-16	2.7669e-18
5394.0600	1.7402e-16	2.8318e-18
5401.0600	1.7354e-16	2.9348e-18
5408.0600	1.7298e-16	3.9101e-18
5415.0600	1.7244e-16	4.3503e-18
5422.0600	1.7176e-16	4.3293e-18
5429.0600	1.7108e-16	3.6293e-18
5436.0600	1.7059e-16	3.2956e-18
5443.0600	1.7047e-16	3.8591e-18
5450.0600	1.7047e-16	4.0252e-18
5457.0600	1.7031e-16	3.0806e-18
5464.0600	1.6986e-16	2.1683e-18
5471.0600	1.6940e-16	1.9092e-18
5478.0600	1.6911e-16	2.2697e-18
5485.0600	1.6874e-16	2.4136e-18
5492.0600	1.6845e-16	1.4853e-18
5499.0600	1.6789e-16	1.3471e-18
5506.0600	1.6670e-16	1.3439e-18
5513.0600	1.6496e-16	1.3634e-18
5520.0600	1.6317e-16	1.3173e-18
5527.0600	1.6165e-16	1.0338e-18
5534.0600	1.6098e-16	1.0042e-18
5541.0600	1.6111e-16	1.2981e-18
5548.0600	1.6162e-16	1.6024e-18
5555.0600	1.6226e-16	1.6084e-18
5562.0600	1.6303e-16	1.3928e-18
5569.0600	1.6366e-16	1.9082e-18
5576.0600	1.6436e-16	2.9403e-18
5583.0600	1.6524e-16	3.6414e-18
5590.0600	1.6596e-16	3.3800e-18
5597.0600	1.6616e-16	2.5966e-18
5604.0600	1.6602e-16	3.0429e-18
5611.0600	1.6539e-16	3.4490e-18
5618.0600	1.6405e-16	3.4388e-18
5625.0600	1.6242e-16	3.0143e-18
5632.0600	1.6072e-16	1.8877e-18
5639.0600	1.5892e-16	1.8883e-18
5646.0600	1.5710e-16	1.8495e-18
5653.0600	1.5542e-16	1.9666e-18
5660.0600	1.5393e-16	1.6997e-18
5667.0600	1.5290e-16	1.7545e-18
5674.0600	1.5235e-16	1.7578e-18
5681.0600	1.5191e-16	2.1532e-18
5688.0600	1.5183e-16	2.5166e-18
5695.0600	1.5167e-16	2.3377e-18
5702.0600	1.5119e-16	1.6078e-18
5709.0600	1.5040e-16	1.3300e-18
5716.0600	1.4974e-16	1.4495e-18
5723.0600	1.4893e-16	1.7664e-18
5730.0600	1.4834e-16	1.7279e-18
5737.0600	1.4785e-16	1.1638e-18
5744.0600	1.4724e-16	1.0483e-18
5751.0600	1.4649e-16	1.0020e-18
5758.0600	1.4594e-16	1.2466e-18
5765.0600	1.4560e-16	1.6123e-18
5772.0600	1.4541e-16	1.6837e-18
5779.0600	1.4563e-16	1.5000e-18
5786.0600	1.4613e-16	1.0320e-18
5793.0600	1.4681e-16	1.0928e-18
5800.0600	1.4769e-16	1.2410e-18
5807.0600	1.4871e-16	1.1925e-18
5814.0600	1.4957e-16	9.2083e-19
5821.0600	1.5047e-16	3.9395e-19
5828.0600	1.5117e-16	3.6437e-19
5835.0600	1.5169e-16	7.7883e-19
5842.0600	1.5206e-16	1.1747e-18
5849.0600	1.5248e-16	1.0997e-18
5856.0600	1.5286e-16	1.0914e-18
5863.0600	1.5334e-16	1.1528e-18
5870.0600	1.5373e-16	1.5305e-18
5877.0600	1.5410e-16	1.6990e-18
5884.0600	1.5427e-16	1.6105e-18
5891.0600	1.5426e-16	1.3665e-18
5898.0600	1.5416e-16	1.4637e-18
5905.0600	1.5410e-16	1.5318e-18
5912.0600	1.5413e-16	1.5150e-18
5919.0600	1.5433e-16	1.3527e-18
5926.0600	1.5463e-16	1.1835e-18
5933.0600	1.5491e-16	1.2883e-18
5940.0600	1.5526e-16	1.2053e-18
5947.0600	1.5554e-16	9.4136e-19
5954.0600	1.5571e-16	1.4077e-18
5961.0600	1.5561e-16	1.7073e-18
5968.0600	1.5518e-16	1.6328e-18
5975.0600	1.5452e-16	1.4521e-18
5982.0600	1.5375e-16	1.3154e-18
5989.0600	1.5300e-16	1.7413e-18
5996.0600	1.5257e-16	2.0772e-18
6003.0600	1.5235e-16	2.1495e-18
6010.0600	1.5222e-16	1.9202e-18
6017.0600	1.5233e-16	1.4623e-18
6024.0600	1.5260e-16	1.3592e-18
6031.0600	1.5286e-16	1.7820e-18
6038.0600	1.5313e-16	2.1929e-18
6045.0600	1.5341e-16	2.4019e-18
6052.0600	1.5344e-16	2.0295e-18
6059.0600	1.5333e-16	1.2385e-18
6066.0600	1.5307e-16	1.1404e-18
6073.0600	1.5268e-16	1.2773e-18
6080.0600	1.5197e-16	1.6804e-18
6087.0600	1.5115e-16	2.1753e-18
6094.0600	1.5016e-16	2.1325e-18
6101.0600	1.4918e-16	1.6948e-18
6108.0600	1.4832e-16	1.3690e-18
6115.0600	1.4783e-16	1.5043e-18
6122.0600	1.4752e-16	2.0030e-18
6129.0600	1.4754e-16	2.2561e-18
6136.0600	1.4776e-16	2.0101e-18
6143.0600	1.4804e-16	1.3038e-18
6150.0600	1.4833e-16	9.9440e-19
6157.0600	1.4862e-16	6.8844e-19
6164.0600	1.4873e-16	6.4900e-19
6171.0600	1.4866e-16	8.7925e-19
6178.0600	1.4835e-16	1.0147e-18
6185.0600	1.4776e-16	1.2734e-18
6192.0600	1.4701e-16	1.2074e-18
6199.0600	1.4613e-16	9.7547e-19
6206.0600	1.4535e-16	1.0030e-18
6213.0600	1.4482e-16	8.6524e-19
6220.0600	1.4457e-16	9.2251e-19
6227.0600	1.4440e-16	9.2800e-19
6234.0600	1.4420e-16	6.2150e-19
6241.0600	1.4386e-16	5.4132e-19
6248.0600	1.4340e-16	4.5988e-19
6255.0600	1.4278e-16	6.9025e-19
6262.0600	1.4216e-16	6.6372e-19
6269.0600	1.4148e-16	9.0062e-19
6276.0600	1.4051e-16	1.2764e-18
6283.0600	1.3926e-16	1.4771e-18
6290.0600	1.3768e-16	1.5632e-18
6297.0600	1.3589e-16	1.3998e-18
6304.0600	1.3397e-16	1.5684e-18
6311.0600	1.3213e-16	1.8309e-18
6318.0600	1.3032e-16	1.8216e-18
6325.0600	1.2866e-16	1.6275e-18
6332.0600	1.2706e-16	1.7146e-18
6339.0600	1.2563e-16	1.8269e-18
6346.0600	1.2453e-16	1.8551e-18
6353.0600	1.2370e-16	1.5471e-18
6360.0600	1.2312e-16	1.1450e-18
6367.0600	1.2279e-16	1.2502e-18
6374.0600	1.2254e-16	1.3222e-18
6381.0600	1.2229e-16	1.0899e-18
6388.0600	1.2217e-16	6.0224e-19
6395.0600	1.2225e-16	4.8130e-19
6402.0600	1.2261e-16	5.1952e-19
6409.0600	1.2314e-16	6.0917e-19
6416.0600	1.2374e-16	6.7521e-19
6423.0600	1.2421e-16	5.3412e-19
6430.0600	1.2436e-16	4.7495e-19
6437.0600	1.2417e-16	5.7726e-19
6444.0600	1.2377e-16	6.9557e-19
6451.0600	1.2313e-16	7.7873e-19
6458.0600	1.2244e-16	7.4366e-19
6465.0600	1.2136e-16	5.2236e-19
6472.0600	1.1968e-16	6.0445e-19
6479.0600	1.1744e-16	6.1020e-19
6486.0600	1.1471e-16	7.6599e-19
6493.0600	1.1140e-16	9.5883e-19
6500.0600	1.0772e-16	1.0274e-18
6507.0600	1.0382e-16	1.0133e-18
6514.0600	9.9759e-17	1.1145e-18
6521.0600	9.5625e-17	1.6087e-18
6528.0600	9.1692e-17	2.0673e-18
6535.0600	8.8158e-17	1.9556e-18
6542.0600	8.5360e-17	1.6940e-18
6549.0600	8.3332e-17	1.4134e-18
6556.0600	8.2088e-17	1.1687e-18
6563.0600	8.1570e-17	1.2772e-18
6570.0600	8.1848e-17	1.0825e-18
6577.0600	8.2839e-17	3.0958e-19
6584.0600	8.4534e-17	5.6426e-19
6591.0600	8.6839e-17	8.2991e-19
6598.0600	8.9618e-17	7.8737e-19
6605.0600	9.2536e-17	7.1932e-19
6612.0600	9.5282e-17	7.6395e-19
6619.0600	9.7729e-17	6.9508e-19
6626.0600	1.0006e-16	6.4266e-19
6633.0600	1.0221e-16	6.3778e-19
6640.0600	1.0428e-16	7.7614e-19
6647.0600	1.0646e-16	9.1112e-19
6654.0600	1.0876e-16	1.0296e-18
6661.0600	1.1087e-16	1.1046e-18
6668.0600	1.1277e-16	1.0479e-18
6675.0600	1.1469e-16	1.2064e-18
6682.0600	1.1668e-16	1.8728e-18
6689.0600	1.1868e-16	2.0879e-18
6696.0600	1.2074e-16	1.9698e-18
6703.0600	1.2279e-16	1.7423e-18
6710.0600	1.2467e-16	1.5257e-18
6717.0600	1.2625e-16	1.7719e-18
6724.0600	1.2766e-16	1.8544e-18
6731.0600	1.2884e-16	1.3986e-18
6738.0600	1.2996e-16	1.0728e-18
6745.0600	1.3089e-16	1.0697e-18
6752.0600	1.3153e-16	1.0699e-18
6759.0600	1.3189e-16	1.0884e-18
6766.0600	1.3200e-16	8.1716e-19
6773.0600	1.3179e-16	5.4206e-19
6780.0600	1.3152e-16	5.3285e-19
6787.0600	1.3134e-16	3.9118e-19
6794.0600	1.3113e-16	4.1626e-19
6801.0600	1.3094e-16	5.3561e-19
6808.0600	1.3051e-16	9.3412e-19
6815.0600	1.2985e-16	9.4466e-19
6822.0600	1.2902e-16	9.0280e-19
6829.0600	1.2798e-16	1.0429e-18
6836.0600	1.2671e-16	1.6176e-18
6843.0600	1.2549e-16	2.1214e-18
6850.0600	1.2426e-16	2.0338e-18
6857.0600	1.2299e-16	1.8305e-18
6864.0600	1.2188e-16	2.0199e-18
6871.0600	1.2112e-16	2.7542e-18
6878.0600	1.2083e-16	2.9756e-18
6885.0600	1.2088e-16	2.6272e-18
6892.0600	1.2133e-16	1.8003e-18
6899.0600	1.2211e-16	1.8159e-18
6906.0600	1.2311e-16	2.3155e-18
6913.0600	1.2423e-16	2.4990e-18
6920.0600	1.2561e-16	2.0772e-18
6927.0600	1.2717e-16	1.4360e-18
6934.0600	1.2888e-16	1.0454e-18
6941.0600	1.3049e-16	1.2903e-18
6948.0600	1.3194e-16	1.5688e-18
6955.0600	1.3313e-16	1.4169e-18
6962.0600	1.3383e-16	1.2451e-18
6969.0600	1.3398e-16	8.7917e-19
6976.0600	1.3384e-16	8.2065e-19
6983.0600	1.3352e-16	8.2779e-19
6990.0600	1.3301e-16	8.8959e-19
6997.0600	1.3258e-16	8.8937e-19
7004.0600	1.3222e-16	9.0015e-19
7011.0600	1.3193e-16	9.3701e-19
7018.0600	1.3154e-16	8.9862e-19
7025.0600	1.3107e-16	8.0083e-19
7032.0600	1.3049e-16	9.6798e-19
7039.0600	1.2978e-16	8.6928e-19
7046.0600	1.2896e-16	5.5421e-19
7053.0600	1.2807e-16	4.4198e-19
7060.0600	1.2713e-16	4.6376e-19
7067.0600	1.2604e-16	6.3392e-19
7074.0600	1.2494e-16	8.4137e-19
7081.0600	1.2370e-16	6.8264e-19
7088.0600	1.2239e-16	6.1616e-19
7095.0600	1.2104e-16	6.4934e-19
7102.0600	1.1967e-16	6.6095e-19
7109.0600	1.1826e-16	6.9027e-19
7116.0600	1.1688e-16	7.2481e-19
7123.0600	1.1550e-16	5.9996e-19
7130.0600	1.1397e-16	5.9931e-19
7137.0600	1.1225e-16	7.9043e-19
7144.0600	1.1041e-16	8.6115e-19
7151.0600	1.0840e-16	9.6816e-19
7158.0600	1.0620e-16	9.7208e-19
7165.0600	1.0378e-16	8.9658e-19
7172.0600	1.0132e-16	1.0310e-18
7179.0600	9.8963e-17	1.2034e-18
7186.0600	9.6794e-17	1.2066e-18
7193.0600	9.4930e-17	1.1500e-18
7200.0600	9.3517e-17	7.5399e-19
7207.0600	9.2532e-17	3.5160e-19
7214.0600	9.1823e-17	4.3032e-19
7221.0600	9.1387e-17	8.0502e-19
7228.0600	9.1267e-17	1.0960e-18
7235.0600	9.1416e-17	1.4492e-18
7242.0600	9.1832e-17	1.3036e-18
7249.0600	9.2420e-17	1.1978e-18
7256.0600	9.3182e-17	1.2535e-18
7263.0600	9.4075e-17	1.4490e-18
7270.0600	9.5195e-17	1.8403e-18
7277.0600	9.6384e-17	1.9303e-18
7284.0600	9.7627e-17	1.3952e-18
7291.0600	9.8978e-17	1.0060e-18
7298.0600	1.0035e-16	1.0145e-18
7305.0600	1.0169e-16	1.3056e-18
7312.0600	1.0302e-16	1.8034e-18
7319.0600	1.0441e-16	1.7141e-18
7326.0600	1.0577e-16	1.2646e-18
7333.0600	1.0713e-16	1.2564e-18
7340.0600	1.0848e-16	1.6557e-18
7347.0600	1.0978e-16	1.8817e-18
7354.0600	1.1097e-16	1.9291e-18
7361.0600	1.1190e-16	1.4956e-18
7368.0600	1.1275e-16	9.5387e-19
7375.0600	1.1346e-16	1.0539e-18
7382.0600	1.1404e-16	1.1875e-18
7389.0600	1.1451e-16	1.0442e-18
7396.0600	1.1500e-16	8.2179e-19
7403.0600	1.1548e-16	5.1974e-19
7410.0600	1.1591e-16	3.3349e-19
7417.0600	1.1636e-16	6.2603e-19
7424.0600	1.1684e-16	6.6812e-19
7431.0600	1.1728e-16	6.6040e-19
7438.0600	1.1732e-16	6.8086e-19
7445.0600	1.1705e-16	6.3997e-19
7452.0600	1.1664e-16	7.8750e-19
7459.0600	1.1606e-16	8.9193e-19
7466.0600	1.1535e-16	8.6446e-19
7473.0600	1.1469e-16	8.1857e-19
7480.0600	1.1402e-16	7.0236e-19
7487.0600	1.1321e-16	5.6409e-19
7494.0600	1.1216e-16	6.9939e-19
7501.0600	1.1080e-16	6.8294e-19
7508.0600	1.0934e-16	6.2997e-19
7515.0600	1.0826e-16	6.8898e-19
7522.0600	1.0767e-16	1.0613e-18
7529.0600	1.0739e-16	1.1716e-18
7536.0600	1.0737e-16	1.2342e-18
7543.0600	1.0733e-16	1.3290e-18
7550.0600	1.0660e-16	1.5112e-18
7557.0600	1.0492e-16	2.9201e-18
7564.0600	1.0248e-16	4.6394e-18
7571.0600	9.9088e-17	5.5979e-18
7578.0600	9.4715e-17	5.3411e-18
7585.0600	8.9555e-17	5.0701e-18
7592.0600	8.3809e-17	5.7337e-18
7599.0600	7.7653e-17	7.1676e-18
7606.0600	7.1680e-17	8.2684e-18
7613.0600	6.6368e-17	7.6857e-18
7620.0600	6.2078e-17	5.6129e-18
7627.0600	5.9025e-17	4.1265e-18
7634.0600	5.7235e-17	4.2584e-18
7641.0600	5.6824e-17	4.7424e-18
7648.0600	5.7914e-17	4.7517e-18
7655.0600	6.0353e-17	3.4633e-18
7662.0600	6.3884e-17	1.6612e-18
7669.0600	6.8427e-17	1.2894e-18
