#wls	flux	fluxerr
1.600000E+03	2.837913E-17	0.000000E+00
1.640000E+03	2.850258E-17	0.000000E+00
1.680000E+03	2.862555E-17	0.000000E+00
1.720000E+03	2.874795E-17	0.000000E+00
1.760000E+03	2.886972E-17	0.000000E+00
1.800000E+03	2.899075E-17	0.000000E+00
1.840000E+03	2.911099E-17	0.000000E+00
1.880000E+03	2.923036E-17	0.000000E+00
1.920000E+03	2.934879E-17	0.000000E+00
1.960000E+03	2.946621E-17	0.000000E+00
2.000000E+03	2.958260E-17	0.000000E+00
2.040000E+03	2.969787E-17	0.000000E+00
2.080000E+03	2.981203E-17	0.000000E+00
2.120000E+03	2.992505E-17	0.000000E+00
2.160000E+03	3.003694E-17	0.000000E+00
2.200000E+03	3.014768E-17	0.000000E+00
2.240000E+03	3.025734E-17	0.000000E+00
2.280000E+03	3.036594E-17	0.000000E+00
2.320000E+03	3.047355E-17	0.000000E+00
2.360000E+03	3.058030E-17	0.000000E+00
2.400000E+03	3.068630E-17	0.000000E+00
2.440000E+03	3.079169E-17	0.000000E+00
2.480000E+03	3.089667E-17	0.000000E+00
2.520000E+03	3.100147E-17	0.000000E+00
2.560000E+03	3.110633E-17	0.000000E+00
2.600000E+03	3.121153E-17	0.000000E+00
2.640000E+03	3.131745E-17	0.000000E+00
2.680000E+03	3.142444E-17	0.000000E+00
2.720000E+03	3.153292E-17	0.000000E+00
2.760000E+03	3.164338E-17	0.000000E+00
2.800000E+03	3.175633E-17	0.000000E+00
2.840000E+03	3.187235E-17	0.000000E+00
2.880000E+03	3.199206E-17	0.000000E+00
2.920000E+03	3.211612E-17	0.000000E+00
2.960000E+03	3.224527E-17	0.000000E+00
3.000000E+03	3.238026E-17	0.000000E+00
3.010000E+03	3.241501E-17	0.000000E+00
3.020000E+03	3.245019E-17	0.000000E+00
3.030000E+03	3.248583E-17	0.000000E+00
3.040000E+03	3.252191E-17	0.000000E+00
3.050000E+03	3.255846E-17	0.000000E+00
3.060000E+03	3.259550E-17	0.000000E+00
3.070000E+03	3.263304E-17	0.000000E+00
3.080000E+03	3.267109E-17	0.000000E+00
3.090000E+03	3.270967E-17	0.000000E+00
3.100000E+03	3.274878E-17	0.000000E+00
3.110000E+03	3.278846E-17	0.000000E+00
3.120000E+03	3.282870E-17	0.000000E+00
3.130000E+03	3.286953E-17	0.000000E+00
3.140000E+03	3.291096E-17	0.000000E+00
3.150000E+03	3.295300E-17	0.000000E+00
3.160000E+03	3.299567E-17	0.000000E+00
3.170000E+03	3.303899E-17	0.000000E+00
3.180000E+03	3.308298E-17	0.000000E+00
3.190000E+03	3.312764E-17	0.000000E+00
3.200000E+03	3.317298E-17	0.000000E+00
3.210000E+03	3.321904E-17	0.000000E+00
3.220000E+03	3.326582E-17	0.000000E+00
3.230000E+03	3.331334E-17	0.000000E+00
3.240000E+03	3.336161E-17	0.000000E+00
3.250000E+03	3.341064E-17	0.000000E+00
3.260000E+03	3.346047E-17	0.000000E+00
3.270000E+03	3.351110E-17	0.000000E+00
3.280000E+03	3.356255E-17	0.000000E+00
3.290000E+03	3.361482E-17	0.000000E+00
3.300000E+03	3.366795E-17	0.000000E+00
3.310000E+03	3.372194E-17	0.000000E+00
3.320000E+03	3.377680E-17	0.000000E+00
3.330000E+03	3.383257E-17	0.000000E+00
3.340000E+03	3.388925E-17	0.000000E+00
3.350000E+03	3.394684E-17	0.000000E+00
3.360000E+03	3.400538E-17	0.000000E+00
3.370000E+03	3.406488E-17	0.000000E+00
3.380000E+03	3.412534E-17	0.000000E+00
3.390000E+03	3.418680E-17	0.000000E+00
3.400000E+03	3.424925E-17	0.000000E+00
3.410000E+03	3.431271E-17	0.000000E+00
3.420000E+03	3.437720E-17	0.000000E+00
3.430000E+03	3.444274E-17	0.000000E+00
3.440000E+03	3.450932E-17	0.000000E+00
3.450000E+03	3.457698E-17	0.000000E+00
3.460000E+03	3.464572E-17	0.000000E+00
3.470000E+03	3.471556E-17	0.000000E+00
3.480000E+03	3.478650E-17	0.000000E+00
3.490000E+03	3.485856E-17	0.000000E+00
3.500000E+03	3.493175E-17	0.000000E+00
3.510000E+03	3.500610E-17	0.000000E+00
3.520000E+03	3.508159E-17	0.000000E+00
3.530000E+03	3.515825E-17	0.000000E+00
3.540000E+03	3.523607E-17	0.000000E+00
3.550000E+03	3.531509E-17	0.000000E+00
3.560000E+03	3.539529E-17	0.000000E+00
3.570000E+03	3.547671E-17	0.000000E+00
3.580000E+03	3.555933E-17	0.000000E+00
3.590000E+03	3.564316E-17	0.000000E+00
3.600000E+03	3.572824E-17	0.000000E+00
3.610000E+03	3.581453E-17	0.000000E+00
3.620000E+03	3.590206E-17	0.000000E+00
3.630000E+03	3.599084E-17	0.000000E+00
3.640000E+03	3.608086E-17	0.000000E+00
3.650000E+03	3.617213E-17	0.000000E+00
3.660000E+03	3.626467E-17	0.000000E+00
3.670000E+03	3.635845E-17	0.000000E+00
3.680000E+03	3.645350E-17	0.000000E+00
3.690000E+03	3.654981E-17	0.000000E+00
3.700000E+03	3.664736E-17	0.000000E+00
3.710000E+03	3.674620E-17	0.000000E+00
3.720000E+03	3.684628E-17	0.000000E+00
3.730000E+03	3.694761E-17	0.000000E+00
3.740000E+03	3.705020E-17	0.000000E+00
3.750000E+03	3.715403E-17	0.000000E+00
3.760000E+03	3.725910E-17	0.000000E+00
3.770000E+03	3.736541E-17	0.000000E+00
3.780000E+03	3.747296E-17	0.000000E+00
3.790000E+03	3.758171E-17	0.000000E+00
3.800000E+03	3.769168E-17	0.000000E+00
3.810000E+03	3.780285E-17	0.000000E+00
3.820000E+03	3.791520E-17	0.000000E+00
3.830000E+03	3.802874E-17	0.000000E+00
3.840000E+03	3.814343E-17	0.000000E+00
3.850000E+03	3.825927E-17	0.000000E+00
3.860000E+03	3.837626E-17	0.000000E+00
3.870000E+03	3.849434E-17	0.000000E+00
3.880000E+03	3.861352E-17	0.000000E+00
3.890000E+03	3.873379E-17	0.000000E+00
3.900000E+03	3.885510E-17	0.000000E+00
3.910000E+03	3.897744E-17	0.000000E+00
3.920000E+03	3.910080E-17	0.000000E+00
3.930000E+03	3.922514E-17	0.000000E+00
3.940000E+03	3.935044E-17	0.000000E+00
3.950000E+03	3.947667E-17	0.000000E+00
3.960000E+03	3.960380E-17	0.000000E+00
3.970000E+03	3.973181E-17	0.000000E+00
3.980000E+03	3.986065E-17	0.000000E+00
3.990000E+03	3.999032E-17	0.000000E+00
4.000000E+03	4.012074E-17	0.000000E+00
4.010000E+03	4.025190E-17	0.000000E+00
4.020000E+03	4.038377E-17	0.000000E+00
4.030000E+03	4.051630E-17	0.000000E+00
4.040000E+03	4.064946E-17	0.000000E+00
4.050000E+03	4.078318E-17	0.000000E+00
4.060000E+03	4.091746E-17	0.000000E+00
4.070000E+03	4.105224E-17	0.000000E+00
4.080000E+03	4.118745E-17	0.000000E+00
4.090000E+03	4.132308E-17	0.000000E+00
4.100000E+03	4.145906E-17	0.000000E+00
4.110000E+03	4.159534E-17	0.000000E+00
4.120000E+03	4.173190E-17	0.000000E+00
4.130000E+03	4.186865E-17	0.000000E+00
4.140000E+03	4.200555E-17	0.000000E+00
4.150000E+03	4.214255E-17	0.000000E+00
4.160000E+03	4.227960E-17	0.000000E+00
4.170000E+03	4.241662E-17	0.000000E+00
4.180000E+03	4.255358E-17	0.000000E+00
4.190000E+03	4.269041E-17	0.000000E+00
4.200000E+03	4.282703E-17	0.000000E+00
4.210000E+03	4.296342E-17	0.000000E+00
4.220000E+03	4.309949E-17	0.000000E+00
4.230000E+03	4.323518E-17	0.000000E+00
4.240000E+03	4.337042E-17	0.000000E+00
4.250000E+03	4.350515E-17	0.000000E+00
4.260000E+03	4.363932E-17	0.000000E+00
4.270000E+03	4.377285E-17	0.000000E+00
4.280000E+03	4.390566E-17	0.000000E+00
4.290000E+03	4.403770E-17	0.000000E+00
4.300000E+03	4.416889E-17	0.000000E+00
4.310000E+03	4.429917E-17	0.000000E+00
4.320000E+03	4.442846E-17	0.000000E+00
4.330000E+03	4.455671E-17	0.000000E+00
4.340000E+03	4.468381E-17	0.000000E+00
4.350000E+03	4.480973E-17	0.000000E+00
4.360000E+03	4.493437E-17	0.000000E+00
4.370000E+03	4.505767E-17	0.000000E+00
4.380000E+03	4.517956E-17	0.000000E+00
4.390000E+03	4.529997E-17	0.000000E+00
4.400000E+03	4.541882E-17	0.000000E+00
4.410000E+03	4.553603E-17	0.000000E+00
4.420000E+03	4.565155E-17	0.000000E+00
4.430000E+03	4.576530E-17	0.000000E+00
4.440000E+03	4.587720E-17	0.000000E+00
4.450000E+03	4.598718E-17	0.000000E+00
4.460000E+03	4.609518E-17	0.000000E+00
4.470000E+03	4.620113E-17	0.000000E+00
4.480000E+03	4.630494E-17	0.000000E+00
4.490000E+03	4.640656E-17	0.000000E+00
4.500000E+03	4.650593E-17	0.000000E+00
4.510000E+03	4.660297E-17	0.000000E+00
4.520000E+03	4.669761E-17	0.000000E+00
4.530000E+03	4.678979E-17	0.000000E+00
4.540000E+03	4.687944E-17	0.000000E+00
4.550000E+03	4.696651E-17	0.000000E+00
4.560000E+03	4.705092E-17	0.000000E+00
4.570000E+03	4.713262E-17	0.000000E+00
4.580000E+03	4.721156E-17	0.000000E+00
4.590000E+03	4.728767E-17	0.000000E+00
4.600000E+03	4.736088E-17	0.000000E+00
4.610000E+03	4.743118E-17	0.000000E+00
4.620000E+03	4.749846E-17	0.000000E+00
4.630000E+03	4.756271E-17	0.000000E+00
4.640000E+03	4.762385E-17	0.000000E+00
4.650000E+03	4.768186E-17	0.000000E+00
4.660000E+03	4.773668E-17	0.000000E+00
4.670000E+03	4.778826E-17	0.000000E+00
4.680000E+03	4.783656E-17	0.000000E+00
4.690000E+03	4.788156E-17	0.000000E+00
4.700000E+03	4.792318E-17	0.000000E+00
4.710000E+03	4.796141E-17	0.000000E+00
4.720000E+03	4.799622E-17	0.000000E+00
4.730000E+03	4.802756E-17	0.000000E+00
4.740000E+03	4.805541E-17	0.000000E+00
4.750000E+03	4.807973E-17	0.000000E+00
4.760000E+03	4.810050E-17	0.000000E+00
4.770000E+03	4.811771E-17	0.000000E+00
4.780000E+03	4.813131E-17	0.000000E+00
4.790000E+03	4.814128E-17	0.000000E+00
4.800000E+03	4.814764E-17	0.000000E+00
4.810000E+03	4.815035E-17	0.000000E+00
4.820000E+03	4.814938E-17	0.000000E+00
4.830000E+03	4.814474E-17	0.000000E+00
4.840000E+03	4.813641E-17	0.000000E+00
4.850000E+03	4.812439E-17	0.000000E+00
4.860000E+03	4.810867E-17	0.000000E+00
4.870000E+03	4.808925E-17	0.000000E+00
4.880000E+03	4.806614E-17	0.000000E+00
4.890000E+03	4.803931E-17	0.000000E+00
4.900000E+03	4.800879E-17	0.000000E+00
4.910000E+03	4.797458E-17	0.000000E+00
4.920000E+03	4.793668E-17	0.000000E+00
4.930000E+03	4.789511E-17	0.000000E+00
4.940000E+03	4.784987E-17	0.000000E+00
4.950000E+03	4.780098E-17	0.000000E+00
4.960000E+03	4.774846E-17	0.000000E+00
4.970000E+03	4.769232E-17	0.000000E+00
4.980000E+03	4.763257E-17	0.000000E+00
4.990000E+03	4.756925E-17	0.000000E+00
5.000000E+03	4.750236E-17	0.000000E+00
5.010000E+03	4.743195E-17	0.000000E+00
5.020000E+03	4.735802E-17	0.000000E+00
5.030000E+03	4.728063E-17	0.000000E+00
5.040000E+03	4.719978E-17	0.000000E+00
5.050000E+03	4.711550E-17	0.000000E+00
5.060000E+03	4.702785E-17	0.000000E+00
5.070000E+03	4.693685E-17	0.000000E+00
5.080000E+03	4.684252E-17	0.000000E+00
5.090000E+03	4.674492E-17	0.000000E+00
5.100000E+03	4.664407E-17	0.000000E+00
5.110000E+03	4.654001E-17	0.000000E+00
5.120000E+03	4.643279E-17	0.000000E+00
5.130000E+03	4.632246E-17	0.000000E+00
5.140000E+03	4.620904E-17	0.000000E+00
5.150000E+03	4.609259E-17	0.000000E+00
5.160000E+03	4.597315E-17	0.000000E+00
5.170000E+03	4.585077E-17	0.000000E+00
5.180000E+03	4.572549E-17	0.000000E+00
5.190000E+03	4.559736E-17	0.000000E+00
5.200000E+03	4.546645E-17	0.000000E+00
5.210000E+03	4.533278E-17	0.000000E+00
5.220000E+03	4.519642E-17	0.000000E+00
5.230000E+03	4.505741E-17	0.000000E+00
5.240000E+03	4.491582E-17	0.000000E+00
5.250000E+03	4.477169E-17	0.000000E+00
5.260000E+03	4.462507E-17	0.000000E+00
5.270000E+03	4.447602E-17	0.000000E+00
5.280000E+03	4.432460E-17	0.000000E+00
5.290000E+03	4.417086E-17	0.000000E+00
5.300000E+03	4.401486E-17	0.000000E+00
5.310000E+03	4.385666E-17	0.000000E+00
5.320000E+03	4.369630E-17	0.000000E+00
5.330000E+03	4.353387E-17	0.000000E+00
5.340000E+03	4.336941E-17	0.000000E+00
5.350000E+03	4.320296E-17	0.000000E+00
5.360000E+03	4.303461E-17	0.000000E+00
5.370000E+03	4.286441E-17	0.000000E+00
5.380000E+03	4.269241E-17	0.000000E+00
5.390000E+03	4.251867E-17	0.000000E+00
5.400000E+03	4.234327E-17	0.000000E+00
5.410000E+03	4.216624E-17	0.000000E+00
5.420000E+03	4.198767E-17	0.000000E+00
5.430000E+03	4.180760E-17	0.000000E+00
5.440000E+03	4.162610E-17	0.000000E+00
5.450000E+03	4.144323E-17	0.000000E+00
5.460000E+03	4.125905E-17	0.000000E+00
5.470000E+03	4.107361E-17	0.000000E+00
5.480000E+03	4.088699E-17	0.000000E+00
5.490000E+03	4.069923E-17	0.000000E+00
5.500000E+03	4.051040E-17	0.000000E+00
5.510000E+03	4.032057E-17	0.000000E+00
5.520000E+03	4.012979E-17	0.000000E+00
5.530000E+03	3.993811E-17	0.000000E+00
5.540000E+03	3.974560E-17	0.000000E+00
5.550000E+03	3.955232E-17	0.000000E+00
5.560000E+03	3.935832E-17	0.000000E+00
5.570000E+03	3.916367E-17	0.000000E+00
5.580000E+03	3.896843E-17	0.000000E+00
5.590000E+03	3.877266E-17	0.000000E+00
5.600000E+03	3.857640E-17	0.000000E+00
5.610000E+03	3.837972E-17	0.000000E+00
5.620000E+03	3.818265E-17	0.000000E+00
5.630000E+03	3.798530E-17	0.000000E+00
5.640000E+03	3.778768E-17	0.000000E+00
5.650000E+03	3.758987E-17	0.000000E+00
5.660000E+03	3.739192E-17	0.000000E+00
5.670000E+03	3.719386E-17	0.000000E+00
5.680000E+03	3.699578E-17	0.000000E+00
5.690000E+03	3.679772E-17	0.000000E+00
5.700000E+03	3.659972E-17	0.000000E+00
5.710000E+03	3.640185E-17	0.000000E+00
5.720000E+03	3.620414E-17	0.000000E+00
5.730000E+03	3.600666E-17	0.000000E+00
5.740000E+03	3.580946E-17	0.000000E+00
5.750000E+03	3.561258E-17	0.000000E+00
5.760000E+03	3.541607E-17	0.000000E+00
5.770000E+03	3.521997E-17	0.000000E+00
5.780000E+03	3.502434E-17	0.000000E+00
5.790000E+03	3.482922E-17	0.000000E+00
5.800000E+03	3.463467E-17	0.000000E+00
5.810000E+03	3.444072E-17	0.000000E+00
5.820000E+03	3.424741E-17	0.000000E+00
5.830000E+03	3.405481E-17	0.000000E+00
5.840000E+03	3.386293E-17	0.000000E+00
5.850000E+03	3.367182E-17	0.000000E+00
5.860000E+03	3.348153E-17	0.000000E+00
5.870000E+03	3.329209E-17	0.000000E+00
5.880000E+03	3.310354E-17	0.000000E+00
5.890000E+03	3.291594E-17	0.000000E+00
5.900000E+03	3.272930E-17	0.000000E+00
5.910000E+03	3.254365E-17	0.000000E+00
5.920000E+03	3.235906E-17	0.000000E+00
5.930000E+03	3.217555E-17	0.000000E+00
5.940000E+03	3.199315E-17	0.000000E+00
5.950000E+03	3.181189E-17	0.000000E+00
5.960000E+03	3.163180E-17	0.000000E+00
5.970000E+03	3.145293E-17	0.000000E+00
5.980000E+03	3.127529E-17	0.000000E+00
5.990000E+03	3.109892E-17	0.000000E+00
6.000000E+03	3.092384E-17	0.000000E+00
6.010000E+03	3.075009E-17	0.000000E+00
6.020000E+03	3.057768E-17	0.000000E+00
6.030000E+03	3.040666E-17	0.000000E+00
6.040000E+03	3.023704E-17	0.000000E+00
6.050000E+03	3.006884E-17	0.000000E+00
6.060000E+03	2.990209E-17	0.000000E+00
6.070000E+03	2.973682E-17	0.000000E+00
6.080000E+03	2.957304E-17	0.000000E+00
6.090000E+03	2.941076E-17	0.000000E+00
6.100000E+03	2.925004E-17	0.000000E+00
6.110000E+03	2.909086E-17	0.000000E+00
6.120000E+03	2.893326E-17	0.000000E+00
6.130000E+03	2.877725E-17	0.000000E+00
6.140000E+03	2.862284E-17	0.000000E+00
6.150000E+03	2.847005E-17	0.000000E+00
6.160000E+03	2.831891E-17	0.000000E+00
6.170000E+03	2.816941E-17	0.000000E+00
6.180000E+03	2.802159E-17	0.000000E+00
6.190000E+03	2.787543E-17	0.000000E+00
6.200000E+03	2.773097E-17	0.000000E+00
6.210000E+03	2.758823E-17	0.000000E+00
6.220000E+03	2.744719E-17	0.000000E+00
6.230000E+03	2.730787E-17	0.000000E+00
6.240000E+03	2.717029E-17	0.000000E+00
6.250000E+03	2.703445E-17	0.000000E+00
6.260000E+03	2.690035E-17	0.000000E+00
6.270000E+03	2.676803E-17	0.000000E+00
6.280000E+03	2.663745E-17	0.000000E+00
6.290000E+03	2.650865E-17	0.000000E+00
6.300000E+03	2.638162E-17	0.000000E+00
6.310000E+03	2.625638E-17	0.000000E+00
6.320000E+03	2.613293E-17	0.000000E+00
6.330000E+03	2.601125E-17	0.000000E+00
6.340000E+03	2.589136E-17	0.000000E+00
6.350000E+03	2.577328E-17	0.000000E+00
6.360000E+03	2.565698E-17	0.000000E+00
6.370000E+03	2.554248E-17	0.000000E+00
6.380000E+03	2.542978E-17	0.000000E+00
6.390000E+03	2.531889E-17	0.000000E+00
6.400000E+03	2.520979E-17	0.000000E+00
6.410000E+03	2.510248E-17	0.000000E+00
6.420000E+03	2.499697E-17	0.000000E+00
6.430000E+03	2.489326E-17	0.000000E+00
6.440000E+03	2.479134E-17	0.000000E+00
6.450000E+03	2.469121E-17	0.000000E+00
6.460000E+03	2.459287E-17	0.000000E+00
6.470000E+03	2.449631E-17	0.000000E+00
6.480000E+03	2.440154E-17	0.000000E+00
6.490000E+03	2.430854E-17	0.000000E+00
6.500000E+03	2.421731E-17	0.000000E+00
6.510000E+03	2.412787E-17	0.000000E+00
6.520000E+03	2.404017E-17	0.000000E+00
6.530000E+03	2.395424E-17	0.000000E+00
6.540000E+03	2.387005E-17	0.000000E+00
6.550000E+03	2.378762E-17	0.000000E+00
6.560000E+03	2.370693E-17	0.000000E+00
6.570000E+03	2.362796E-17	0.000000E+00
6.580000E+03	2.355073E-17	0.000000E+00
6.590000E+03	2.347521E-17	0.000000E+00
6.600000E+03	2.340140E-17	0.000000E+00
6.610000E+03	2.332931E-17	0.000000E+00
6.620000E+03	2.325890E-17	0.000000E+00
6.630000E+03	2.319019E-17	0.000000E+00
6.640000E+03	2.312314E-17	0.000000E+00
6.650000E+03	2.305778E-17	0.000000E+00
6.660000E+03	2.299408E-17	0.000000E+00
6.670000E+03	2.293202E-17	0.000000E+00
6.680000E+03	2.287162E-17	0.000000E+00
6.690000E+03	2.281285E-17	0.000000E+00
6.700000E+03	2.275570E-17	0.000000E+00
6.710000E+03	2.270016E-17	0.000000E+00
6.720000E+03	2.264623E-17	0.000000E+00
6.730000E+03	2.259389E-17	0.000000E+00
6.740000E+03	2.254314E-17	0.000000E+00
6.750000E+03	2.249396E-17	0.000000E+00
6.760000E+03	2.244634E-17	0.000000E+00
6.770000E+03	2.240028E-17	0.000000E+00
6.780000E+03	2.235576E-17	0.000000E+00
6.790000E+03	2.231275E-17	0.000000E+00
6.800000E+03	2.227129E-17	0.000000E+00
6.810000E+03	2.223131E-17	0.000000E+00
6.820000E+03	2.219284E-17	0.000000E+00
6.830000E+03	2.215584E-17	0.000000E+00
6.840000E+03	2.212033E-17	0.000000E+00
6.850000E+03	2.208627E-17	0.000000E+00
6.860000E+03	2.205366E-17	0.000000E+00
6.870000E+03	2.202249E-17	0.000000E+00
6.880000E+03	2.199274E-17	0.000000E+00
6.890000E+03	2.196441E-17	0.000000E+00
6.900000E+03	2.193747E-17	0.000000E+00
6.910000E+03	2.191192E-17	0.000000E+00
6.920000E+03	2.188775E-17	0.000000E+00
6.930000E+03	2.186495E-17	0.000000E+00
6.940000E+03	2.184349E-17	0.000000E+00
6.950000E+03	2.182337E-17	0.000000E+00
6.960000E+03	2.180457E-17	0.000000E+00
6.970000E+03	2.178709E-17	0.000000E+00
6.980000E+03	2.177091E-17	0.000000E+00
6.990000E+03	2.175602E-17	0.000000E+00
7.000000E+03	2.174239E-17	0.000000E+00
7.010000E+03	2.173003E-17	0.000000E+00
7.020000E+03	2.171892E-17	0.000000E+00
7.030000E+03	2.170906E-17	0.000000E+00
7.040000E+03	2.170040E-17	0.000000E+00
7.050000E+03	2.169296E-17	0.000000E+00
7.060000E+03	2.168672E-17	0.000000E+00
7.070000E+03	2.168166E-17	0.000000E+00
7.080000E+03	2.167778E-17	0.000000E+00
7.090000E+03	2.167505E-17	0.000000E+00
7.100000E+03	2.167348E-17	0.000000E+00
7.110000E+03	2.167301E-17	0.000000E+00
7.120000E+03	2.167369E-17	0.000000E+00
7.130000E+03	2.167547E-17	0.000000E+00
7.140000E+03	2.167834E-17	0.000000E+00
7.150000E+03	2.168229E-17	0.000000E+00
7.160000E+03	2.168732E-17	0.000000E+00
7.170000E+03	2.169340E-17	0.000000E+00
7.180000E+03	2.170051E-17	0.000000E+00
7.190000E+03	2.170865E-17	0.000000E+00
7.200000E+03	2.171783E-17	0.000000E+00
7.210000E+03	2.172800E-17	0.000000E+00
7.220000E+03	2.173915E-17	0.000000E+00
7.230000E+03	2.175130E-17	0.000000E+00
7.240000E+03	2.176439E-17	0.000000E+00
7.250000E+03	2.177846E-17	0.000000E+00
7.260000E+03	2.179345E-17	0.000000E+00
7.270000E+03	2.180938E-17	0.000000E+00
7.280000E+03	2.182623E-17	0.000000E+00
7.290000E+03	2.184396E-17	0.000000E+00
7.300000E+03	2.186261E-17	0.000000E+00
7.310000E+03	2.188212E-17	0.000000E+00
7.320000E+03	2.190251E-17	0.000000E+00
7.330000E+03	2.192373E-17	0.000000E+00
7.340000E+03	2.194581E-17	0.000000E+00
7.350000E+03	2.196871E-17	0.000000E+00
7.360000E+03	2.199244E-17	0.000000E+00
7.370000E+03	2.201697E-17	0.000000E+00
7.380000E+03	2.204229E-17	0.000000E+00
7.390000E+03	2.206840E-17	0.000000E+00
7.400000E+03	2.209527E-17	0.000000E+00
7.410000E+03	2.212289E-17	0.000000E+00
7.420000E+03	2.215127E-17	0.000000E+00
7.430000E+03	2.218038E-17	0.000000E+00
7.440000E+03	2.221021E-17	0.000000E+00
7.450000E+03	2.224076E-17	0.000000E+00
7.460000E+03	2.227200E-17	0.000000E+00
7.470000E+03	2.230394E-17	0.000000E+00
7.480000E+03	2.233655E-17	0.000000E+00
7.490000E+03	2.236982E-17	0.000000E+00
7.500000E+03	2.240375E-17	0.000000E+00
7.510000E+03	2.243833E-17	0.000000E+00
7.520000E+03	2.247353E-17	0.000000E+00
7.530000E+03	2.250937E-17	0.000000E+00
7.540000E+03	2.254580E-17	0.000000E+00
7.550000E+03	2.258284E-17	0.000000E+00
7.560000E+03	2.262047E-17	0.000000E+00
7.570000E+03	2.265868E-17	0.000000E+00
7.580000E+03	2.269746E-17	0.000000E+00
7.590000E+03	2.273678E-17	0.000000E+00
7.600000E+03	2.277667E-17	0.000000E+00
7.610000E+03	2.281708E-17	0.000000E+00
7.620000E+03	2.285803E-17	0.000000E+00
7.630000E+03	2.289948E-17	0.000000E+00
7.640000E+03	2.294145E-17	0.000000E+00
7.650000E+03	2.298391E-17	0.000000E+00
7.660000E+03	2.302686E-17	0.000000E+00
7.670000E+03	2.307029E-17	0.000000E+00
7.680000E+03	2.311418E-17	0.000000E+00
7.690000E+03	2.315853E-17	0.000000E+00
7.700000E+03	2.320333E-17	0.000000E+00
7.710000E+03	2.324857E-17	0.000000E+00
7.720000E+03	2.329423E-17	0.000000E+00
7.730000E+03	2.334031E-17	0.000000E+00
7.740000E+03	2.338680E-17	0.000000E+00
7.750000E+03	2.343370E-17	0.000000E+00
7.760000E+03	2.348100E-17	0.000000E+00
