#wls	flux	fluxerr
1.600000E+03	-1.552818E-16	-0.000000E+00
1.640000E+03	-1.559402E-16	-0.000000E+00
1.680000E+03	-1.565931E-16	-0.000000E+00
1.720000E+03	-1.572397E-16	-0.000000E+00
1.760000E+03	-1.578793E-16	-0.000000E+00
1.800000E+03	-1.585112E-16	-0.000000E+00
1.840000E+03	-1.591347E-16	-0.000000E+00
1.880000E+03	-1.597492E-16	-0.000000E+00
1.920000E+03	-1.603539E-16	-0.000000E+00
1.960000E+03	-1.609483E-16	-0.000000E+00
2.000000E+03	-1.615317E-16	-0.000000E+00
2.040000E+03	-1.621035E-16	-0.000000E+00
2.080000E+03	-1.626633E-16	-0.000000E+00
2.120000E+03	-1.632108E-16	-0.000000E+00
2.160000E+03	-1.637452E-16	-0.000000E+00
2.200000E+03	-1.642666E-16	-0.000000E+00
2.240000E+03	-1.647747E-16	-0.000000E+00
2.280000E+03	-1.652692E-16	-0.000000E+00
2.320000E+03	-1.657505E-16	-0.000000E+00
2.360000E+03	-1.662185E-16	-0.000000E+00
2.400000E+03	-1.666738E-16	-0.000000E+00
2.440000E+03	-1.671166E-16	-0.000000E+00
2.480000E+03	-1.675478E-16	-0.000000E+00
2.520000E+03	-1.679683E-16	-0.000000E+00
2.560000E+03	-1.683793E-16	-0.000000E+00
2.600000E+03	-1.687821E-16	-0.000000E+00
2.640000E+03	-1.691784E-16	-0.000000E+00
2.680000E+03	-1.695701E-16	-0.000000E+00
2.720000E+03	-1.699596E-16	-0.000000E+00
2.760000E+03	-1.703495E-16	-0.000000E+00
2.800000E+03	-1.707425E-16	-0.000000E+00
2.840000E+03	-1.711422E-16	-0.000000E+00
2.880000E+03	-1.715520E-16	-0.000000E+00
2.920000E+03	-1.719763E-16	-0.000000E+00
2.960000E+03	-1.724191E-16	-0.000000E+00
3.000000E+03	-1.728856E-16	-0.000000E+00
3.010000E+03	-1.730065E-16	-0.000000E+00
3.020000E+03	-1.731293E-16	-0.000000E+00
3.030000E+03	-1.732541E-16	-0.000000E+00
3.040000E+03	-1.733810E-16	-0.000000E+00
3.050000E+03	-1.735100E-16	-0.000000E+00
3.060000E+03	-1.736412E-16	-0.000000E+00
3.070000E+03	-1.737747E-16	-0.000000E+00
3.080000E+03	-1.739107E-16	-0.000000E+00
3.090000E+03	-1.740492E-16	-0.000000E+00
3.100000E+03	-1.741903E-16	-0.000000E+00
3.110000E+03	-1.743342E-16	-0.000000E+00
3.120000E+03	-1.744808E-16	-0.000000E+00
3.130000E+03	-1.746305E-16	-0.000000E+00
3.140000E+03	-1.747831E-16	-0.000000E+00
3.150000E+03	-1.749388E-16	-0.000000E+00
3.160000E+03	-1.750978E-16	-0.000000E+00
3.170000E+03	-1.752601E-16	-0.000000E+00
3.180000E+03	-1.754259E-16	-0.000000E+00
3.190000E+03	-1.755952E-16	-0.000000E+00
3.200000E+03	-1.757682E-16	-0.000000E+00
3.210000E+03	-1.759450E-16	-0.000000E+00
3.220000E+03	-1.761256E-16	-0.000000E+00
3.230000E+03	-1.763103E-16	-0.000000E+00
3.240000E+03	-1.764990E-16	-0.000000E+00
3.250000E+03	-1.766920E-16	-0.000000E+00
3.260000E+03	-1.768893E-16	-0.000000E+00
3.270000E+03	-1.770910E-16	-0.000000E+00
3.280000E+03	-1.772974E-16	-0.000000E+00
3.290000E+03	-1.775084E-16	-0.000000E+00
3.300000E+03	-1.777242E-16	-0.000000E+00
3.310000E+03	-1.779449E-16	-0.000000E+00
3.320000E+03	-1.781707E-16	-0.000000E+00
3.330000E+03	-1.784016E-16	-0.000000E+00
3.340000E+03	-1.786378E-16	-0.000000E+00
3.350000E+03	-1.788794E-16	-0.000000E+00
3.360000E+03	-1.791265E-16	-0.000000E+00
3.370000E+03	-1.793791E-16	-0.000000E+00
3.380000E+03	-1.796376E-16	-0.000000E+00
3.390000E+03	-1.799019E-16	-0.000000E+00
3.400000E+03	-1.801722E-16	-0.000000E+00
3.410000E+03	-1.804485E-16	-0.000000E+00
3.420000E+03	-1.807311E-16	-0.000000E+00
3.430000E+03	-1.810200E-16	-0.000000E+00
3.440000E+03	-1.813153E-16	-0.000000E+00
3.450000E+03	-1.816172E-16	-0.000000E+00
3.460000E+03	-1.819257E-16	-0.000000E+00
3.470000E+03	-1.822410E-16	-0.000000E+00
3.480000E+03	-1.825631E-16	-0.000000E+00
3.490000E+03	-1.828922E-16	-0.000000E+00
3.500000E+03	-1.832285E-16	-0.000000E+00
3.510000E+03	-1.835720E-16	-0.000000E+00
3.520000E+03	-1.839227E-16	-0.000000E+00
3.530000E+03	-1.842808E-16	-0.000000E+00
3.540000E+03	-1.846464E-16	-0.000000E+00
3.550000E+03	-1.850196E-16	-0.000000E+00
3.560000E+03	-1.854005E-16	-0.000000E+00
3.570000E+03	-1.857891E-16	-0.000000E+00
3.580000E+03	-1.861856E-16	-0.000000E+00
3.590000E+03	-1.865901E-16	-0.000000E+00
3.600000E+03	-1.870027E-16	-0.000000E+00
3.610000E+03	-1.874233E-16	-0.000000E+00
3.620000E+03	-1.878521E-16	-0.000000E+00
3.630000E+03	-1.882891E-16	-0.000000E+00
3.640000E+03	-1.887345E-16	-0.000000E+00
3.650000E+03	-1.891883E-16	-0.000000E+00
3.660000E+03	-1.896505E-16	-0.000000E+00
3.670000E+03	-1.901213E-16	-0.000000E+00
3.680000E+03	-1.906006E-16	-0.000000E+00
3.690000E+03	-1.910885E-16	-0.000000E+00
3.700000E+03	-1.915850E-16	-0.000000E+00
3.710000E+03	-1.920903E-16	-0.000000E+00
3.720000E+03	-1.926042E-16	-0.000000E+00
3.730000E+03	-1.931269E-16	-0.000000E+00
3.740000E+03	-1.936584E-16	-0.000000E+00
3.750000E+03	-1.941987E-16	-0.000000E+00
3.760000E+03	-1.947478E-16	-0.000000E+00
3.770000E+03	-1.953057E-16	-0.000000E+00
3.780000E+03	-1.958723E-16	-0.000000E+00
3.790000E+03	-1.964478E-16	-0.000000E+00
3.800000E+03	-1.970320E-16	-0.000000E+00
3.810000E+03	-1.976250E-16	-0.000000E+00
3.820000E+03	-1.982268E-16	-0.000000E+00
3.830000E+03	-1.988372E-16	-0.000000E+00
3.840000E+03	-1.994562E-16	-0.000000E+00
3.850000E+03	-2.000839E-16	-0.000000E+00
3.860000E+03	-2.007200E-16	-0.000000E+00
3.870000E+03	-2.013647E-16	-0.000000E+00
3.880000E+03	-2.020178E-16	-0.000000E+00
3.890000E+03	-2.026791E-16	-0.000000E+00
3.900000E+03	-2.033487E-16	-0.000000E+00
3.910000E+03	-2.040265E-16	-0.000000E+00
3.920000E+03	-2.047123E-16	-0.000000E+00
3.930000E+03	-2.054059E-16	-0.000000E+00
3.940000E+03	-2.061074E-16	-0.000000E+00
3.950000E+03	-2.068164E-16	-0.000000E+00
3.960000E+03	-2.075330E-16	-0.000000E+00
3.970000E+03	-2.082570E-16	-0.000000E+00
3.980000E+03	-2.089881E-16	-0.000000E+00
3.990000E+03	-2.097263E-16	-0.000000E+00
4.000000E+03	-2.104713E-16	-0.000000E+00
4.010000E+03	-2.112229E-16	-0.000000E+00
4.020000E+03	-2.119810E-16	-0.000000E+00
4.030000E+03	-2.127453E-16	-0.000000E+00
4.040000E+03	-2.135156E-16	-0.000000E+00
4.050000E+03	-2.142917E-16	-0.000000E+00
4.060000E+03	-2.150734E-16	-0.000000E+00
4.070000E+03	-2.158603E-16	-0.000000E+00
4.080000E+03	-2.166522E-16	-0.000000E+00
4.090000E+03	-2.174490E-16	-0.000000E+00
4.100000E+03	-2.182501E-16	-0.000000E+00
4.110000E+03	-2.190555E-16	-0.000000E+00
4.120000E+03	-2.198648E-16	-0.000000E+00
4.130000E+03	-2.206776E-16	-0.000000E+00
4.140000E+03	-2.214937E-16	-0.000000E+00
4.150000E+03	-2.223127E-16	-0.000000E+00
4.160000E+03	-2.231343E-16	-0.000000E+00
4.170000E+03	-2.239582E-16	-0.000000E+00
4.180000E+03	-2.247839E-16	-0.000000E+00
4.190000E+03	-2.256111E-16	-0.000000E+00
4.200000E+03	-2.264394E-16	-0.000000E+00
4.210000E+03	-2.272685E-16	-0.000000E+00
4.220000E+03	-2.280979E-16	-0.000000E+00
4.230000E+03	-2.289273E-16	-0.000000E+00
4.240000E+03	-2.297562E-16	-0.000000E+00
4.250000E+03	-2.305843E-16	-0.000000E+00
4.260000E+03	-2.314110E-16	-0.000000E+00
4.270000E+03	-2.322360E-16	-0.000000E+00
4.280000E+03	-2.330588E-16	-0.000000E+00
4.290000E+03	-2.338790E-16	-0.000000E+00
4.300000E+03	-2.346961E-16	-0.000000E+00
4.310000E+03	-2.355096E-16	-0.000000E+00
4.320000E+03	-2.363191E-16	-0.000000E+00
4.330000E+03	-2.371243E-16	-0.000000E+00
4.340000E+03	-2.379244E-16	-0.000000E+00
4.350000E+03	-2.387191E-16	-0.000000E+00
4.360000E+03	-2.395079E-16	-0.000000E+00
4.370000E+03	-2.402904E-16	-0.000000E+00
4.380000E+03	-2.410660E-16	-0.000000E+00
4.390000E+03	-2.418342E-16	-0.000000E+00
4.400000E+03	-2.425947E-16	-0.000000E+00
4.410000E+03	-2.433468E-16	-0.000000E+00
4.420000E+03	-2.440901E-16	-0.000000E+00
4.430000E+03	-2.448242E-16	-0.000000E+00
4.440000E+03	-2.455484E-16	-0.000000E+00
4.450000E+03	-2.462624E-16	-0.000000E+00
4.460000E+03	-2.469656E-16	-0.000000E+00
4.470000E+03	-2.476577E-16	-0.000000E+00
4.480000E+03	-2.483380E-16	-0.000000E+00
4.490000E+03	-2.490062E-16	-0.000000E+00
4.500000E+03	-2.496617E-16	-0.000000E+00
4.510000E+03	-2.503042E-16	-0.000000E+00
4.520000E+03	-2.509331E-16	-0.000000E+00
4.530000E+03	-2.515480E-16	-0.000000E+00
4.540000E+03	-2.521486E-16	-0.000000E+00
4.550000E+03	-2.527342E-16	-0.000000E+00
4.560000E+03	-2.533046E-16	-0.000000E+00
4.570000E+03	-2.538593E-16	-0.000000E+00
4.580000E+03	-2.543979E-16	-0.000000E+00
4.590000E+03	-2.549200E-16	-0.000000E+00
4.600000E+03	-2.554252E-16	-0.000000E+00
4.610000E+03	-2.559132E-16	-0.000000E+00
4.620000E+03	-2.563835E-16	-0.000000E+00
4.630000E+03	-2.568359E-16	-0.000000E+00
4.640000E+03	-2.572699E-16	-0.000000E+00
4.650000E+03	-2.576854E-16	-0.000000E+00
4.660000E+03	-2.580818E-16	-0.000000E+00
4.670000E+03	-2.584591E-16	-0.000000E+00
4.680000E+03	-2.588168E-16	-0.000000E+00
4.690000E+03	-2.591547E-16	-0.000000E+00
4.700000E+03	-2.594726E-16	-0.000000E+00
4.710000E+03	-2.597701E-16	-0.000000E+00
4.720000E+03	-2.600471E-16	-0.000000E+00
4.730000E+03	-2.603033E-16	-0.000000E+00
4.740000E+03	-2.605387E-16	-0.000000E+00
4.750000E+03	-2.607528E-16	-0.000000E+00
4.760000E+03	-2.609457E-16	-0.000000E+00
4.770000E+03	-2.611171E-16	-0.000000E+00
4.780000E+03	-2.612669E-16	-0.000000E+00
4.790000E+03	-2.613950E-16	-0.000000E+00
4.800000E+03	-2.615012E-16	-0.000000E+00
4.810000E+03	-2.615855E-16	-0.000000E+00
4.820000E+03	-2.616478E-16	-0.000000E+00
4.830000E+03	-2.616880E-16	-0.000000E+00
4.840000E+03	-2.617061E-16	-0.000000E+00
4.850000E+03	-2.617021E-16	-0.000000E+00
4.860000E+03	-2.616758E-16	-0.000000E+00
4.870000E+03	-2.616274E-16	-0.000000E+00
4.880000E+03	-2.615568E-16	-0.000000E+00
4.890000E+03	-2.614640E-16	-0.000000E+00
4.900000E+03	-2.613490E-16	-0.000000E+00
4.910000E+03	-2.612120E-16	-0.000000E+00
4.920000E+03	-2.610529E-16	-0.000000E+00
4.930000E+03	-2.608719E-16	-0.000000E+00
4.940000E+03	-2.606691E-16	-0.000000E+00
4.950000E+03	-2.604444E-16	-0.000000E+00
4.960000E+03	-2.601981E-16	-0.000000E+00
4.970000E+03	-2.599303E-16	-0.000000E+00
4.980000E+03	-2.596410E-16	-0.000000E+00
4.990000E+03	-2.593305E-16	-0.000000E+00
5.000000E+03	-2.589988E-16	-0.000000E+00
5.010000E+03	-2.586462E-16	-0.000000E+00
5.020000E+03	-2.582727E-16	-0.000000E+00
5.030000E+03	-2.578787E-16	-0.000000E+00
5.040000E+03	-2.574643E-16	-0.000000E+00
5.050000E+03	-2.570295E-16	-0.000000E+00
5.060000E+03	-2.565749E-16	-0.000000E+00
5.070000E+03	-2.561004E-16	-0.000000E+00
5.080000E+03	-2.556063E-16	-0.000000E+00
5.090000E+03	-2.550929E-16	-0.000000E+00
5.100000E+03	-2.545603E-16	-0.000000E+00
5.110000E+03	-2.540089E-16	-0.000000E+00
5.120000E+03	-2.534389E-16	-0.000000E+00
5.130000E+03	-2.528506E-16	-0.000000E+00
5.140000E+03	-2.522441E-16	-0.000000E+00
5.150000E+03	-2.516198E-16	-0.000000E+00
5.160000E+03	-2.509780E-16	-0.000000E+00
5.170000E+03	-2.503189E-16	-0.000000E+00
5.180000E+03	-2.496427E-16	-0.000000E+00
5.190000E+03	-2.489499E-16	-0.000000E+00
5.200000E+03	-2.482407E-16	-0.000000E+00
5.210000E+03	-2.475154E-16	-0.000000E+00
5.220000E+03	-2.467743E-16	-0.000000E+00
5.230000E+03	-2.460177E-16	-0.000000E+00
5.240000E+03	-2.452459E-16	-0.000000E+00
5.250000E+03	-2.444592E-16	-0.000000E+00
5.260000E+03	-2.436580E-16	-0.000000E+00
5.270000E+03	-2.428426E-16	-0.000000E+00
5.280000E+03	-2.420132E-16	-0.000000E+00
5.290000E+03	-2.411702E-16	-0.000000E+00
5.300000E+03	-2.403140E-16	-0.000000E+00
5.310000E+03	-2.394448E-16	-0.000000E+00
5.320000E+03	-2.385630E-16	-0.000000E+00
5.330000E+03	-2.376690E-16	-0.000000E+00
5.340000E+03	-2.367630E-16	-0.000000E+00
5.350000E+03	-2.358454E-16	-0.000000E+00
5.360000E+03	-2.349167E-16	-0.000000E+00
5.370000E+03	-2.339770E-16	-0.000000E+00
5.380000E+03	-2.330267E-16	-0.000000E+00
5.390000E+03	-2.320662E-16	-0.000000E+00
5.400000E+03	-2.310957E-16	-0.000000E+00
5.410000E+03	-2.301158E-16	-0.000000E+00
5.420000E+03	-2.291266E-16	-0.000000E+00
5.430000E+03	-2.281287E-16	-0.000000E+00
5.440000E+03	-2.271222E-16	-0.000000E+00
5.450000E+03	-2.261076E-16	-0.000000E+00
5.460000E+03	-2.250851E-16	-0.000000E+00
5.470000E+03	-2.240552E-16	-0.000000E+00
5.480000E+03	-2.230183E-16	-0.000000E+00
5.490000E+03	-2.219745E-16	-0.000000E+00
5.500000E+03	-2.209243E-16	-0.000000E+00
5.510000E+03	-2.198681E-16	-0.000000E+00
5.520000E+03	-2.188062E-16	-0.000000E+00
5.530000E+03	-2.177388E-16	-0.000000E+00
5.540000E+03	-2.166665E-16	-0.000000E+00
5.550000E+03	-2.155895E-16	-0.000000E+00
5.560000E+03	-2.145080E-16	-0.000000E+00
5.570000E+03	-2.134226E-16	-0.000000E+00
5.580000E+03	-2.123336E-16	-0.000000E+00
5.590000E+03	-2.112412E-16	-0.000000E+00
5.600000E+03	-2.101458E-16	-0.000000E+00
5.610000E+03	-2.090477E-16	-0.000000E+00
5.620000E+03	-2.079474E-16	-0.000000E+00
5.630000E+03	-2.068450E-16	-0.000000E+00
5.640000E+03	-2.057409E-16	-0.000000E+00
5.650000E+03	-2.046356E-16	-0.000000E+00
5.660000E+03	-2.035292E-16	-0.000000E+00
5.670000E+03	-2.024221E-16	-0.000000E+00
5.680000E+03	-2.013146E-16	-0.000000E+00
5.690000E+03	-2.002070E-16	-0.000000E+00
5.700000E+03	-1.990997E-16	-0.000000E+00
5.710000E+03	-1.979929E-16	-0.000000E+00
5.720000E+03	-1.968870E-16	-0.000000E+00
5.730000E+03	-1.957823E-16	-0.000000E+00
5.740000E+03	-1.946789E-16	-0.000000E+00
5.750000E+03	-1.935774E-16	-0.000000E+00
5.760000E+03	-1.924779E-16	-0.000000E+00
5.770000E+03	-1.913807E-16	-0.000000E+00
5.780000E+03	-1.902861E-16	-0.000000E+00
5.790000E+03	-1.891943E-16	-0.000000E+00
5.800000E+03	-1.881058E-16	-0.000000E+00
5.810000E+03	-1.870206E-16	-0.000000E+00
5.820000E+03	-1.859392E-16	-0.000000E+00
5.830000E+03	-1.848618E-16	-0.000000E+00
5.840000E+03	-1.837885E-16	-0.000000E+00
5.850000E+03	-1.827197E-16	-0.000000E+00
5.860000E+03	-1.816556E-16	-0.000000E+00
5.870000E+03	-1.805965E-16	-0.000000E+00
5.880000E+03	-1.795425E-16	-0.000000E+00
5.890000E+03	-1.784940E-16	-0.000000E+00
5.900000E+03	-1.774511E-16	-0.000000E+00
5.910000E+03	-1.764141E-16	-0.000000E+00
5.920000E+03	-1.753832E-16	-0.000000E+00
5.930000E+03	-1.743586E-16	-0.000000E+00
5.940000E+03	-1.733405E-16	-0.000000E+00
5.950000E+03	-1.723290E-16	-0.000000E+00
5.960000E+03	-1.713245E-16	-0.000000E+00
5.970000E+03	-1.703272E-16	-0.000000E+00
5.980000E+03	-1.693370E-16	-0.000000E+00
5.990000E+03	-1.683544E-16	-0.000000E+00
6.000000E+03	-1.673793E-16	-0.000000E+00
6.010000E+03	-1.664121E-16	-0.000000E+00
6.020000E+03	-1.654529E-16	-0.000000E+00
6.030000E+03	-1.645018E-16	-0.000000E+00
6.040000E+03	-1.635590E-16	-0.000000E+00
6.050000E+03	-1.626245E-16	-0.000000E+00
6.060000E+03	-1.616987E-16	-0.000000E+00
6.070000E+03	-1.607817E-16	-0.000000E+00
6.080000E+03	-1.598734E-16	-0.000000E+00
6.090000E+03	-1.589741E-16	-0.000000E+00
6.100000E+03	-1.580839E-16	-0.000000E+00
6.110000E+03	-1.572030E-16	-0.000000E+00
6.120000E+03	-1.563313E-16	-0.000000E+00
6.130000E+03	-1.554691E-16	-0.000000E+00
6.140000E+03	-1.546164E-16	-0.000000E+00
6.150000E+03	-1.537734E-16	-0.000000E+00
6.160000E+03	-1.529401E-16	-0.000000E+00
6.170000E+03	-1.521166E-16	-0.000000E+00
6.180000E+03	-1.513030E-16	-0.000000E+00
6.190000E+03	-1.504993E-16	-0.000000E+00
6.200000E+03	-1.497058E-16	-0.000000E+00
6.210000E+03	-1.489223E-16	-0.000000E+00
6.220000E+03	-1.481491E-16	-0.000000E+00
6.230000E+03	-1.473860E-16	-0.000000E+00
6.240000E+03	-1.466333E-16	-0.000000E+00
6.250000E+03	-1.458908E-16	-0.000000E+00
6.260000E+03	-1.451589E-16	-0.000000E+00
6.270000E+03	-1.444373E-16	-0.000000E+00
6.280000E+03	-1.437262E-16	-0.000000E+00
6.290000E+03	-1.430257E-16	-0.000000E+00
6.300000E+03	-1.423356E-16	-0.000000E+00
6.310000E+03	-1.416562E-16	-0.000000E+00
6.320000E+03	-1.409873E-16	-0.000000E+00
6.330000E+03	-1.403291E-16	-0.000000E+00
6.340000E+03	-1.396815E-16	-0.000000E+00
6.350000E+03	-1.390446E-16	-0.000000E+00
6.360000E+03	-1.384183E-16	-0.000000E+00
6.370000E+03	-1.378027E-16	-0.000000E+00
6.380000E+03	-1.371978E-16	-0.000000E+00
6.390000E+03	-1.366035E-16	-0.000000E+00
6.400000E+03	-1.360199E-16	-0.000000E+00
6.410000E+03	-1.354469E-16	-0.000000E+00
6.420000E+03	-1.348847E-16	-0.000000E+00
6.430000E+03	-1.343330E-16	-0.000000E+00
6.440000E+03	-1.337920E-16	-0.000000E+00
6.450000E+03	-1.332616E-16	-0.000000E+00
6.460000E+03	-1.327418E-16	-0.000000E+00
6.470000E+03	-1.322326E-16	-0.000000E+00
6.480000E+03	-1.317340E-16	-0.000000E+00
6.490000E+03	-1.312458E-16	-0.000000E+00
6.500000E+03	-1.307682E-16	-0.000000E+00
6.510000E+03	-1.303010E-16	-0.000000E+00
6.520000E+03	-1.298443E-16	-0.000000E+00
6.530000E+03	-1.293980E-16	-0.000000E+00
6.540000E+03	-1.289620E-16	-0.000000E+00
6.550000E+03	-1.285363E-16	-0.000000E+00
6.560000E+03	-1.281210E-16	-0.000000E+00
6.570000E+03	-1.277160E-16	-0.000000E+00
6.580000E+03	-1.273210E-16	-0.000000E+00
6.590000E+03	-1.269363E-16	-0.000000E+00
6.600000E+03	-1.265617E-16	-0.000000E+00
6.610000E+03	-1.261972E-16	-0.000000E+00
6.620000E+03	-1.258427E-16	-0.000000E+00
6.630000E+03	-1.254981E-16	-0.000000E+00
6.640000E+03	-1.251634E-16	-0.000000E+00
6.650000E+03	-1.248386E-16	-0.000000E+00
6.660000E+03	-1.245237E-16	-0.000000E+00
6.670000E+03	-1.242185E-16	-0.000000E+00
6.680000E+03	-1.239229E-16	-0.000000E+00
6.690000E+03	-1.236370E-16	-0.000000E+00
6.700000E+03	-1.233607E-16	-0.000000E+00
6.710000E+03	-1.230938E-16	-0.000000E+00
6.720000E+03	-1.228364E-16	-0.000000E+00
6.730000E+03	-1.225884E-16	-0.000000E+00
6.740000E+03	-1.223497E-16	-0.000000E+00
6.750000E+03	-1.221203E-16	-0.000000E+00
6.760000E+03	-1.219000E-16	-0.000000E+00
6.770000E+03	-1.216889E-16	-0.000000E+00
6.780000E+03	-1.214868E-16	-0.000000E+00
6.790000E+03	-1.212937E-16	-0.000000E+00
6.800000E+03	-1.211095E-16	-0.000000E+00
6.810000E+03	-1.209342E-16	-0.000000E+00
6.820000E+03	-1.207676E-16	-0.000000E+00
6.830000E+03	-1.206097E-16	-0.000000E+00
6.840000E+03	-1.204605E-16	-0.000000E+00
6.850000E+03	-1.203197E-16	-0.000000E+00
6.860000E+03	-1.201875E-16	-0.000000E+00
6.870000E+03	-1.200637E-16	-0.000000E+00
6.880000E+03	-1.199482E-16	-0.000000E+00
6.890000E+03	-1.198409E-16	-0.000000E+00
6.900000E+03	-1.197418E-16	-0.000000E+00
6.910000E+03	-1.196508E-16	-0.000000E+00
6.920000E+03	-1.195677E-16	-0.000000E+00
6.930000E+03	-1.194927E-16	-0.000000E+00
6.940000E+03	-1.194255E-16	-0.000000E+00
6.950000E+03	-1.193661E-16	-0.000000E+00
6.960000E+03	-1.193143E-16	-0.000000E+00
6.970000E+03	-1.192702E-16	-0.000000E+00
6.980000E+03	-1.192336E-16	-0.000000E+00
6.990000E+03	-1.192044E-16	-0.000000E+00
7.000000E+03	-1.191826E-16	-0.000000E+00
7.010000E+03	-1.191681E-16	-0.000000E+00
7.020000E+03	-1.191608E-16	-0.000000E+00
7.030000E+03	-1.191607E-16	-0.000000E+00
7.040000E+03	-1.191675E-16	-0.000000E+00
7.050000E+03	-1.191814E-16	-0.000000E+00
7.060000E+03	-1.192021E-16	-0.000000E+00
7.070000E+03	-1.192296E-16	-0.000000E+00
7.080000E+03	-1.192638E-16	-0.000000E+00
7.090000E+03	-1.193046E-16	-0.000000E+00
7.100000E+03	-1.193520E-16	-0.000000E+00
7.110000E+03	-1.194058E-16	-0.000000E+00
7.120000E+03	-1.194660E-16	-0.000000E+00
7.130000E+03	-1.195325E-16	-0.000000E+00
7.140000E+03	-1.196052E-16	-0.000000E+00
7.150000E+03	-1.196840E-16	-0.000000E+00
7.160000E+03	-1.197689E-16	-0.000000E+00
7.170000E+03	-1.198597E-16	-0.000000E+00
7.180000E+03	-1.199563E-16	-0.000000E+00
7.190000E+03	-1.200589E-16	-0.000000E+00
7.200000E+03	-1.201671E-16	-0.000000E+00
7.210000E+03	-1.202809E-16	-0.000000E+00
7.220000E+03	-1.204003E-16	-0.000000E+00
7.230000E+03	-1.205251E-16	-0.000000E+00
7.240000E+03	-1.206553E-16	-0.000000E+00
7.250000E+03	-1.207909E-16	-0.000000E+00
7.260000E+03	-1.209316E-16	-0.000000E+00
7.270000E+03	-1.210776E-16	-0.000000E+00
7.280000E+03	-1.212285E-16	-0.000000E+00
7.290000E+03	-1.213845E-16	-0.000000E+00
7.300000E+03	-1.215453E-16	-0.000000E+00
7.310000E+03	-1.217110E-16	-0.000000E+00
7.320000E+03	-1.218814E-16	-0.000000E+00
7.330000E+03	-1.220565E-16	-0.000000E+00
7.340000E+03	-1.222362E-16	-0.000000E+00
7.350000E+03	-1.224204E-16	-0.000000E+00
7.360000E+03	-1.226091E-16	-0.000000E+00
7.370000E+03	-1.228021E-16	-0.000000E+00
7.380000E+03	-1.229994E-16	-0.000000E+00
7.390000E+03	-1.232010E-16	-0.000000E+00
7.400000E+03	-1.234066E-16	-0.000000E+00
7.410000E+03	-1.236164E-16	-0.000000E+00
7.420000E+03	-1.238302E-16	-0.000000E+00
7.430000E+03	-1.240478E-16	-0.000000E+00
7.440000E+03	-1.242693E-16	-0.000000E+00
7.450000E+03	-1.244946E-16	-0.000000E+00
7.460000E+03	-1.247236E-16	-0.000000E+00
7.470000E+03	-1.249562E-16	-0.000000E+00
7.480000E+03	-1.251924E-16	-0.000000E+00
7.490000E+03	-1.254321E-16	-0.000000E+00
7.500000E+03	-1.256752E-16	-0.000000E+00
7.510000E+03	-1.259217E-16	-0.000000E+00
