#wls	flux	fluxerr
1.600000E+03	-1.654315E-15	-0.000000E+00
1.640000E+03	-1.660745E-15	-0.000000E+00
1.680000E+03	-1.666996E-15	-0.000000E+00
1.720000E+03	-1.673049E-15	-0.000000E+00
1.760000E+03	-1.678884E-15	-0.000000E+00
1.800000E+03	-1.684479E-15	-0.000000E+00
1.840000E+03	-1.689814E-15	-0.000000E+00
1.880000E+03	-1.694863E-15	-0.000000E+00
1.920000E+03	-1.699604E-15	-0.000000E+00
1.960000E+03	-1.704011E-15	-0.000000E+00
2.000000E+03	-1.708058E-15	-0.000000E+00
2.040000E+03	-1.711717E-15	-0.000000E+00
2.080000E+03	-1.714962E-15	-0.000000E+00
2.120000E+03	-1.717763E-15	-0.000000E+00
2.160000E+03	-1.720091E-15	-0.000000E+00
2.200000E+03	-1.721915E-15	-0.000000E+00
2.240000E+03	-1.723204E-15	-0.000000E+00
2.280000E+03	-1.723927E-15	-0.000000E+00
2.320000E+03	-1.724053E-15	-0.000000E+00
2.360000E+03	-1.723548E-15	-0.000000E+00
2.400000E+03	-1.722379E-15	-0.000000E+00
2.440000E+03	-1.720516E-15	-0.000000E+00
2.480000E+03	-1.717925E-15	-0.000000E+00
2.520000E+03	-1.714575E-15	-0.000000E+00
2.560000E+03	-1.710436E-15	-0.000000E+00
2.600000E+03	-1.705479E-15	-0.000000E+00
2.640000E+03	-1.699675E-15	-0.000000E+00
2.680000E+03	-1.692997E-15	-0.000000E+00
2.720000E+03	-1.685424E-15	-0.000000E+00
2.760000E+03	-1.676935E-15	-0.000000E+00
2.800000E+03	-1.667512E-15	-0.000000E+00
2.840000E+03	-1.657146E-15	-0.000000E+00
2.880000E+03	-1.645828E-15	-0.000000E+00
2.920000E+03	-1.633559E-15	-0.000000E+00
2.960000E+03	-1.620344E-15	-0.000000E+00
3.000000E+03	-1.606201E-15	-0.000000E+00
3.010000E+03	-1.602522E-15	-0.000000E+00
3.020000E+03	-1.598789E-15	-0.000000E+00
3.030000E+03	-1.594999E-15	-0.000000E+00
3.040000E+03	-1.591154E-15	-0.000000E+00
3.050000E+03	-1.587256E-15	-0.000000E+00
3.060000E+03	-1.583303E-15	-0.000000E+00
3.070000E+03	-1.579299E-15	-0.000000E+00
3.080000E+03	-1.575241E-15	-0.000000E+00
3.090000E+03	-1.571134E-15	-0.000000E+00
3.100000E+03	-1.566976E-15	-0.000000E+00
3.110000E+03	-1.562769E-15	-0.000000E+00
3.120000E+03	-1.558514E-15	-0.000000E+00
3.130000E+03	-1.554212E-15	-0.000000E+00
3.140000E+03	-1.549864E-15	-0.000000E+00
3.150000E+03	-1.545472E-15	-0.000000E+00
3.160000E+03	-1.541037E-15	-0.000000E+00
3.170000E+03	-1.536560E-15	-0.000000E+00
3.180000E+03	-1.532043E-15	-0.000000E+00
3.190000E+03	-1.527487E-15	-0.000000E+00
3.200000E+03	-1.522894E-15	-0.000000E+00
3.210000E+03	-1.518265E-15	-0.000000E+00
3.220000E+03	-1.513604E-15	-0.000000E+00
3.230000E+03	-1.508910E-15	-0.000000E+00
3.240000E+03	-1.504187E-15	-0.000000E+00
3.250000E+03	-1.499436E-15	-0.000000E+00
3.260000E+03	-1.494659E-15	-0.000000E+00
3.270000E+03	-1.489860E-15	-0.000000E+00
3.280000E+03	-1.485039E-15	-0.000000E+00
3.290000E+03	-1.480200E-15	-0.000000E+00
3.300000E+03	-1.475346E-15	-0.000000E+00
3.310000E+03	-1.470478E-15	-0.000000E+00
3.320000E+03	-1.465599E-15	-0.000000E+00
3.330000E+03	-1.460714E-15	-0.000000E+00
3.340000E+03	-1.455822E-15	-0.000000E+00
3.350000E+03	-1.450930E-15	-0.000000E+00
3.360000E+03	-1.446039E-15	-0.000000E+00
3.370000E+03	-1.441153E-15	-0.000000E+00
3.380000E+03	-1.436275E-15	-0.000000E+00
3.390000E+03	-1.431408E-15	-0.000000E+00
3.400000E+03	-1.426557E-15	-0.000000E+00
3.410000E+03	-1.421724E-15	-0.000000E+00
3.420000E+03	-1.416914E-15	-0.000000E+00
3.430000E+03	-1.412131E-15	-0.000000E+00
3.440000E+03	-1.407376E-15	-0.000000E+00
3.450000E+03	-1.402658E-15	-0.000000E+00
3.460000E+03	-1.397977E-15	-0.000000E+00
3.470000E+03	-1.393338E-15	-0.000000E+00
3.480000E+03	-1.388748E-15	-0.000000E+00
3.490000E+03	-1.384207E-15	-0.000000E+00
3.500000E+03	-1.379723E-15	-0.000000E+00
3.510000E+03	-1.375298E-15	-0.000000E+00
3.520000E+03	-1.370938E-15	-0.000000E+00
3.530000E+03	-1.366648E-15	-0.000000E+00
3.540000E+03	-1.362431E-15	-0.000000E+00
3.550000E+03	-1.358292E-15	-0.000000E+00
3.560000E+03	-1.354236E-15	-0.000000E+00
3.570000E+03	-1.350268E-15	-0.000000E+00
3.580000E+03	-1.346391E-15	-0.000000E+00
3.590000E+03	-1.342612E-15	-0.000000E+00
3.600000E+03	-1.338934E-15	-0.000000E+00
3.610000E+03	-1.335362E-15	-0.000000E+00
3.620000E+03	-1.331902E-15	-0.000000E+00
3.630000E+03	-1.328556E-15	-0.000000E+00
3.640000E+03	-1.325329E-15	-0.000000E+00
3.650000E+03	-1.322226E-15	-0.000000E+00
3.660000E+03	-1.319252E-15	-0.000000E+00
3.670000E+03	-1.316411E-15	-0.000000E+00
3.680000E+03	-1.313705E-15	-0.000000E+00
3.690000E+03	-1.311141E-15	-0.000000E+00
3.700000E+03	-1.308721E-15	-0.000000E+00
3.710000E+03	-1.306451E-15	-0.000000E+00
3.720000E+03	-1.304332E-15	-0.000000E+00
3.730000E+03	-1.302370E-15	-0.000000E+00
3.740000E+03	-1.300566E-15	-0.000000E+00
3.750000E+03	-1.298925E-15	-0.000000E+00
3.760000E+03	-1.297450E-15	-0.000000E+00
3.770000E+03	-1.296143E-15	-0.000000E+00
3.780000E+03	-1.295009E-15	-0.000000E+00
3.790000E+03	-1.294048E-15	-0.000000E+00
3.800000E+03	-1.293265E-15	-0.000000E+00
3.810000E+03	-1.292661E-15	-0.000000E+00
3.820000E+03	-1.292238E-15	-0.000000E+00
3.830000E+03	-1.291999E-15	-0.000000E+00
3.840000E+03	-1.291944E-15	-0.000000E+00
3.850000E+03	-1.292077E-15	-0.000000E+00
3.860000E+03	-1.292398E-15	-0.000000E+00
3.870000E+03	-1.292910E-15	-0.000000E+00
3.880000E+03	-1.293613E-15	-0.000000E+00
3.890000E+03	-1.294507E-15	-0.000000E+00
3.900000E+03	-1.295595E-15	-0.000000E+00
3.910000E+03	-1.296876E-15	-0.000000E+00
3.920000E+03	-1.298352E-15	-0.000000E+00
3.930000E+03	-1.300023E-15	-0.000000E+00
3.940000E+03	-1.301890E-15	-0.000000E+00
3.950000E+03	-1.303952E-15	-0.000000E+00
3.960000E+03	-1.306211E-15	-0.000000E+00
3.970000E+03	-1.308665E-15	-0.000000E+00
3.980000E+03	-1.311316E-15	-0.000000E+00
3.990000E+03	-1.314164E-15	-0.000000E+00
4.000000E+03	-1.317209E-15	-0.000000E+00
4.010000E+03	-1.320449E-15	-0.000000E+00
4.020000E+03	-1.323886E-15	-0.000000E+00
4.030000E+03	-1.327518E-15	-0.000000E+00
4.040000E+03	-1.331348E-15	-0.000000E+00
4.050000E+03	-1.335374E-15	-0.000000E+00
4.060000E+03	-1.339595E-15	-0.000000E+00
4.070000E+03	-1.344012E-15	-0.000000E+00
4.080000E+03	-1.348625E-15	-0.000000E+00
4.090000E+03	-1.353434E-15	-0.000000E+00
4.100000E+03	-1.358439E-15	-0.000000E+00
4.110000E+03	-1.363638E-15	-0.000000E+00
4.120000E+03	-1.369032E-15	-0.000000E+00
4.130000E+03	-1.374621E-15	-0.000000E+00
4.140000E+03	-1.380405E-15	-0.000000E+00
4.150000E+03	-1.386383E-15	-0.000000E+00
4.160000E+03	-1.392555E-15	-0.000000E+00
4.170000E+03	-1.398919E-15	-0.000000E+00
4.180000E+03	-1.405474E-15	-0.000000E+00
4.190000E+03	-1.412221E-15	-0.000000E+00
4.200000E+03	-1.419158E-15	-0.000000E+00
4.210000E+03	-1.426282E-15	-0.000000E+00
4.220000E+03	-1.433591E-15	-0.000000E+00
4.230000E+03	-1.441084E-15	-0.000000E+00
4.240000E+03	-1.448759E-15	-0.000000E+00
4.250000E+03	-1.456611E-15	-0.000000E+00
4.260000E+03	-1.464638E-15	-0.000000E+00
4.270000E+03	-1.472835E-15	-0.000000E+00
4.280000E+03	-1.481198E-15	-0.000000E+00
4.290000E+03	-1.489721E-15	-0.000000E+00
4.300000E+03	-1.498399E-15	-0.000000E+00
4.310000E+03	-1.507225E-15	-0.000000E+00
4.320000E+03	-1.516192E-15	-0.000000E+00
4.330000E+03	-1.525291E-15	-0.000000E+00
4.340000E+03	-1.534516E-15	-0.000000E+00
4.350000E+03	-1.543856E-15	-0.000000E+00
4.360000E+03	-1.553301E-15	-0.000000E+00
4.370000E+03	-1.562840E-15	-0.000000E+00
4.380000E+03	-1.572462E-15	-0.000000E+00
4.390000E+03	-1.582156E-15	-0.000000E+00
4.400000E+03	-1.591905E-15	-0.000000E+00
4.410000E+03	-1.601697E-15	-0.000000E+00
4.420000E+03	-1.611519E-15	-0.000000E+00
4.430000E+03	-1.621354E-15	-0.000000E+00
4.440000E+03	-1.631186E-15	-0.000000E+00
4.450000E+03	-1.640997E-15	-0.000000E+00
4.460000E+03	-1.650772E-15	-0.000000E+00
4.470000E+03	-1.660493E-15	-0.000000E+00
4.480000E+03	-1.670140E-15	-0.000000E+00
4.490000E+03	-1.679696E-15	-0.000000E+00
4.500000E+03	-1.689140E-15	-0.000000E+00
4.510000E+03	-1.698454E-15	-0.000000E+00
4.520000E+03	-1.707619E-15	-0.000000E+00
4.530000E+03	-1.716615E-15	-0.000000E+00
4.540000E+03	-1.725422E-15	-0.000000E+00
4.550000E+03	-1.734023E-15	-0.000000E+00
4.560000E+03	-1.742397E-15	-0.000000E+00
4.570000E+03	-1.750527E-15	-0.000000E+00
4.580000E+03	-1.758396E-15	-0.000000E+00
4.590000E+03	-1.765986E-15	-0.000000E+00
4.600000E+03	-1.773283E-15	-0.000000E+00
4.610000E+03	-1.780270E-15	-0.000000E+00
4.620000E+03	-1.786937E-15	-0.000000E+00
4.630000E+03	-1.793270E-15	-0.000000E+00
4.640000E+03	-1.799259E-15	-0.000000E+00
4.650000E+03	-1.804895E-15	-0.000000E+00
4.660000E+03	-1.810172E-15	-0.000000E+00
4.670000E+03	-1.815084E-15	-0.000000E+00
4.680000E+03	-1.819630E-15	-0.000000E+00
4.690000E+03	-1.823805E-15	-0.000000E+00
4.700000E+03	-1.827614E-15	-0.000000E+00
4.710000E+03	-1.831058E-15	-0.000000E+00
4.720000E+03	-1.834141E-15	-0.000000E+00
4.730000E+03	-1.836870E-15	-0.000000E+00
4.740000E+03	-1.839255E-15	-0.000000E+00
4.750000E+03	-1.841305E-15	-0.000000E+00
4.760000E+03	-1.843032E-15	-0.000000E+00
4.770000E+03	-1.844448E-15	-0.000000E+00
4.780000E+03	-1.845569E-15	-0.000000E+00
4.790000E+03	-1.846411E-15	-0.000000E+00
4.800000E+03	-1.846989E-15	-0.000000E+00
4.810000E+03	-1.847320E-15	-0.000000E+00
4.820000E+03	-1.847424E-15	-0.000000E+00
4.830000E+03	-1.847317E-15	-0.000000E+00
4.840000E+03	-1.847019E-15	-0.000000E+00
4.850000E+03	-1.846546E-15	-0.000000E+00
4.860000E+03	-1.845918E-15	-0.000000E+00
4.870000E+03	-1.845152E-15	-0.000000E+00
4.880000E+03	-1.844266E-15	-0.000000E+00
4.890000E+03	-1.843276E-15	-0.000000E+00
4.900000E+03	-1.842198E-15	-0.000000E+00
4.910000E+03	-1.841047E-15	-0.000000E+00
4.920000E+03	-1.839837E-15	-0.000000E+00
4.930000E+03	-1.838582E-15	-0.000000E+00
4.940000E+03	-1.837294E-15	-0.000000E+00
4.950000E+03	-1.835984E-15	-0.000000E+00
4.960000E+03	-1.834662E-15	-0.000000E+00
4.970000E+03	-1.833336E-15	-0.000000E+00
4.980000E+03	-1.832015E-15	-0.000000E+00
4.990000E+03	-1.830705E-15	-0.000000E+00
5.000000E+03	-1.829412E-15	-0.000000E+00
5.010000E+03	-1.828140E-15	-0.000000E+00
5.020000E+03	-1.826892E-15	-0.000000E+00
5.030000E+03	-1.825672E-15	-0.000000E+00
5.040000E+03	-1.824481E-15	-0.000000E+00
5.050000E+03	-1.823318E-15	-0.000000E+00
5.060000E+03	-1.822184E-15	-0.000000E+00
5.070000E+03	-1.821079E-15	-0.000000E+00
5.080000E+03	-1.820000E-15	-0.000000E+00
5.090000E+03	-1.818945E-15	-0.000000E+00
5.100000E+03	-1.817911E-15	-0.000000E+00
5.110000E+03	-1.816895E-15	-0.000000E+00
5.120000E+03	-1.815893E-15	-0.000000E+00
5.130000E+03	-1.814901E-15	-0.000000E+00
5.140000E+03	-1.813914E-15	-0.000000E+00
5.150000E+03	-1.812929E-15	-0.000000E+00
5.160000E+03	-1.811940E-15	-0.000000E+00
5.170000E+03	-1.810943E-15	-0.000000E+00
5.180000E+03	-1.809932E-15	-0.000000E+00
5.190000E+03	-1.808904E-15	-0.000000E+00
5.200000E+03	-1.807852E-15	-0.000000E+00
5.210000E+03	-1.806774E-15	-0.000000E+00
5.220000E+03	-1.805664E-15	-0.000000E+00
5.230000E+03	-1.804518E-15	-0.000000E+00
5.240000E+03	-1.803333E-15	-0.000000E+00
5.250000E+03	-1.802104E-15	-0.000000E+00
5.260000E+03	-1.800829E-15	-0.000000E+00
5.270000E+03	-1.799504E-15	-0.000000E+00
5.280000E+03	-1.798126E-15	-0.000000E+00
5.290000E+03	-1.796693E-15	-0.000000E+00
5.300000E+03	-1.795202E-15	-0.000000E+00
5.310000E+03	-1.793653E-15	-0.000000E+00
5.320000E+03	-1.792044E-15	-0.000000E+00
5.330000E+03	-1.790372E-15	-0.000000E+00
5.340000E+03	-1.788638E-15	-0.000000E+00
5.350000E+03	-1.786840E-15	-0.000000E+00
5.360000E+03	-1.784979E-15	-0.000000E+00
5.370000E+03	-1.783054E-15	-0.000000E+00
5.380000E+03	-1.781065E-15	-0.000000E+00
5.390000E+03	-1.779012E-15	-0.000000E+00
5.400000E+03	-1.776897E-15	-0.000000E+00
5.410000E+03	-1.774719E-15	-0.000000E+00
5.420000E+03	-1.772480E-15	-0.000000E+00
5.430000E+03	-1.770181E-15	-0.000000E+00
5.440000E+03	-1.767821E-15	-0.000000E+00
5.450000E+03	-1.765403E-15	-0.000000E+00
5.460000E+03	-1.762928E-15	-0.000000E+00
5.470000E+03	-1.760396E-15	-0.000000E+00
5.480000E+03	-1.757808E-15	-0.000000E+00
5.490000E+03	-1.755166E-15	-0.000000E+00
5.500000E+03	-1.752470E-15	-0.000000E+00
5.510000E+03	-1.749721E-15	-0.000000E+00
5.520000E+03	-1.746920E-15	-0.000000E+00
5.530000E+03	-1.744067E-15	-0.000000E+00
5.540000E+03	-1.741163E-15	-0.000000E+00
5.550000E+03	-1.738208E-15	-0.000000E+00
5.560000E+03	-1.735203E-15	-0.000000E+00
5.570000E+03	-1.732147E-15	-0.000000E+00
5.580000E+03	-1.729041E-15	-0.000000E+00
5.590000E+03	-1.725884E-15	-0.000000E+00
5.600000E+03	-1.722676E-15	-0.000000E+00
5.610000E+03	-1.719417E-15	-0.000000E+00
5.620000E+03	-1.716106E-15	-0.000000E+00
5.630000E+03	-1.712743E-15	-0.000000E+00
5.640000E+03	-1.709326E-15	-0.000000E+00
5.650000E+03	-1.705857E-15	-0.000000E+00
5.660000E+03	-1.702334E-15	-0.000000E+00
5.670000E+03	-1.698755E-15	-0.000000E+00
5.680000E+03	-1.695122E-15	-0.000000E+00
5.690000E+03	-1.691433E-15	-0.000000E+00
5.700000E+03	-1.687687E-15	-0.000000E+00
5.710000E+03	-1.683886E-15	-0.000000E+00
5.720000E+03	-1.680028E-15	-0.000000E+00
5.730000E+03	-1.676114E-15	-0.000000E+00
5.740000E+03	-1.672144E-15	-0.000000E+00
5.750000E+03	-1.668118E-15	-0.000000E+00
5.760000E+03	-1.664037E-15	-0.000000E+00
5.770000E+03	-1.659901E-15	-0.000000E+00
5.780000E+03	-1.655712E-15	-0.000000E+00
5.790000E+03	-1.651471E-15	-0.000000E+00
5.800000E+03	-1.647180E-15	-0.000000E+00
5.810000E+03	-1.642840E-15	-0.000000E+00
5.820000E+03	-1.638454E-15	-0.000000E+00
5.830000E+03	-1.634023E-15	-0.000000E+00
5.840000E+03	-1.629550E-15	-0.000000E+00
5.850000E+03	-1.625038E-15	-0.000000E+00
5.860000E+03	-1.620490E-15	-0.000000E+00
5.870000E+03	-1.615908E-15	-0.000000E+00
5.880000E+03	-1.611298E-15	-0.000000E+00
5.890000E+03	-1.606661E-15	-0.000000E+00
5.900000E+03	-1.602000E-15	-0.000000E+00
5.910000E+03	-1.597321E-15	-0.000000E+00
5.920000E+03	-1.592628E-15	-0.000000E+00
5.930000E+03	-1.587924E-15	-0.000000E+00
5.940000E+03	-1.583212E-15	-0.000000E+00
5.950000E+03	-1.578498E-15	-0.000000E+00
5.960000E+03	-1.573786E-15	-0.000000E+00
5.970000E+03	-1.569079E-15	-0.000000E+00
5.980000E+03	-1.564384E-15	-0.000000E+00
5.990000E+03	-1.559702E-15	-0.000000E+00
6.000000E+03	-1.555040E-15	-0.000000E+00
6.010000E+03	-1.550401E-15	-0.000000E+00
6.020000E+03	-1.545790E-15	-0.000000E+00
6.030000E+03	-1.541211E-15	-0.000000E+00
6.040000E+03	-1.536670E-15	-0.000000E+00
6.050000E+03	-1.532169E-15	-0.000000E+00
6.060000E+03	-1.527713E-15	-0.000000E+00
6.070000E+03	-1.523308E-15	-0.000000E+00
6.080000E+03	-1.518957E-15	-0.000000E+00
6.090000E+03	-1.514665E-15	-0.000000E+00
6.100000E+03	-1.510436E-15	-0.000000E+00
6.110000E+03	-1.506275E-15	-0.000000E+00
6.120000E+03	-1.502185E-15	-0.000000E+00
6.130000E+03	-1.498172E-15	-0.000000E+00
6.140000E+03	-1.494240E-15	-0.000000E+00
6.150000E+03	-1.490392E-15	-0.000000E+00
6.160000E+03	-1.486634E-15	-0.000000E+00
6.170000E+03	-1.482968E-15	-0.000000E+00
6.180000E+03	-1.479399E-15	-0.000000E+00
6.190000E+03	-1.475931E-15	-0.000000E+00
6.200000E+03	-1.472568E-15	-0.000000E+00
6.210000E+03	-1.469313E-15	-0.000000E+00
6.220000E+03	-1.466168E-15	-0.000000E+00
6.230000E+03	-1.463138E-15	-0.000000E+00
6.240000E+03	-1.460224E-15	-0.000000E+00
6.250000E+03	-1.457430E-15	-0.000000E+00
6.260000E+03	-1.454757E-15	-0.000000E+00
6.270000E+03	-1.452207E-15	-0.000000E+00
6.280000E+03	-1.449782E-15	-0.000000E+00
6.290000E+03	-1.447483E-15	-0.000000E+00
6.300000E+03	-1.445310E-15	-0.000000E+00
6.310000E+03	-1.443264E-15	-0.000000E+00
6.320000E+03	-1.441343E-15	-0.000000E+00
6.330000E+03	-1.439549E-15	-0.000000E+00
6.340000E+03	-1.437880E-15	-0.000000E+00
6.350000E+03	-1.436334E-15	-0.000000E+00
6.360000E+03	-1.434910E-15	-0.000000E+00
6.370000E+03	-1.433606E-15	-0.000000E+00
6.380000E+03	-1.432419E-15	-0.000000E+00
6.390000E+03	-1.431346E-15	-0.000000E+00
6.400000E+03	-1.430386E-15	-0.000000E+00
6.410000E+03	-1.429535E-15	-0.000000E+00
6.420000E+03	-1.428788E-15	-0.000000E+00
6.430000E+03	-1.428144E-15	-0.000000E+00
6.440000E+03	-1.427600E-15	-0.000000E+00
6.450000E+03	-1.427150E-15	-0.000000E+00
6.460000E+03	-1.426792E-15	-0.000000E+00
6.470000E+03	-1.426524E-15	-0.000000E+00
6.480000E+03	-1.426342E-15	-0.000000E+00
6.490000E+03	-1.426241E-15	-0.000000E+00
6.500000E+03	-1.426221E-15	-0.000000E+00
6.510000E+03	-1.426279E-15	-0.000000E+00
6.520000E+03	-1.426412E-15	-0.000000E+00
6.530000E+03	-1.426618E-15	-0.000000E+00
6.540000E+03	-1.426897E-15	-0.000000E+00
6.550000E+03	-1.427245E-15	-0.000000E+00
6.560000E+03	-1.427663E-15	-0.000000E+00
6.570000E+03	-1.428151E-15	-0.000000E+00
6.580000E+03	-1.428707E-15	-0.000000E+00
6.590000E+03	-1.429334E-15	-0.000000E+00
6.600000E+03	-1.430029E-15	-0.000000E+00
6.610000E+03	-1.430795E-15	-0.000000E+00
6.620000E+03	-1.431634E-15	-0.000000E+00
6.630000E+03	-1.432547E-15	-0.000000E+00
6.640000E+03	-1.433534E-15	-0.000000E+00
6.650000E+03	-1.434600E-15	-0.000000E+00
6.660000E+03	-1.435747E-15	-0.000000E+00
6.670000E+03	-1.436977E-15	-0.000000E+00
6.680000E+03	-1.438293E-15	-0.000000E+00
6.690000E+03	-1.439700E-15	-0.000000E+00
6.700000E+03	-1.441199E-15	-0.000000E+00
6.710000E+03	-1.442794E-15	-0.000000E+00
6.720000E+03	-1.444491E-15	-0.000000E+00
6.730000E+03	-1.446290E-15	-0.000000E+00
6.740000E+03	-1.448198E-15	-0.000000E+00
6.750000E+03	-1.450217E-15	-0.000000E+00
6.760000E+03	-1.452351E-15	-0.000000E+00
6.770000E+03	-1.454604E-15	-0.000000E+00
6.780000E+03	-1.456979E-15	-0.000000E+00
6.790000E+03	-1.459479E-15	-0.000000E+00
6.800000E+03	-1.462108E-15	-0.000000E+00
6.810000E+03	-1.464869E-15	-0.000000E+00
6.820000E+03	-1.467763E-15	-0.000000E+00
6.830000E+03	-1.470794E-15	-0.000000E+00
6.840000E+03	-1.473963E-15	-0.000000E+00
6.850000E+03	-1.477271E-15	-0.000000E+00
6.860000E+03	-1.480721E-15	-0.000000E+00
6.870000E+03	-1.484314E-15	-0.000000E+00
6.880000E+03	-1.488049E-15	-0.000000E+00
6.890000E+03	-1.491927E-15	-0.000000E+00
6.900000E+03	-1.495947E-15	-0.000000E+00
6.910000E+03	-1.500109E-15	-0.000000E+00
6.920000E+03	-1.504410E-15	-0.000000E+00
6.930000E+03	-1.508851E-15	-0.000000E+00
6.940000E+03	-1.513428E-15	-0.000000E+00
6.950000E+03	-1.518138E-15	-0.000000E+00
6.960000E+03	-1.522980E-15	-0.000000E+00
6.970000E+03	-1.527948E-15	-0.000000E+00
6.980000E+03	-1.533040E-15	-0.000000E+00
6.990000E+03	-1.538251E-15	-0.000000E+00
7.000000E+03	-1.543576E-15	-0.000000E+00
7.010000E+03	-1.549011E-15	-0.000000E+00
7.020000E+03	-1.554550E-15	-0.000000E+00
7.030000E+03	-1.560188E-15	-0.000000E+00
7.040000E+03	-1.565919E-15	-0.000000E+00
7.050000E+03	-1.571736E-15	-0.000000E+00
7.060000E+03	-1.577635E-15	-0.000000E+00
7.070000E+03	-1.583606E-15	-0.000000E+00
7.080000E+03	-1.589646E-15	-0.000000E+00
7.090000E+03	-1.595748E-15	-0.000000E+00
7.100000E+03	-1.601902E-15	-0.000000E+00
7.110000E+03	-1.608106E-15	-0.000000E+00
7.120000E+03	-1.614351E-15	-0.000000E+00
7.130000E+03	-1.620630E-15	-0.000000E+00
7.140000E+03	-1.626938E-15	-0.000000E+00
7.150000E+03	-1.633267E-15	-0.000000E+00
7.160000E+03	-1.639613E-15	-0.000000E+00
7.170000E+03	-1.645968E-15	-0.000000E+00
7.180000E+03	-1.652328E-15	-0.000000E+00
7.190000E+03	-1.658685E-15	-0.000000E+00
7.200000E+03	-1.665037E-15	-0.000000E+00
7.210000E+03	-1.671377E-15	-0.000000E+00
7.220000E+03	-1.677701E-15	-0.000000E+00
7.230000E+03	-1.684005E-15	-0.000000E+00
7.240000E+03	-1.690284E-15	-0.000000E+00
7.250000E+03	-1.696536E-15	-0.000000E+00
7.260000E+03	-1.702757E-15	-0.000000E+00
7.270000E+03	-1.708944E-15	-0.000000E+00
7.280000E+03	-1.715094E-15	-0.000000E+00
7.290000E+03	-1.721206E-15	-0.000000E+00
7.300000E+03	-1.727278E-15	-0.000000E+00
7.310000E+03	-1.733309E-15	-0.000000E+00
7.320000E+03	-1.739298E-15	-0.000000E+00
7.330000E+03	-1.745244E-15	-0.000000E+00
7.340000E+03	-1.751147E-15	-0.000000E+00
7.350000E+03	-1.757006E-15	-0.000000E+00
7.360000E+03	-1.762824E-15	-0.000000E+00
7.370000E+03	-1.768600E-15	-0.000000E+00
7.380000E+03	-1.774335E-15	-0.000000E+00
7.390000E+03	-1.780032E-15	-0.000000E+00
7.400000E+03	-1.785691E-15	-0.000000E+00
7.410000E+03	-1.791314E-15	-0.000000E+00
7.420000E+03	-1.796904E-15	-0.000000E+00
7.430000E+03	-1.802464E-15	-0.000000E+00
7.440000E+03	-1.807996E-15	-0.000000E+00
7.450000E+03	-1.813501E-15	-0.000000E+00
7.460000E+03	-1.818984E-15	-0.000000E+00
7.470000E+03	-1.824448E-15	-0.000000E+00
7.480000E+03	-1.829895E-15	-0.000000E+00
7.490000E+03	-1.835329E-15	-0.000000E+00
7.500000E+03	-1.840752E-15	-0.000000E+00
7.510000E+03	-1.846168E-15	-0.000000E+00
