#wls	flux	fluxerr
1.600000E+03	1.705035E-16	4.377500E-19
1.640000E+03	1.720311E-16	4.416716E-19
1.680000E+03	1.736288E-16	4.457734E-19
1.720000E+03	1.752956E-16	4.500524E-19
1.760000E+03	1.770293E-16	4.545032E-19
1.800000E+03	1.788842E-16	4.592652E-19
1.840000E+03	1.808305E-16	4.642619E-19
1.880000E+03	1.829502E-16	4.697037E-19
1.920000E+03	1.852134E-16	4.755138E-19
1.960000E+03	1.876455E-16	4.817576E-19
2.000000E+03	1.903288E-16	4.886466E-19
2.040000E+03	1.932887E-16	4.962454E-19
2.080000E+03	1.965219E-16	5.045457E-19
2.120000E+03	2.000808E-16	5.136825E-19
2.160000E+03	2.040461E-16	5.238624E-19
2.200000E+03	2.084405E-16	5.351443E-19
2.240000E+03	2.132285E-16	5.474363E-19
2.280000E+03	2.184871E-16	5.609366E-19
2.320000E+03	2.241777E-16	5.755461E-19
2.360000E+03	2.302887E-16	5.912347E-19
2.400000E+03	2.368633E-16	6.081136E-19
2.440000E+03	2.438290E-16	6.259965E-19
2.480000E+03	2.511963E-16	6.449105E-19
2.520000E+03	2.589452E-16	6.648041E-19
2.560000E+03	2.670533E-16	6.856198E-19
2.600000E+03	2.754956E-16	7.072936E-19
2.640000E+03	2.842727E-16	7.298268E-19
2.680000E+03	2.933816E-16	7.532118E-19
2.720000E+03	3.027608E-16	7.772907E-19
2.760000E+03	3.124288E-16	8.021109E-19
2.800000E+03	3.223720E-16	8.276378E-19
2.840000E+03	3.325461E-16	8.537571E-19
2.880000E+03	3.428757E-16	8.802758E-19
2.920000E+03	3.532566E-16	9.069260E-19
2.960000E+03	3.636888E-16	9.337078E-19
3.000000E+03	3.740885E-16	9.604063E-19
3.010000E+03	3.766952E-16	9.670982E-19
3.020000E+03	3.793129E-16	9.738185E-19
3.030000E+03	3.819146E-16	9.804975E-19
3.040000E+03	3.845251E-16	9.871993E-19
3.050000E+03	3.871434E-16	9.939210E-19
3.060000E+03	3.897425E-16	1.000594E-18
3.070000E+03	3.923728E-16	1.007346E-18
3.080000E+03	3.949816E-16	1.014043E-18
3.090000E+03	3.976189E-16	1.020814E-18
3.100000E+03	4.002324E-16	1.027523E-18
3.110000E+03	4.028717E-16	1.034299E-18
3.120000E+03	4.055353E-16	1.041137E-18
3.130000E+03	4.081964E-16	1.047968E-18
3.140000E+03	4.108537E-16	1.054790E-18
3.150000E+03	4.135309E-16	1.061663E-18
3.160000E+03	4.162261E-16	1.068582E-18
3.170000E+03	4.189378E-16	1.075544E-18
3.180000E+03	4.216643E-16	1.082543E-18
3.190000E+03	4.244039E-16	1.089576E-18
3.200000E+03	4.271548E-16	1.096638E-18
3.210000E+03	4.299396E-16	1.103787E-18
3.220000E+03	4.327319E-16	1.110956E-18
3.230000E+03	4.355783E-16	1.118263E-18
3.240000E+03	4.384279E-16	1.125579E-18
3.250000E+03	4.413272E-16	1.133021E-18
3.260000E+03	4.442256E-16	1.140462E-18
3.270000E+03	4.471924E-16	1.148078E-18
3.280000E+03	4.501775E-16	1.155742E-18
3.290000E+03	4.532021E-16	1.163506E-18
3.300000E+03	4.562634E-16	1.171365E-18
3.310000E+03	4.593819E-16	1.179371E-18
3.320000E+03	4.625314E-16	1.187456E-18
3.330000E+03	4.657321E-16	1.195673E-18
3.340000E+03	4.690035E-16	1.204071E-18
3.350000E+03	4.723193E-16	1.212584E-18
3.360000E+03	4.756989E-16	1.221260E-18
3.370000E+03	4.791386E-16	1.230090E-18
3.380000E+03	4.826568E-16	1.239122E-18
3.390000E+03	4.862495E-16	1.248345E-18
3.400000E+03	4.899125E-16	1.257749E-18
3.410000E+03	4.936636E-16	1.267379E-18
3.420000E+03	4.974981E-16	1.277222E-18
3.430000E+03	5.014331E-16	1.287324E-18
3.440000E+03	5.054639E-16	1.297672E-18
3.450000E+03	5.096072E-16	1.308309E-18
3.460000E+03	5.138793E-16	1.319276E-18
3.470000E+03	5.182751E-16	1.330561E-18
3.480000E+03	5.228106E-16	1.342204E-18
3.490000E+03	5.274809E-16	1.354194E-18
3.500000E+03	5.323223E-16	1.366622E-18
3.510000E+03	5.373295E-16	1.379477E-18
3.520000E+03	5.425178E-16	1.392796E-18
3.530000E+03	5.478817E-16	1.406567E-18
3.540000E+03	5.534361E-16	1.420826E-18
3.550000E+03	5.591557E-16	1.435509E-18
3.560000E+03	5.650559E-16	1.450656E-18
3.570000E+03	5.710926E-16	1.466153E-18
3.580000E+03	5.772621E-16	1.481992E-18
3.590000E+03	5.835423E-16	1.498114E-18
3.600000E+03	5.899500E-16	1.514564E-18
3.610000E+03	5.964260E-16	1.531189E-18
3.620000E+03	6.030083E-16	1.548087E-18
3.630000E+03	6.096403E-16	1.565113E-18
3.640000E+03	6.163424E-16	1.582318E-18
3.650000E+03	6.230795E-16	1.599614E-18
3.660000E+03	6.298553E-16	1.617009E-18
3.670000E+03	6.366556E-16	1.634466E-18
3.680000E+03	6.435029E-16	1.652044E-18
3.690000E+03	6.503480E-16	1.669617E-18
3.700000E+03	6.572149E-16	1.687245E-18
3.710000E+03	6.640912E-16	1.704898E-18
3.720000E+03	6.709654E-16	1.722545E-18
3.730000E+03	6.778437E-16	1.740203E-18
3.740000E+03	6.847325E-16	1.757888E-18
3.750000E+03	6.916206E-16	1.775571E-18
3.760000E+03	6.984976E-16	1.793225E-18
3.770000E+03	7.053701E-16	1.810868E-18
3.780000E+03	7.122615E-16	1.828559E-18
3.790000E+03	7.191277E-16	1.846186E-18
3.800000E+03	7.259926E-16	1.863809E-18
3.810000E+03	7.328620E-16	1.881444E-18
3.820000E+03	7.397258E-16	1.899065E-18
3.830000E+03	7.465899E-16	1.916686E-18
3.840000E+03	7.534437E-16	1.934281E-18
3.850000E+03	7.602927E-16	1.951863E-18
3.860000E+03	7.671257E-16	1.969404E-18
3.870000E+03	7.739630E-16	1.986956E-18
3.880000E+03	7.807771E-16	2.004449E-18
3.890000E+03	7.875875E-16	2.021932E-18
3.900000E+03	7.943818E-16	2.039374E-18
3.910000E+03	8.011628E-16	2.056782E-18
3.920000E+03	8.079174E-16	2.074122E-18
3.930000E+03	8.146477E-16	2.091400E-18
3.940000E+03	8.213398E-16	2.108579E-18
3.950000E+03	8.280100E-16	2.125702E-18
3.960000E+03	8.346281E-16	2.142692E-18
3.970000E+03	8.412241E-16	2.159624E-18
3.980000E+03	8.477522E-16	2.176383E-18
3.990000E+03	8.542265E-16	2.193003E-18
4.000000E+03	8.606307E-16	2.209443E-18
4.010000E+03	8.669643E-16	2.225702E-18
4.020000E+03	8.732260E-16	2.241777E-18
4.030000E+03	8.794158E-16	2.257666E-18
4.040000E+03	8.855052E-16	2.273299E-18
4.050000E+03	8.915102E-16	2.288714E-18
4.060000E+03	8.974188E-16	2.303882E-18
4.070000E+03	9.032348E-16	2.318812E-18
4.080000E+03	9.089487E-16	2.333480E-18
4.090000E+03	9.145811E-16	2.347939E-18
4.100000E+03	9.201106E-16	2.362133E-18
4.110000E+03	9.255602E-16	2.376123E-18
4.120000E+03	9.309255E-16	2.389896E-18
4.130000E+03	9.362033E-16	2.403444E-18
4.140000E+03	9.414195E-16	2.416834E-18
4.150000E+03	9.465865E-16	2.430098E-18
4.160000E+03	9.516891E-16	2.443197E-18
4.170000E+03	9.567404E-16	2.456163E-18
4.180000E+03	9.617672E-16	2.469067E-18
4.190000E+03	9.667680E-16	2.481905E-18
4.200000E+03	9.717548E-16	2.494706E-18
4.210000E+03	9.767382E-16	2.507498E-18
4.220000E+03	9.817140E-16	2.520271E-18
4.230000E+03	9.867038E-16	2.533080E-18
4.240000E+03	9.917121E-16	2.545937E-18
4.250000E+03	9.967293E-16	2.558816E-18
4.260000E+03	1.001755E-15	2.571718E-18
4.270000E+03	1.006801E-15	2.584670E-18
4.280000E+03	1.011873E-15	2.597690E-18
4.290000E+03	1.016952E-15	2.610729E-18
4.300000E+03	1.022027E-15	2.623754E-18
4.310000E+03	1.027125E-15	2.636843E-18
4.320000E+03	1.032209E-15	2.649893E-18
4.330000E+03	1.037305E-15	2.662974E-18
4.340000E+03	1.042400E-15	2.676053E-18
4.350000E+03	1.047507E-15	2.689161E-18
4.360000E+03	1.052613E-15	2.702270E-18
4.370000E+03	1.057746E-15	2.715447E-18
4.380000E+03	1.062894E-15	2.728662E-18
4.390000E+03	1.068087E-15	2.741990E-18
4.400000E+03	1.073340E-15	2.755475E-18
4.410000E+03	1.078657E-15	2.769123E-18
4.420000E+03	1.084043E-15	2.782951E-18
4.430000E+03	1.089518E-15	2.797004E-18
4.440000E+03	1.095044E-15	2.811190E-18
4.450000E+03	1.100617E-15	2.825495E-18
4.460000E+03	1.106229E-15	2.839900E-18
4.470000E+03	1.111875E-15	2.854394E-18
4.480000E+03	1.117522E-15	2.868891E-18
4.490000E+03	1.123168E-15	2.883385E-18
4.500000E+03	1.128798E-15	2.897836E-18
4.510000E+03	1.134399E-15	2.912214E-18
4.520000E+03	1.139985E-15	2.926554E-18
4.530000E+03	1.145509E-15	2.940732E-18
4.540000E+03	1.151002E-15	2.954833E-18
4.550000E+03	1.156432E-15	2.968771E-18
4.560000E+03	1.161823E-15	2.982609E-18
4.570000E+03	1.167159E-15	2.996308E-18
4.580000E+03	1.172441E-15	3.009866E-18
4.590000E+03	1.177670E-15	3.023290E-18
4.600000E+03	1.182862E-15	3.036618E-18
4.610000E+03	1.188020E-15	3.049858E-18
4.620000E+03	1.193134E-15	3.062984E-18
4.630000E+03	1.198235E-15	3.076080E-18
4.640000E+03	1.203316E-15	3.089120E-18
4.650000E+03	1.208377E-15	3.102112E-18
4.660000E+03	1.213436E-15	3.115100E-18
4.670000E+03	1.218493E-15	3.128079E-18
4.680000E+03	1.223570E-15	3.141112E-18
4.690000E+03	1.228648E-15	3.154147E-18
4.700000E+03	1.233745E-15	3.167230E-18
4.710000E+03	1.238857E-15	3.180352E-18
4.720000E+03	1.243980E-15	3.193503E-18
4.730000E+03	1.249132E-15	3.206727E-18
4.740000E+03	1.254287E-15	3.219959E-18
4.750000E+03	1.259481E-15	3.233292E-18
4.760000E+03	1.264684E-15	3.246648E-18
4.770000E+03	1.269916E-15	3.260079E-18
4.780000E+03	1.275144E-15	3.273498E-18
4.790000E+03	1.280386E-15	3.286955E-18
4.800000E+03	1.285611E-15	3.300366E-18
4.810000E+03	1.290814E-15	3.313724E-18
4.820000E+03	1.295969E-15	3.326956E-18
4.830000E+03	1.301079E-15	3.340072E-18
4.840000E+03	1.306124E-15	3.353022E-18
4.850000E+03	1.311118E-15	3.365842E-18
4.860000E+03	1.316053E-15	3.378509E-18
4.870000E+03	1.320939E-15	3.391052E-18
4.880000E+03	1.325807E-15	3.403547E-18
4.890000E+03	1.330650E-15	3.415979E-18
4.900000E+03	1.335519E-15	3.428477E-18
4.910000E+03	1.340414E-15	3.441043E-18
4.920000E+03	1.345389E-15	3.453813E-18
4.930000E+03	1.350471E-15	3.466858E-18
4.940000E+03	1.355656E-15	3.480166E-18
4.950000E+03	1.360976E-15	3.493824E-18
4.960000E+03	1.366464E-15	3.507912E-18
4.970000E+03	1.372129E-15	3.522453E-18
4.980000E+03	1.377949E-15	3.537391E-18
4.990000E+03	1.383965E-15	3.552834E-18
5.000000E+03	1.390142E-15	3.568690E-18
5.010000E+03	1.396470E-15	3.584935E-18
5.020000E+03	1.402959E-15	3.601591E-18
5.030000E+03	1.409560E-15	3.618535E-18
5.040000E+03	1.416257E-15	3.635727E-18
5.050000E+03	1.423036E-15	3.653127E-18
5.060000E+03	1.429833E-15	3.670576E-18
5.070000E+03	1.436625E-15	3.688012E-18
5.080000E+03	1.443390E-15	3.705377E-18
5.090000E+03	1.450075E-15	3.722536E-18
5.100000E+03	1.456640E-15	3.739389E-18
5.110000E+03	1.463065E-15	3.755881E-18
5.120000E+03	1.469298E-15	3.771881E-18
5.130000E+03	1.475306E-15	3.787304E-18
5.140000E+03	1.481073E-15	3.802108E-18
5.150000E+03	1.486554E-15	3.816177E-18
5.160000E+03	1.491738E-15	3.829483E-18
5.170000E+03	1.496584E-15	3.841922E-18
5.180000E+03	1.501083E-15	3.853471E-18
5.190000E+03	1.505204E-15	3.864048E-18
5.200000E+03	1.508941E-15	3.873641E-18
5.210000E+03	1.512269E-15	3.882182E-18
5.220000E+03	1.515192E-15	3.889686E-18
5.230000E+03	1.517690E-15	3.896097E-18
5.240000E+03	1.519763E-15	3.901417E-18
5.250000E+03	1.521414E-15	3.905656E-18
5.260000E+03	1.522668E-15	3.908872E-18
5.270000E+03	1.523523E-15	3.911066E-18
5.280000E+03	1.523995E-15	3.912277E-18
5.290000E+03	1.524104E-15	3.912556E-18
5.300000E+03	1.523871E-15	3.911957E-18
5.310000E+03	1.523320E-15	3.910542E-18
5.320000E+03	1.522475E-15	3.908371E-18
5.330000E+03	1.521344E-15	3.905466E-18
5.340000E+03	1.519964E-15	3.901924E-18
5.350000E+03	1.518344E-15	3.897765E-18
5.360000E+03	1.516522E-15	3.893085E-18
5.370000E+03	1.514501E-15	3.887896E-18
5.380000E+03	1.512286E-15	3.882210E-18
5.390000E+03	1.509926E-15	3.876150E-18
5.400000E+03	1.507424E-15	3.869727E-18
5.410000E+03	1.504783E-15	3.862945E-18
5.420000E+03	1.502038E-15	3.855896E-18
5.430000E+03	1.499194E-15	3.848595E-18
5.440000E+03	1.496288E-15	3.841135E-18
5.450000E+03	1.493316E-15	3.833503E-18
5.460000E+03	1.490333E-15	3.825846E-18
5.470000E+03	1.487371E-15	3.818242E-18
5.480000E+03	1.484431E-15	3.810693E-18
5.490000E+03	1.481565E-15	3.803334E-18
5.500000E+03	1.478796E-15	3.796225E-18
5.510000E+03	1.476196E-15	3.789549E-18
5.520000E+03	1.473796E-15	3.783389E-18
5.530000E+03	1.471645E-15	3.777864E-18
5.540000E+03	1.469791E-15	3.773104E-18
5.550000E+03	1.468301E-15	3.769280E-18
5.560000E+03	1.467213E-15	3.766486E-18
5.570000E+03	1.466587E-15	3.764878E-18
5.580000E+03	1.466453E-15	3.764534E-18
5.590000E+03	1.466864E-15	3.765588E-18
5.600000E+03	1.467849E-15	3.768115E-18
5.610000E+03	1.469447E-15	3.772215E-18
5.620000E+03	1.471646E-15	3.777859E-18
5.630000E+03	1.474488E-15	3.785156E-18
5.640000E+03	1.477987E-15	3.794136E-18
5.650000E+03	1.482152E-15	3.804827E-18
5.660000E+03	1.486976E-15	3.817212E-18
5.670000E+03	1.492487E-15	3.831357E-18
5.680000E+03	1.498710E-15	3.847332E-18
5.690000E+03	1.505627E-15	3.865086E-18
5.700000E+03	1.513278E-15	3.884728E-18
5.710000E+03	1.521672E-15	3.906275E-18
5.720000E+03	1.530799E-15	3.929704E-18
5.730000E+03	1.540677E-15	3.955061E-18
5.740000E+03	1.551282E-15	3.982283E-18
5.750000E+03	1.562612E-15	4.011368E-18
5.760000E+03	1.574652E-15	4.042276E-18
5.770000E+03	1.587322E-15	4.074800E-18
5.780000E+03	1.600565E-15	4.108795E-18
5.790000E+03	1.614283E-15	4.144009E-18
5.800000E+03	1.628352E-15	4.180126E-18
5.810000E+03	1.642618E-15	4.216748E-18
5.820000E+03	1.656923E-15	4.253468E-18
5.830000E+03	1.671036E-15	4.289698E-18
5.840000E+03	1.684790E-15	4.325006E-18
5.850000E+03	1.697963E-15	4.358819E-18
5.860000E+03	1.710356E-15	4.390633E-18
5.870000E+03	1.721811E-15	4.420038E-18
5.880000E+03	1.732139E-15	4.446551E-18
5.890000E+03	1.741255E-15	4.469953E-18
5.900000E+03	1.749039E-15	4.489933E-18
5.910000E+03	1.755472E-15	4.506448E-18
5.920000E+03	1.760496E-15	4.519344E-18
5.930000E+03	1.764133E-15	4.528678E-18
5.940000E+03	1.766401E-15	4.534502E-18
5.950000E+03	1.767340E-15	4.536911E-18
5.960000E+03	1.766977E-15	4.535979E-18
5.970000E+03	1.765369E-15	4.531850E-18
5.980000E+03	1.762581E-15	4.524693E-18
5.990000E+03	1.758701E-15	4.514731E-18
6.000000E+03	1.753766E-15	4.502063E-18
6.010000E+03	1.747880E-15	4.486952E-18
6.020000E+03	1.741130E-15	4.469623E-18
6.030000E+03	1.733593E-15	4.450276E-18
6.040000E+03	1.725388E-15	4.429212E-18
6.050000E+03	1.716585E-15	4.406615E-18
6.060000E+03	1.707314E-15	4.382814E-18
6.070000E+03	1.697702E-15	4.358139E-18
6.080000E+03	1.687825E-15	4.332784E-18
6.090000E+03	1.677812E-15	4.307080E-18
6.100000E+03	1.667770E-15	4.281300E-18
6.110000E+03	1.657820E-15	4.255758E-18
6.120000E+03	1.648042E-15	4.230657E-18
6.130000E+03	1.638553E-15	4.206296E-18
6.140000E+03	1.629441E-15	4.182906E-18
6.150000E+03	1.620832E-15	4.160806E-18
6.160000E+03	1.612829E-15	4.140260E-18
6.170000E+03	1.605493E-15	4.121428E-18
6.180000E+03	1.598917E-15	4.104546E-18
6.190000E+03	1.593206E-15	4.089888E-18
6.200000E+03	1.588392E-15	4.077528E-18
6.210000E+03	1.584550E-15	4.067666E-18
6.220000E+03	1.581720E-15	4.060401E-18
6.230000E+03	1.579936E-15	4.055821E-18
6.240000E+03	1.579250E-15	4.054060E-18
6.250000E+03	1.579730E-15	4.055291E-18
6.260000E+03	1.581393E-15	4.059561E-18
6.270000E+03	1.584309E-15	4.067048E-18
6.280000E+03	1.588517E-15	4.077848E-18
6.290000E+03	1.594092E-15	4.092161E-18
6.300000E+03	1.601076E-15	4.110090E-18
6.310000E+03	1.609550E-15	4.131842E-18
6.320000E+03	1.619556E-15	4.157531E-18
6.330000E+03	1.631160E-15	4.187317E-18
6.340000E+03	1.644441E-15	4.221411E-18
6.350000E+03	1.659421E-15	4.259866E-18
6.360000E+03	1.676192E-15	4.302921E-18
6.370000E+03	1.694767E-15	4.350603E-18
6.380000E+03	1.715179E-15	4.403002E-18
6.390000E+03	1.737431E-15	4.460125E-18
6.400000E+03	1.761523E-15	4.521972E-18
6.410000E+03	1.787388E-15	4.588371E-18
6.420000E+03	1.814990E-15	4.659227E-18
6.430000E+03	1.844147E-15	4.734077E-18
6.440000E+03	1.874747E-15	4.812629E-18
6.450000E+03	1.906544E-15	4.894257E-18
6.460000E+03	1.939319E-15	4.978393E-18
6.470000E+03	1.972815E-15	5.064379E-18
6.480000E+03	2.006763E-15	5.151529E-18
6.490000E+03	2.040870E-15	5.239084E-18
6.500000E+03	2.074870E-15	5.326365E-18
6.510000E+03	2.108428E-15	5.412513E-18
6.520000E+03	2.141202E-15	5.496647E-18
6.530000E+03	2.172842E-15	5.577872E-18
6.540000E+03	2.202997E-15	5.655281E-18
6.550000E+03	2.231293E-15	5.727921E-18
6.560000E+03	2.257428E-15	5.795012E-18
6.570000E+03	2.281062E-15	5.855684E-18
6.580000E+03	2.301884E-15	5.909136E-18
6.590000E+03	2.319619E-15	5.954665E-18
6.600000E+03	2.334098E-15	5.991836E-18
6.610000E+03	2.345120E-15	6.020133E-18
6.620000E+03	2.352575E-15	6.039272E-18
6.630000E+03	2.356447E-15	6.049213E-18
6.640000E+03	2.356763E-15	6.050024E-18
6.650000E+03	2.353614E-15	6.041943E-18
6.660000E+03	2.347187E-15	6.025443E-18
6.670000E+03	2.337636E-15	6.000927E-18
6.680000E+03	2.325285E-15	5.969222E-18
6.690000E+03	2.310436E-15	5.931104E-18
6.700000E+03	2.293420E-15	5.887425E-18
6.710000E+03	2.274552E-15	5.838989E-18
6.720000E+03	2.254209E-15	5.786768E-18
6.730000E+03	2.232736E-15	5.731648E-18
6.740000E+03	2.210464E-15	5.674474E-18
6.750000E+03	2.187697E-15	5.616033E-18
6.760000E+03	2.164752E-15	5.557130E-18
6.770000E+03	2.141820E-15	5.498264E-18
6.780000E+03	2.119184E-15	5.440156E-18
6.790000E+03	2.096977E-15	5.383151E-18
6.800000E+03	2.075417E-15	5.327806E-18
6.810000E+03	2.054635E-15	5.274457E-18
6.820000E+03	2.034674E-15	5.223218E-18
6.830000E+03	2.015674E-15	5.174444E-18
6.840000E+03	1.997662E-15	5.128206E-18
6.850000E+03	1.980709E-15	5.084688E-18
6.860000E+03	1.964819E-15	5.043898E-18
6.870000E+03	1.950012E-15	5.005889E-18
6.880000E+03	1.936305E-15	4.970704E-18
6.890000E+03	1.923741E-15	4.938451E-18
6.900000E+03	1.912298E-15	4.909077E-18
6.910000E+03	1.901982E-15	4.882598E-18
6.920000E+03	1.892795E-15	4.859015E-18
6.930000E+03	1.884756E-15	4.838380E-18
6.940000E+03	1.877799E-15	4.820521E-18
6.950000E+03	1.871957E-15	4.805525E-18
6.960000E+03	1.867180E-15	4.793263E-18
6.970000E+03	1.863435E-15	4.783653E-18
6.980000E+03	1.860717E-15	4.776677E-18
6.990000E+03	1.858932E-15	4.772096E-18
7.000000E+03	1.858068E-15	4.769880E-18
7.010000E+03	1.858083E-15	4.769920E-18
7.020000E+03	1.858931E-15	4.772099E-18
7.030000E+03	1.860565E-15	4.776295E-18
7.040000E+03	1.862905E-15	4.782302E-18
7.050000E+03	1.865947E-15	4.790114E-18
7.060000E+03	1.869572E-15	4.799422E-18
7.070000E+03	1.873736E-15	4.810114E-18
7.080000E+03	1.878334E-15	4.821918E-18
7.090000E+03	1.883307E-15	4.834686E-18
7.100000E+03	1.888539E-15	4.848120E-18
7.110000E+03	1.893967E-15	4.862056E-18
7.120000E+03	1.899496E-15	4.876253E-18
7.130000E+03	1.904979E-15	4.890328E-18
7.140000E+03	1.910414E-15	4.904282E-18
7.150000E+03	1.915632E-15	4.917681E-18
7.160000E+03	1.920627E-15	4.930505E-18
7.170000E+03	1.925277E-15	4.942445E-18
7.180000E+03	1.929596E-15	4.953533E-18
7.190000E+03	1.933513E-15	4.963591E-18
7.200000E+03	1.936999E-15	4.972543E-18
7.210000E+03	1.940064E-15	4.980413E-18
7.220000E+03	1.942629E-15	4.986999E-18
7.230000E+03	1.944716E-15	4.992359E-18
7.240000E+03	1.946290E-15	4.996401E-18
7.250000E+03	1.947416E-15	4.999295E-18
7.260000E+03	1.948043E-15	5.000907E-18
7.270000E+03	1.948252E-15	5.001444E-18
7.280000E+03	1.947975E-15	5.000734E-18
7.290000E+03	1.947341E-15	4.999108E-18
7.300000E+03	1.946326E-15	4.996506E-18
7.310000E+03	1.945009E-15	4.993127E-18
7.320000E+03	1.943405E-15	4.989011E-18
7.330000E+03	1.941597E-15	4.984372E-18
7.340000E+03	1.939603E-15	4.979256E-18
7.350000E+03	1.937507E-15	4.973876E-18
7.360000E+03	1.935354E-15	4.968352E-18
7.370000E+03	1.933126E-15	4.962635E-18
7.380000E+03	1.930964E-15	4.957086E-18
7.390000E+03	1.928808E-15	4.951554E-18
7.400000E+03	1.926791E-15	4.946378E-18
7.410000E+03	1.924875E-15	4.941462E-18
7.420000E+03	1.923119E-15	4.936954E-18
7.430000E+03	1.921507E-15	4.932818E-18
7.440000E+03	1.920120E-15	4.929262E-18
7.450000E+03	1.918905E-15	4.926142E-18
7.460000E+03	1.917866E-15	4.923480E-18
7.470000E+03	1.917049E-15	4.921382E-18
7.480000E+03	1.916423E-15	4.919779E-18
7.490000E+03	1.916031E-15	4.918774E-18
7.500000E+03	1.915817E-15	4.918226E-18
7.510000E+03	1.915856E-15	4.918330E-18
7.520000E+03	1.916095E-15	4.918945E-18
7.530000E+03	1.916582E-15	4.920196E-18
7.540000E+03	1.917327E-15	4.922111E-18
7.550000E+03	1.918343E-15	4.924722E-18
7.560000E+03	1.919644E-15	4.928063E-18
7.570000E+03	1.921201E-15	4.932063E-18
7.580000E+03	1.923055E-15	4.936824E-18
7.590000E+03	1.925211E-15	4.942363E-18
7.600000E+03	1.927673E-15	4.948684E-18
7.610000E+03	1.930440E-15	4.955790E-18
7.620000E+03	1.933479E-15	4.963594E-18
7.630000E+03	1.936826E-15	4.972189E-18
7.640000E+03	1.940485E-15	4.981584E-18
7.650000E+03	1.944423E-15	4.991695E-18
7.660000E+03	1.948718E-15	5.002723E-18
7.670000E+03	1.953303E-15	5.014497E-18
7.680000E+03	1.958225E-15	5.027134E-18
7.690000E+03	1.963453E-15	5.040557E-18
7.700000E+03	1.969060E-15	5.054953E-18
7.710000E+03	1.974973E-15	5.070137E-18
7.720000E+03	1.981218E-15	5.086171E-18
7.730000E+03	1.987777E-15	5.103010E-18
7.740000E+03	1.994586E-15	5.120493E-18
7.750000E+03	2.001642E-15	5.138609E-18
7.760000E+03	2.008898E-15	5.157240E-18
