#wls	flux	fluxerr
1.600000E+03	2.020806E-16	4.895392E-18
1.640000E+03	2.033529E-16	4.907041E-18
1.680000E+03	2.046418E-16	4.918376E-18
1.720000E+03	2.060169E-16	4.931043E-18
1.760000E+03	2.074407E-16	4.944099E-18
1.800000E+03	2.089832E-16	4.959174E-18
1.840000E+03	2.105704E-16	4.974464E-18
1.880000E+03	2.123087E-16	4.992428E-18
1.920000E+03	2.141963E-16	5.012955E-18
1.960000E+03	2.162308E-16	5.035916E-18
2.000000E+03	2.184831E-16	5.062876E-18
2.040000E+03	2.209504E-16	5.093665E-18
2.080000E+03	2.237036E-16	5.129800E-18
2.120000E+03	2.267388E-16	5.171057E-18
2.160000E+03	2.301261E-16	5.218879E-18
2.200000E+03	2.339346E-16	5.274653E-18
2.240000E+03	2.380843E-16	5.336373E-18
2.280000E+03	2.426422E-16	5.405348E-18
2.320000E+03	2.475252E-16	5.479517E-18
2.360000E+03	2.527601E-16	5.559279E-18
2.400000E+03	2.582610E-16	5.642542E-18
2.440000E+03	2.640143E-16	5.728833E-18
2.480000E+03	2.700051E-16	5.817652E-18
2.520000E+03	2.762167E-16	5.908459E-18
2.560000E+03	2.826307E-16	6.000689E-18
2.600000E+03	2.891899E-16	6.092965E-18
2.640000E+03	2.958726E-16	6.184683E-18
2.680000E+03	3.026552E-16	6.275211E-18
2.720000E+03	3.095849E-16	6.365390E-18
2.760000E+03	3.165973E-16	6.453744E-18
2.800000E+03	3.237344E-16	6.540996E-18
2.840000E+03	3.309268E-16	6.625599E-18
2.880000E+03	3.381041E-16	6.706042E-18
2.920000E+03	3.451595E-16	6.780144E-18
2.960000E+03	3.520221E-16	6.846514E-18
3.000000E+03	3.586550E-16	6.904470E-18
3.010000E+03	3.602957E-16	6.918002E-18
3.020000E+03	3.619038E-16	6.930664E-18
3.030000E+03	3.635134E-16	6.943106E-18
3.040000E+03	3.650893E-16	6.954659E-18
3.050000E+03	3.666653E-16	6.965969E-18
3.060000E+03	3.682405E-16	6.977016E-18
3.070000E+03	3.697802E-16	6.987146E-18
3.080000E+03	3.713178E-16	6.996992E-18
3.090000E+03	3.728525E-16	7.006535E-18
3.100000E+03	3.743499E-16	7.015133E-18
3.110000E+03	3.758765E-16	7.024033E-18
3.120000E+03	3.773644E-16	7.031964E-18
3.130000E+03	3.788797E-16	7.040158E-18
3.140000E+03	3.803547E-16	7.047357E-18
3.150000E+03	3.818553E-16	7.054783E-18
3.160000E+03	3.833473E-16	7.061801E-18
3.170000E+03	3.848298E-16	7.068394E-18
3.180000E+03	3.863348E-16	7.075149E-18
3.190000E+03	3.878286E-16	7.081445E-18
3.200000E+03	3.893425E-16	7.087856E-18
3.210000E+03	3.908432E-16	7.093771E-18
3.220000E+03	3.923942E-16	7.100339E-18
3.230000E+03	3.939298E-16	7.106368E-18
3.240000E+03	3.954811E-16	7.112416E-18
3.250000E+03	3.970787E-16	7.119030E-18
3.260000E+03	3.986893E-16	7.125607E-18
3.270000E+03	4.003116E-16	7.132119E-18
3.280000E+03	4.020072E-16	7.139657E-18
3.290000E+03	4.037116E-16	7.147067E-18
3.300000E+03	4.054548E-16	7.154874E-18
3.310000E+03	4.072351E-16	7.163041E-18
3.320000E+03	4.090815E-16	7.172069E-18
3.330000E+03	4.109922E-16	7.181915E-18
3.340000E+03	4.129346E-16	7.191999E-18
3.350000E+03	4.149677E-16	7.203338E-18
3.360000E+03	4.170892E-16	7.215873E-18
3.370000E+03	4.192664E-16	7.229028E-18
3.380000E+03	4.215274E-16	7.243272E-18
3.390000E+03	4.238993E-16	7.259053E-18
3.400000E+03	4.263792E-16	7.276302E-18
3.410000E+03	4.289349E-16	7.294450E-18
3.420000E+03	4.316517E-16	7.314927E-18
3.430000E+03	4.344676E-16	7.336657E-18
3.440000E+03	4.374377E-16	7.360547E-18
3.450000E+03	4.405582E-16	7.386503E-18
3.460000E+03	4.438541E-16	7.414917E-18
3.470000E+03	4.472932E-16	7.445215E-18
3.480000E+03	4.509284E-16	7.478250E-18
3.490000E+03	4.547557E-16	7.513916E-18
3.500000E+03	4.587709E-16	7.552107E-18
3.510000E+03	4.629981E-16	7.593183E-18
3.520000E+03	4.674608E-16	7.637484E-18
3.530000E+03	4.721545E-16	7.684894E-18
3.540000E+03	4.770751E-16	7.735299E-18
3.550000E+03	4.822459E-16	7.789030E-18
3.560000E+03	4.876358E-16	7.845539E-18
3.570000E+03	4.932946E-16	7.905578E-18
3.580000E+03	4.991651E-16	7.968182E-18
3.590000E+03	5.052443E-16	8.033260E-18
3.600000E+03	5.115553E-16	8.101135E-18
3.610000E+03	5.180950E-16	8.171711E-18
3.620000E+03	5.248087E-16	8.244084E-18
3.630000E+03	5.317460E-16	8.318988E-18
3.640000E+03	5.388533E-16	8.395547E-18
3.650000E+03	5.461549E-16	8.474100E-18
3.660000E+03	5.536243E-16	8.554198E-18
3.670000E+03	5.612860E-16	8.636182E-18
3.680000E+03	5.690899E-16	8.719240E-18
3.690000E+03	5.770616E-16	8.803736E-18
3.700000E+03	5.852016E-16	8.889641E-18
3.710000E+03	5.935111E-16	8.976935E-18
3.720000E+03	6.019429E-16	9.064872E-18
3.730000E+03	6.105474E-16	9.154180E-18
3.740000E+03	6.192780E-16	9.244126E-18
3.750000E+03	6.281371E-16	9.334718E-18
3.760000E+03	6.371508E-16	9.426313E-18
3.770000E+03	6.462736E-16	9.518208E-18
3.780000E+03	6.555313E-16	9.610756E-18
3.790000E+03	6.649027E-16	9.703619E-18
3.800000E+03	6.743901E-16	9.796803E-18
3.810000E+03	6.839727E-16	9.889984E-18
3.820000E+03	6.936758E-16	9.983501E-18
3.830000E+03	7.034558E-16	1.007671E-17
3.840000E+03	7.133377E-16	1.016994E-17
3.850000E+03	7.233239E-16	1.026321E-17
3.860000E+03	7.333712E-16	1.035588E-17
3.870000E+03	7.435044E-16	1.044829E-17
3.880000E+03	7.537031E-16	1.054014E-17
3.890000E+03	7.639473E-16	1.063113E-17
3.900000E+03	7.742609E-16	1.072158E-17
3.910000E+03	7.846236E-16	1.081120E-17
3.920000E+03	7.950370E-16	1.089999E-17
3.930000E+03	8.054804E-16	1.098768E-17
3.940000E+03	8.159552E-16	1.107426E-17
3.950000E+03	8.264407E-16	1.115945E-17
3.960000E+03	8.369590E-16	1.124356E-17
3.970000E+03	8.474681E-16	1.132601E-17
3.980000E+03	8.579683E-16	1.140680E-17
3.990000E+03	8.684811E-16	1.148623E-17
4.000000E+03	8.789427E-16	1.156346E-17
4.010000E+03	8.893954E-16	1.163905E-17
4.020000E+03	8.998176E-16	1.171273E-17
4.030000E+03	9.101876E-16	1.178422E-17
4.040000E+03	9.204837E-16	1.185326E-17
4.050000E+03	9.307464E-16	1.192039E-17
4.060000E+03	9.409121E-16	1.198481E-17
4.070000E+03	9.510002E-16	1.204679E-17
4.080000E+03	9.610092E-16	1.210633E-17
4.090000E+03	9.708970E-16	1.216292E-17
4.100000E+03	9.807038E-16	1.221711E-17
4.110000E+03	9.903686E-16	1.226815E-17
4.120000E+03	9.999329E-16	1.231659E-17
4.130000E+03	1.009379E-15	1.236225E-17
4.140000E+03	1.018689E-15	1.240494E-17
4.150000E+03	1.027890E-15	1.244502E-17
4.160000E+03	1.036966E-15	1.248235E-17
4.170000E+03	1.045906E-15	1.251681E-17
4.180000E+03	1.054759E-15	1.254902E-17
4.190000E+03	1.063494E-15	1.257865E-17
4.200000E+03	1.072121E-15	1.260586E-17
4.210000E+03	1.080671E-15	1.263104E-17
4.220000E+03	1.089153E-15	1.265432E-17
4.230000E+03	1.097557E-15	1.267562E-17
4.240000E+03	1.105911E-15	1.269528E-17
4.250000E+03	1.114204E-15	1.271320E-17
4.260000E+03	1.122460E-15	1.272968E-17
4.270000E+03	1.130702E-15	1.274501E-17
4.280000E+03	1.138896E-15	1.275880E-17
4.290000E+03	1.147098E-15	1.277174E-17
4.300000E+03	1.155269E-15	1.278339E-17
4.310000E+03	1.163446E-15	1.279417E-17
4.320000E+03	1.171605E-15	1.280385E-17
4.330000E+03	1.179779E-15	1.281280E-17
4.340000E+03	1.187943E-15	1.282079E-17
4.350000E+03	1.196131E-15	1.282818E-17
4.360000E+03	1.204337E-15	1.283493E-17
4.370000E+03	1.212555E-15	1.284100E-17
4.380000E+03	1.220821E-15	1.284678E-17
4.390000E+03	1.229112E-15	1.285206E-17
4.400000E+03	1.237448E-15	1.285705E-17
4.410000E+03	1.245847E-15	1.286194E-17
4.420000E+03	1.254313E-15	1.286681E-17
4.430000E+03	1.262849E-15	1.287170E-17
4.440000E+03	1.271481E-15	1.287687E-17
4.450000E+03	1.280195E-15	1.288221E-17
4.460000E+03	1.289020E-15	1.288800E-17
4.470000E+03	1.297945E-15	1.289416E-17
4.480000E+03	1.306980E-15	1.290079E-17
4.490000E+03	1.316136E-15	1.290802E-17
4.500000E+03	1.325388E-15	1.291560E-17
4.510000E+03	1.334767E-15	1.292387E-17
4.520000E+03	1.344267E-15	1.293276E-17
4.530000E+03	1.353884E-15	1.294227E-17
4.540000E+03	1.363634E-15	1.295255E-17
4.550000E+03	1.373513E-15	1.296359E-17
4.560000E+03	1.383521E-15	1.297540E-17
4.570000E+03	1.393691E-15	1.298832E-17
4.580000E+03	1.404005E-15	1.300218E-17
4.590000E+03	1.414479E-15	1.301715E-17
4.600000E+03	1.425130E-15	1.303341E-17
4.610000E+03	1.435934E-15	1.305077E-17
4.620000E+03	1.446943E-15	1.306972E-17
4.630000E+03	1.458133E-15	1.309004E-17
4.640000E+03	1.469513E-15	1.311184E-17
4.650000E+03	1.481086E-15	1.313519E-17
4.660000E+03	1.492854E-15	1.316012E-17
4.670000E+03	1.504793E-15	1.318644E-17
4.680000E+03	1.516932E-15	1.321443E-17
4.690000E+03	1.529193E-15	1.324346E-17
4.700000E+03	1.541609E-15	1.327385E-17
4.710000E+03	1.554103E-15	1.330498E-17
4.720000E+03	1.566629E-15	1.333651E-17
4.730000E+03	1.579146E-15	1.336815E-17
4.740000E+03	1.591561E-15	1.339920E-17
4.750000E+03	1.603811E-15	1.342920E-17
4.760000E+03	1.615773E-15	1.345722E-17
4.770000E+03	1.627314E-15	1.348226E-17
4.780000E+03	1.638323E-15	1.350353E-17
4.790000E+03	1.648619E-15	1.351968E-17
4.800000E+03	1.658058E-15	1.352969E-17
4.810000E+03	1.666462E-15	1.353227E-17
4.820000E+03	1.673835E-15	1.352764E-17
4.830000E+03	1.680277E-15	1.351678E-17
4.840000E+03	1.685866E-15	1.350047E-17
4.850000E+03	1.690718E-15	1.347977E-17
4.860000E+03	1.694939E-15	1.345565E-17
4.870000E+03	1.698594E-15	1.342873E-17
4.880000E+03	1.701780E-15	1.339983E-17
4.890000E+03	1.704575E-15	1.336955E-17
4.900000E+03	1.707026E-15	1.333826E-17
4.910000E+03	1.709219E-15	1.330662E-17
4.920000E+03	1.711214E-15	1.327508E-17
4.930000E+03	1.713064E-15	1.324400E-17
4.940000E+03	1.714800E-15	1.321361E-17
4.950000E+03	1.716501E-15	1.318444E-17
4.960000E+03	1.718187E-15	1.315663E-17
4.970000E+03	1.719888E-15	1.313034E-17
4.980000E+03	1.721633E-15	1.310573E-17
4.990000E+03	1.723440E-15	1.308290E-17
5.000000E+03	1.725347E-15	1.306206E-17
5.010000E+03	1.727341E-15	1.304307E-17
5.020000E+03	1.729449E-15	1.302607E-17
5.030000E+03	1.731652E-15	1.301085E-17
5.040000E+03	1.733966E-15	1.299748E-17
5.050000E+03	1.736379E-15	1.298581E-17
5.060000E+03	1.738861E-15	1.297554E-17
5.070000E+03	1.741434E-15	1.296679E-17
5.080000E+03	1.744057E-15	1.295921E-17
5.090000E+03	1.746690E-15	1.295242E-17
5.100000E+03	1.749366E-15	1.294662E-17
5.110000E+03	1.752001E-15	1.294115E-17
5.120000E+03	1.754603E-15	1.293599E-17
5.130000E+03	1.757144E-15	1.293090E-17
5.140000E+03	1.759594E-15	1.292560E-17
5.150000E+03	1.761903E-15	1.291969E-17
5.160000E+03	1.764062E-15	1.291303E-17
5.170000E+03	1.766040E-15	1.290536E-17
5.180000E+03	1.767809E-15	1.289643E-17
5.190000E+03	1.769341E-15	1.288599E-17
5.200000E+03	1.770612E-15	1.287384E-17
5.210000E+03	1.771620E-15	1.285989E-17
5.220000E+03	1.772306E-15	1.284370E-17
5.230000E+03	1.772693E-15	1.282538E-17
5.240000E+03	1.772765E-15	1.280479E-17
5.250000E+03	1.772497E-15	1.278170E-17
5.260000E+03	1.771880E-15	1.275603E-17
5.270000E+03	1.770911E-15	1.272771E-17
5.280000E+03	1.769609E-15	1.269684E-17
5.290000E+03	1.767977E-15	1.266342E-17
5.300000E+03	1.765999E-15	1.262731E-17
5.310000E+03	1.763686E-15	1.258855E-17
5.320000E+03	1.761063E-15	1.254730E-17
5.330000E+03	1.758142E-15	1.250361E-17
5.340000E+03	1.754918E-15	1.245743E-17
5.350000E+03	1.751408E-15	1.240884E-17
5.360000E+03	1.747644E-15	1.235807E-17
5.370000E+03	1.743629E-15	1.230509E-17
5.380000E+03	1.739398E-15	1.225016E-17
5.390000E+03	1.734955E-15	1.219327E-17
5.400000E+03	1.730321E-15	1.213454E-17
5.410000E+03	1.725535E-15	1.207425E-17
5.420000E+03	1.720602E-15	1.201240E-17
5.430000E+03	1.715545E-15	1.194914E-17
5.440000E+03	1.710402E-15	1.188472E-17
5.450000E+03	1.705182E-15	1.181919E-17
5.460000E+03	1.699920E-15	1.175277E-17
5.470000E+03	1.694624E-15	1.168552E-17
5.480000E+03	1.689317E-15	1.161756E-17
5.490000E+03	1.684038E-15	1.154916E-17
5.500000E+03	1.678793E-15	1.148034E-17
5.510000E+03	1.673608E-15	1.141127E-17
5.520000E+03	1.668506E-15	1.134209E-17
5.530000E+03	1.663530E-15	1.127308E-17
5.540000E+03	1.658706E-15	1.120439E-17
5.550000E+03	1.654062E-15	1.113620E-17
5.560000E+03	1.649641E-15	1.106879E-17
5.570000E+03	1.645449E-15	1.100216E-17
5.580000E+03	1.641533E-15	1.093662E-17
5.590000E+03	1.637915E-15	1.087228E-17
5.600000E+03	1.634619E-15	1.080928E-17
5.610000E+03	1.631654E-15	1.074765E-17
5.620000E+03	1.629058E-15	1.068762E-17
5.630000E+03	1.626855E-15	1.062930E-17
5.640000E+03	1.625069E-15	1.057284E-17
5.650000E+03	1.623740E-15	1.051844E-17
5.660000E+03	1.622859E-15	1.046602E-17
5.670000E+03	1.622467E-15	1.041579E-17
5.680000E+03	1.622602E-15	1.036796E-17
5.690000E+03	1.623270E-15	1.032252E-17
5.700000E+03	1.624488E-15	1.027953E-17
5.710000E+03	1.626271E-15	1.023904E-17
5.720000E+03	1.628644E-15	1.020114E-17
5.730000E+03	1.631593E-15	1.016571E-17
5.740000E+03	1.635128E-15	1.013274E-17
5.750000E+03	1.639219E-15	1.010199E-17
5.760000E+03	1.643855E-15	1.007335E-17
5.770000E+03	1.648987E-15	1.004645E-17
5.780000E+03	1.654585E-15	1.002109E-17
5.790000E+03	1.660577E-15	9.996774E-18
5.800000E+03	1.666918E-15	9.973200E-18
5.810000E+03	1.673520E-15	9.949816E-18
5.820000E+03	1.680324E-15	9.926256E-18
5.830000E+03	1.687235E-15	9.901953E-18
5.840000E+03	1.694175E-15	9.876456E-18
5.850000E+03	1.701084E-15	9.849426E-18
5.860000E+03	1.707871E-15	9.820375E-18
5.870000E+03	1.714473E-15	9.788972E-18
5.880000E+03	1.720829E-15	9.754922E-18
5.890000E+03	1.726888E-15	9.717999E-18
5.900000E+03	1.732608E-15	9.678045E-18
5.910000E+03	1.737955E-15	9.634941E-18
5.920000E+03	1.742881E-15	9.588519E-18
5.930000E+03	1.747367E-15	9.538762E-18
5.940000E+03	1.751412E-15	9.485783E-18
5.950000E+03	1.754987E-15	9.429531E-18
5.960000E+03	1.758070E-15	9.370001E-18
5.970000E+03	1.760694E-15	9.307498E-18
5.980000E+03	1.762808E-15	9.241882E-18
5.990000E+03	1.764460E-15	9.173530E-18
6.000000E+03	1.765645E-15	9.102560E-18
6.010000E+03	1.766371E-15	9.029147E-18
6.020000E+03	1.766682E-15	8.953663E-18
6.030000E+03	1.766602E-15	8.876359E-18
6.040000E+03	1.766171E-15	8.797592E-18
6.050000E+03	1.765425E-15	8.717668E-18
6.060000E+03	1.764436E-15	8.637088E-18
6.070000E+03	1.763227E-15	8.556095E-18
6.080000E+03	1.761873E-15	8.475196E-18
6.090000E+03	1.760398E-15	8.394628E-18
6.100000E+03	1.758892E-15	8.314954E-18
6.110000E+03	1.757368E-15	8.236363E-18
6.120000E+03	1.755871E-15	8.159195E-18
6.130000E+03	1.754437E-15	8.083745E-18
6.140000E+03	1.753080E-15	8.010208E-18
6.150000E+03	1.751822E-15	7.938816E-18
6.160000E+03	1.750677E-15	7.869769E-18
6.170000E+03	1.749649E-15	7.803226E-18
6.180000E+03	1.748692E-15	7.739124E-18
6.190000E+03	1.747817E-15	7.677670E-18
6.200000E+03	1.746959E-15	7.618739E-18
6.210000E+03	1.746066E-15	7.562267E-18
6.220000E+03	1.745034E-15	7.507981E-18
6.230000E+03	1.744057E-15	7.456901E-18
6.240000E+03	1.743501E-15	7.410743E-18
6.250000E+03	1.743707E-15	7.371103E-18
6.260000E+03	1.745014E-15	7.339526E-18
6.270000E+03	1.747636E-15	7.317036E-18
6.280000E+03	1.751822E-15	7.304776E-18
6.290000E+03	1.757719E-15	7.303434E-18
6.300000E+03	1.765484E-15	7.313712E-18
6.310000E+03	1.775239E-15	7.336201E-18
6.320000E+03	1.787034E-15	7.371194E-18
6.330000E+03	1.800969E-15	7.419235E-18
6.340000E+03	1.817089E-15	7.480654E-18
6.350000E+03	1.835426E-15	7.555763E-18
6.360000E+03	1.856011E-15	7.644900E-18
6.370000E+03	1.878822E-15	7.748205E-18
6.380000E+03	1.903850E-15	7.865920E-18
6.390000E+03	1.931071E-15	7.998241E-18
6.400000E+03	1.960410E-15	8.145187E-18
6.410000E+03	1.991763E-15	8.306681E-18
6.420000E+03	2.025013E-15	8.482610E-18
6.430000E+03	2.059988E-15	8.672653E-18
6.440000E+03	2.096521E-15	8.876508E-18
6.450000E+03	2.134349E-15	9.093468E-18
6.460000E+03	2.173219E-15	9.322870E-18
6.470000E+03	2.212828E-15	9.563790E-18
6.480000E+03	2.252860E-15	9.815238E-18
6.490000E+03	2.292953E-15	1.007591E-17
6.500000E+03	2.332718E-15	1.034425E-17
6.510000E+03	2.371751E-15	1.061853E-17
6.520000E+03	2.409633E-15	1.089684E-17
6.530000E+03	2.445944E-15	1.117720E-17
6.540000E+03	2.480268E-15	1.145749E-17
6.550000E+03	2.512207E-15	1.173559E-17
6.560000E+03	2.541416E-15	1.200948E-17
6.570000E+03	2.567528E-15	1.227693E-17
6.580000E+03	2.590312E-15	1.253624E-17
6.590000E+03	2.609469E-15	1.278528E-17
6.600000E+03	2.624883E-15	1.302272E-17
6.610000E+03	2.636408E-15	1.324700E-17
6.620000E+03	2.644026E-15	1.345714E-17
6.630000E+03	2.647750E-15	1.365228E-17
6.640000E+03	2.647656E-15	1.383186E-17
6.650000E+03	2.643874E-15	1.399560E-17
6.660000E+03	2.636614E-15	1.414365E-17
6.670000E+03	2.626093E-15	1.427626E-17
6.680000E+03	2.612568E-15	1.439391E-17
6.690000E+03	2.596283E-15	1.449712E-17
6.700000E+03	2.577600E-15	1.458709E-17
6.710000E+03	2.556825E-15	1.466483E-17
6.720000E+03	2.534241E-15	1.473131E-17
6.730000E+03	2.510192E-15	1.478792E-17
6.740000E+03	2.484955E-15	1.483579E-17
6.750000E+03	2.458886E-15	1.487660E-17
6.760000E+03	2.432239E-15	1.491153E-17
6.770000E+03	2.405309E-15	1.494211E-17
6.780000E+03	2.378283E-15	1.496928E-17
6.790000E+03	2.351474E-15	1.499486E-17
6.800000E+03	2.325024E-15	1.501969E-17
6.810000E+03	2.299142E-15	1.504508E-17
6.820000E+03	2.273953E-15	1.507189E-17
6.830000E+03	2.249647E-15	1.510143E-17
6.840000E+03	2.226272E-15	1.513418E-17
6.850000E+03	2.203974E-15	1.517125E-17
6.860000E+03	2.182789E-15	1.521309E-17
6.870000E+03	2.162741E-15	1.526005E-17
6.880000E+03	2.143915E-15	1.531298E-17
6.890000E+03	2.126333E-15	1.537226E-17
6.900000E+03	2.109945E-15	1.543779E-17
6.910000E+03	2.094805E-15	1.551022E-17
6.920000E+03	2.080876E-15	1.558952E-17
6.930000E+03	2.068136E-15	1.567581E-17
6.940000E+03	2.056587E-15	1.576937E-17
6.950000E+03	2.046171E-15	1.587000E-17
6.960000E+03	2.036849E-15	1.597765E-17
6.970000E+03	2.028604E-15	1.609245E-17
6.980000E+03	2.021364E-15	1.621405E-17
6.990000E+03	2.015079E-15	1.634228E-17
7.000000E+03	2.009720E-15	1.647714E-17
7.010000E+03	2.005179E-15	1.661793E-17
7.020000E+03	2.001455E-15	1.676482E-17
7.030000E+03	1.998459E-15	1.691727E-17
7.040000E+03	1.996134E-15	1.707496E-17
7.050000E+03	1.994423E-15	1.723752E-17
7.060000E+03	1.993265E-15	1.740457E-17
7.070000E+03	1.992579E-15	1.757554E-17
7.080000E+03	1.992363E-15	1.775048E-17
7.090000E+03	1.992512E-15	1.792857E-17
7.100000E+03	1.992981E-15	1.810947E-17
7.110000E+03	1.993750E-15	1.829307E-17
7.120000E+03	1.994784E-15	1.847910E-17
7.130000E+03	1.995995E-15	1.866678E-17
7.140000E+03	1.997411E-15	1.885641E-17
7.150000E+03	1.998983E-15	1.904756E-17
7.160000E+03	2.000668E-15	1.923985E-17
7.170000E+03	2.002482E-15	1.943343E-17
7.180000E+03	2.004394E-15	1.962801E-17
7.190000E+03	2.006398E-15	1.982357E-17
7.200000E+03	2.008499E-15	2.002015E-17
7.210000E+03	2.010701E-15	2.021780E-17
7.220000E+03	2.013011E-15	2.041662E-17
7.230000E+03	2.015384E-15	2.061614E-17
7.240000E+03	2.017887E-15	2.081706E-17
7.250000E+03	2.020478E-15	2.101897E-17
7.260000E+03	2.023170E-15	2.122203E-17
7.270000E+03	2.025982E-15	2.142643E-17
7.280000E+03	2.028925E-15	2.163232E-17
7.290000E+03	2.031992E-15	2.183964E-17
7.300000E+03	2.035195E-15	2.204855E-17
7.310000E+03	2.038524E-15	2.225896E-17
7.320000E+03	2.041966E-15	2.247074E-17
7.330000E+03	2.045589E-15	2.268468E-17
7.340000E+03	2.049326E-15	2.290004E-17
7.350000E+03	2.053187E-15	2.311698E-17
7.360000E+03	2.057215E-15	2.333599E-17
7.370000E+03	2.061367E-15	2.355662E-17
7.380000E+03	2.065653E-15	2.377900E-17
7.390000E+03	2.070058E-15	2.400298E-17
7.400000E+03	2.074624E-15	2.422908E-17
7.410000E+03	2.079302E-15	2.445675E-17
7.420000E+03	2.084107E-15	2.468618E-17
7.430000E+03	2.089076E-15	2.491785E-17
7.440000E+03	2.094195E-15	2.515159E-17
7.450000E+03	2.099444E-15	2.538721E-17
7.460000E+03	2.104893E-15	2.562560E-17
7.470000E+03	2.110526E-15	2.586656E-17
7.480000E+03	2.116411E-15	2.611101E-17
7.490000E+03	2.122503E-15	2.635842E-17
7.500000E+03	2.128904E-15	2.661010E-17
7.510000E+03	2.135595E-15	2.686590E-17
7.520000E+03	2.142620E-15	2.712642E-17
7.530000E+03	2.149989E-15	2.739187E-17
7.540000E+03	2.157746E-15	2.766287E-17
7.550000E+03	2.165902E-15	2.793965E-17
7.560000E+03	2.174466E-15	2.822243E-17
7.570000E+03	2.183478E-15	2.851179E-17
7.580000E+03	2.192976E-15	2.880834E-17
7.590000E+03	2.202931E-15	2.911181E-17
7.600000E+03	2.213412E-15	2.942320E-17
7.610000E+03	2.224351E-15	2.974172E-17
7.620000E+03	2.235813E-15	3.006832E-17
7.630000E+03	2.247757E-15	3.040259E-17
7.640000E+03	2.260243E-15	3.074541E-17
7.650000E+03	2.273193E-15	3.109584E-17
7.660000E+03	2.286662E-15	3.145474E-17
7.670000E+03	2.300569E-15	3.182108E-17
7.680000E+03	2.314999E-15	3.219612E-17
7.690000E+03	2.329829E-15	3.257827E-17
7.700000E+03	2.345110E-15	3.296830E-17
7.710000E+03	2.360816E-15	3.336594E-17
7.720000E+03	2.376887E-15	3.377043E-17
7.730000E+03	2.393294E-15	3.418141E-17
7.740000E+03	2.410040E-15	3.459896E-17
7.750000E+03	2.427090E-15	3.502266E-17
7.760000E+03	2.444332E-15	3.545094E-17
