#wls	flux	fluxerr
1.600000E+03	1.462302E-16	3.926795E-18
1.640000E+03	1.461513E-16	3.909282E-18
1.680000E+03	1.460780E-16	3.891529E-18
1.720000E+03	1.460092E-16	3.873493E-18
1.760000E+03	1.460003E-16	3.856626E-18
1.800000E+03	1.460214E-16	3.840113E-18
1.840000E+03	1.460993E-16	3.824638E-18
1.880000E+03	1.462040E-16	3.809385E-18
1.920000E+03	1.463621E-16	3.795024E-18
1.960000E+03	1.465715E-16	3.781471E-18
2.000000E+03	1.468584E-16	3.769365E-18
2.040000E+03	1.472204E-16	3.758601E-18
2.080000E+03	1.476548E-16	3.749066E-18
2.120000E+03	1.481587E-16	3.740642E-18
2.160000E+03	1.487290E-16	3.733205E-18
2.200000E+03	1.494185E-16	3.728024E-18
2.240000E+03	1.501670E-16	3.723540E-18
2.280000E+03	1.509986E-16	3.720294E-18
2.320000E+03	1.519367E-16	3.718800E-18
2.360000E+03	1.529482E-16	3.718183E-18
2.400000E+03	1.540281E-16	3.718260E-18
2.440000E+03	1.551985E-16	3.719501E-18
2.480000E+03	1.564257E-16	3.721033E-18
2.520000E+03	1.577310E-16	3.723298E-18
2.560000E+03	1.591073E-16	3.726060E-18
2.600000E+03	1.605206E-16	3.728461E-18
2.640000E+03	1.620172E-16	3.731516E-18
2.680000E+03	1.635887E-16	3.734949E-18
2.720000E+03	1.652001E-16	3.737892E-18
2.760000E+03	1.668692E-16	3.740684E-18
2.800000E+03	1.686126E-16	3.743622E-18
2.840000E+03	1.704202E-16	3.746402E-18
2.880000E+03	1.723325E-16	3.749819E-18
2.920000E+03	1.743375E-16	3.753511E-18
2.960000E+03	1.764978E-16	3.758699E-18
3.000000E+03	1.787988E-16	3.764930E-18
3.010000E+03	1.794179E-16	3.767091E-18
3.020000E+03	1.800249E-16	3.768865E-18
3.030000E+03	1.806680E-16	3.771261E-18
3.040000E+03	1.813227E-16	3.773760E-18
3.050000E+03	1.819887E-16	3.776354E-18
3.060000E+03	1.826658E-16	3.779034E-18
3.070000E+03	1.833775E-16	3.782283E-18
3.080000E+03	1.840996E-16	3.785597E-18
3.090000E+03	1.848316E-16	3.788963E-18
3.100000E+03	1.855736E-16	3.792378E-18
3.110000E+03	1.863723E-16	3.796792E-18
3.120000E+03	1.871565E-16	3.800747E-18
3.130000E+03	1.879964E-16	3.805667E-18
3.140000E+03	1.888214E-16	3.810113E-18
3.150000E+03	1.897010E-16	3.815488E-18
3.160000E+03	1.905884E-16	3.820841E-18
3.170000E+03	1.915293E-16	3.827080E-18
3.180000E+03	1.924772E-16	3.833270E-18
3.190000E+03	1.934545E-16	3.839854E-18
3.200000E+03	1.944609E-16	3.846817E-18
3.210000E+03	1.955186E-16	3.854589E-18
3.220000E+03	1.965816E-16	3.862256E-18
3.230000E+03	1.976947E-16	3.870694E-18
3.240000E+03	1.988572E-16	3.879875E-18
3.250000E+03	2.000461E-16	3.889344E-18
3.260000E+03	2.012609E-16	3.899081E-18
3.270000E+03	2.025234E-16	3.909501E-18
3.280000E+03	2.038326E-16	3.920576E-18
3.290000E+03	2.051661E-16	3.931863E-18
3.300000E+03	2.065672E-16	3.944182E-18
3.310000E+03	2.080131E-16	3.957084E-18
3.320000E+03	2.094814E-16	3.970133E-18
3.330000E+03	2.110366E-16	3.984541E-18
3.340000E+03	2.126128E-16	3.999049E-18
3.350000E+03	2.142525E-16	4.014446E-18
3.360000E+03	2.159336E-16	4.030304E-18
3.370000E+03	2.176978E-16	4.047387E-18
3.380000E+03	2.195018E-16	4.064873E-18
3.390000E+03	2.213658E-16	4.083125E-18
3.400000E+03	2.232890E-16	4.102113E-18
3.410000E+03	2.252707E-16	4.121808E-18
3.420000E+03	2.273306E-16	4.142556E-18
3.430000E+03	2.294471E-16	4.163943E-18
3.440000E+03	2.316399E-16	4.186311E-18
3.450000E+03	2.339080E-16	4.209620E-18
3.460000E+03	2.362298E-16	4.233466E-18
3.470000E+03	2.386453E-16	4.258549E-18
3.480000E+03	2.411329E-16	4.284460E-18
3.490000E+03	2.436916E-16	4.311161E-18
3.500000E+03	2.463204E-16	4.338618E-18
3.510000E+03	2.490384E-16	4.367143E-18
3.520000E+03	2.518443E-16	4.396693E-18
3.530000E+03	2.547370E-16	4.427225E-18
3.540000E+03	2.577152E-16	4.458691E-18
3.550000E+03	2.607975E-16	4.491389E-18
3.560000E+03	2.639433E-16	4.524598E-18
3.570000E+03	2.671909E-16	4.558949E-18
3.580000E+03	2.705387E-16	4.594389E-18
3.590000E+03	2.739857E-16	4.630872E-18
3.600000E+03	2.775302E-16	4.668346E-18
3.610000E+03	2.811713E-16	4.706764E-18
3.620000E+03	2.849267E-16	4.746396E-18
3.630000E+03	2.887759E-16	4.786872E-18
3.640000E+03	2.927367E-16	4.828454E-18
3.650000E+03	2.968076E-16	4.871092E-18
3.660000E+03	3.009686E-16	4.914425E-18
3.670000E+03	3.052558E-16	4.959012E-18
3.680000E+03	3.096677E-16	5.004793E-18
3.690000E+03	3.141658E-16	5.051117E-18
3.700000E+03	3.188042E-16	5.098819E-18
3.710000E+03	3.235446E-16	5.147253E-18
3.720000E+03	3.284223E-16	5.196945E-18
3.730000E+03	3.333992E-16	5.247258E-18
3.740000E+03	3.385105E-16	5.298710E-18
3.750000E+03	3.437364E-16	5.350957E-18
3.760000E+03	3.490936E-16	5.404221E-18
3.770000E+03	3.545805E-16	5.458440E-18
3.780000E+03	3.601780E-16	5.513281E-18
3.790000E+03	3.659199E-16	5.569227E-18
3.800000E+03	3.717696E-16	5.625679E-18
3.810000E+03	3.777608E-16	5.683112E-18
3.820000E+03	3.838745E-16	5.741199E-18
3.830000E+03	3.901265E-16	5.800138E-18
3.840000E+03	3.965154E-16	5.859866E-18
3.850000E+03	4.030224E-16	5.920065E-18
3.860000E+03	4.096634E-16	5.980930E-18
3.870000E+03	4.164367E-16	6.042396E-18
3.880000E+03	4.233240E-16	6.104157E-18
3.890000E+03	4.303576E-16	6.166643E-18
3.900000E+03	4.375194E-16	6.229547E-18
3.910000E+03	4.448246E-16	6.293046E-18
3.920000E+03	4.522380E-16	6.356601E-18
3.930000E+03	4.597918E-16	6.420626E-18
3.940000E+03	4.674678E-16	6.484827E-18
3.950000E+03	4.752647E-16	6.549145E-18
3.960000E+03	4.831977E-16	6.613749E-18
3.970000E+03	4.912487E-16	6.678354E-18
3.980000E+03	4.994164E-16	6.742902E-18
3.990000E+03	5.077157E-16	6.807557E-18
4.000000E+03	5.161130E-16	6.871828E-18
4.010000E+03	5.246392E-16	6.936094E-18
4.020000E+03	5.332768E-16	7.000084E-18
4.030000E+03	5.420087E-16	7.063539E-18
4.040000E+03	5.508655E-16	7.126826E-18
4.050000E+03	5.598142E-16	7.189481E-18
4.060000E+03	5.688695E-16	7.251662E-18
4.070000E+03	5.780144E-16	7.313122E-18
4.080000E+03	5.872481E-16	7.373819E-18
4.090000E+03	5.965693E-16	7.433711E-18
4.100000E+03	6.059772E-16	7.492761E-18
4.110000E+03	6.154552E-16	7.550739E-18
4.120000E+03	6.250026E-16	7.607613E-18
4.130000E+03	6.346186E-16	7.663354E-18
4.140000E+03	6.443024E-16	7.717931E-18
4.150000E+03	6.540380E-16	7.771134E-18
4.160000E+03	6.638096E-16	7.822763E-18
4.170000E+03	6.736318E-16	7.872978E-18
4.180000E+03	6.834741E-16	7.921413E-18
4.190000E+03	6.933513E-16	7.968234E-18
4.200000E+03	7.032481E-16	8.013257E-18
4.210000E+03	7.131491E-16	8.056310E-18
4.220000E+03	7.230546E-16	8.097396E-18
4.230000E+03	7.329497E-16	8.136353E-18
4.240000E+03	7.428198E-16	8.173030E-18
4.250000E+03	7.526800E-16	8.207605E-18
4.260000E+03	7.625013E-16	8.239773E-18
4.270000E+03	7.722842E-16	8.269562E-18
4.280000E+03	7.820000E-16	8.296686E-18
4.290000E+03	7.916644E-16	8.321339E-18
4.300000E+03	8.012492E-16	8.343254E-18
4.310000E+03	8.107554E-16	8.362476E-18
4.320000E+03	8.201699E-16	8.378910E-18
4.330000E+03	8.294653E-16	8.392318E-18
4.340000E+03	8.386435E-16	8.402767E-18
4.350000E+03	8.477059E-16	8.410327E-18
4.360000E+03	8.566260E-16	8.414786E-18
4.370000E+03	8.653920E-16	8.416090E-18
4.380000E+03	8.739916E-16	8.414189E-18
4.390000E+03	8.824136E-16	8.409044E-18
4.400000E+03	8.906604E-16	8.400754E-18
4.410000E+03	8.987071E-16	8.389162E-18
4.420000E+03	9.065426E-16	8.374251E-18
4.430000E+03	9.141702E-16	8.356138E-18
4.440000E+03	9.215655E-16	8.334694E-18
4.450000E+03	9.287461E-16	8.310174E-18
4.460000E+03	9.356880E-16	8.282460E-18
4.470000E+03	9.424090E-16	8.251809E-18
4.480000E+03	9.488991E-16	8.218235E-18
4.490000E+03	9.551626E-16	8.181879E-18
4.500000E+03	9.612037E-16	8.142878E-18
4.510000E+03	9.670403E-16	8.101488E-18
4.520000E+03	9.726493E-16	8.057617E-18
4.530000E+03	9.780638E-16	8.011645E-18
4.540000E+03	9.832732E-16	7.963588E-18
4.550000E+03	9.882958E-16	7.913698E-18
4.560000E+03	9.931383E-16	7.862129E-18
4.570000E+03	9.978037E-16	7.809008E-18
4.580000E+03	1.002299E-15	7.754490E-18
4.590000E+03	1.006640E-15	7.698810E-18
4.600000E+03	1.010834E-15	7.642107E-18
4.610000E+03	1.014887E-15	7.584538E-18
4.620000E+03	1.018804E-15	7.526235E-18
4.630000E+03	1.022615E-15	7.467532E-18
4.640000E+03	1.026303E-15	7.408388E-18
4.650000E+03	1.029898E-15	7.349125E-18
4.660000E+03	1.033405E-15	7.289885E-18
4.670000E+03	1.036832E-15	7.230814E-18
4.680000E+03	1.040184E-15	7.172044E-18
4.690000E+03	1.043468E-15	7.113732E-18
4.700000E+03	1.046713E-15	7.056175E-18
4.710000E+03	1.049902E-15	6.999348E-18
4.720000E+03	1.053066E-15	6.943569E-18
4.730000E+03	1.056183E-15	6.888790E-18
4.740000E+03	1.059300E-15	6.835422E-18
4.750000E+03	1.062394E-15	6.783422E-18
4.760000E+03	1.065471E-15	6.732928E-18
4.770000E+03	1.068550E-15	6.684164E-18
4.780000E+03	1.071646E-15	6.637341E-18
4.790000E+03	1.074753E-15	6.592518E-18
4.800000E+03	1.077873E-15	6.549815E-18
4.810000E+03	1.081035E-15	6.509527E-18
4.820000E+03	1.084243E-15	6.471773E-18
4.830000E+03	1.087488E-15	6.436615E-18
4.840000E+03	1.090797E-15	6.404313E-18
4.850000E+03	1.094175E-15	6.375005E-18
4.860000E+03	1.097621E-15	6.348799E-18
4.870000E+03	1.101153E-15	6.325897E-18
4.880000E+03	1.104771E-15	6.306407E-18
4.890000E+03	1.108491E-15	6.290516E-18
4.900000E+03	1.112303E-15	6.278269E-18
4.910000E+03	1.116232E-15	6.269897E-18
4.920000E+03	1.120269E-15	6.265441E-18
4.930000E+03	1.124414E-15	6.264993E-18
4.940000E+03	1.128691E-15	6.268775E-18
4.950000E+03	1.133079E-15	6.276742E-18
4.960000E+03	1.137599E-15	6.289068E-18
4.970000E+03	1.142253E-15	6.305733E-18
4.980000E+03	1.147023E-15	6.326615E-18
4.990000E+03	1.151921E-15	6.351730E-18
5.000000E+03	1.156944E-15	6.381023E-18
5.010000E+03	1.162089E-15	6.414430E-18
5.020000E+03	1.167364E-15	6.451934E-18
5.030000E+03	1.172753E-15	6.493398E-18
5.040000E+03	1.178250E-15	6.538727E-18
5.050000E+03	1.183879E-15	6.587984E-18
5.060000E+03	1.189594E-15	6.640848E-18
5.070000E+03	1.195429E-15	6.697436E-18
5.080000E+03	1.201366E-15	6.757575E-18
5.090000E+03	1.207385E-15	6.821085E-18
5.100000E+03	1.213494E-15	6.887927E-18
5.110000E+03	1.219702E-15	6.958073E-18
5.120000E+03	1.225974E-15	7.031244E-18
5.130000E+03	1.232320E-15	7.107416E-18
5.140000E+03	1.238745E-15	7.186539E-18
5.150000E+03	1.245217E-15	7.268347E-18
5.160000E+03	1.251758E-15	7.352877E-18
5.170000E+03	1.258350E-15	7.439939E-18
5.180000E+03	1.264984E-15	7.529408E-18
5.190000E+03	1.271656E-15	7.621169E-18
5.200000E+03	1.278362E-15	7.715112E-18
5.210000E+03	1.285108E-15	7.811198E-18
5.220000E+03	1.291865E-15	7.909158E-18
5.230000E+03	1.298653E-15	8.009043E-18
5.240000E+03	1.305454E-15	8.110661E-18
5.250000E+03	1.312265E-15	8.213910E-18
5.260000E+03	1.319067E-15	8.318587E-18
5.270000E+03	1.325885E-15	8.424771E-18
5.280000E+03	1.332699E-15	8.532266E-18
5.290000E+03	1.339508E-15	8.640987E-18
5.300000E+03	1.346296E-15	8.750744E-18
5.310000E+03	1.353071E-15	8.861531E-18
5.320000E+03	1.359847E-15	8.973354E-18
5.330000E+03	1.366594E-15	9.085944E-18
5.340000E+03	1.373308E-15	9.199211E-18
5.350000E+03	1.380002E-15	9.313171E-18
5.360000E+03	1.386677E-15	9.427753E-18
5.370000E+03	1.393330E-15	9.542881E-18
5.380000E+03	1.399931E-15	9.658282E-18
5.390000E+03	1.406511E-15	9.774099E-18
5.400000E+03	1.413067E-15	9.890253E-18
5.410000E+03	1.419586E-15	1.000660E-17
5.420000E+03	1.426054E-15	1.012297E-17
5.430000E+03	1.432500E-15	1.023951E-17
5.440000E+03	1.438912E-15	1.035607E-17
5.450000E+03	1.445289E-15	1.047262E-17
5.460000E+03	1.451618E-15	1.058898E-17
5.470000E+03	1.457917E-15	1.070523E-17
5.480000E+03	1.464171E-15	1.082122E-17
5.490000E+03	1.470399E-15	1.093704E-17
5.500000E+03	1.476601E-15	1.105263E-17
5.510000E+03	1.482765E-15	1.116786E-17
5.520000E+03	1.488894E-15	1.128272E-17
5.530000E+03	1.495005E-15	1.139727E-17
5.540000E+03	1.501102E-15	1.151152E-17
5.550000E+03	1.507171E-15	1.162531E-17
5.560000E+03	1.513217E-15	1.173865E-17
5.570000E+03	1.519271E-15	1.185173E-17
5.580000E+03	1.525309E-15	1.196433E-17
5.590000E+03	1.531347E-15	1.207654E-17
5.600000E+03	1.537389E-15	1.218838E-17
5.610000E+03	1.543423E-15	1.229969E-17
5.620000E+03	1.549483E-15	1.241074E-17
5.630000E+03	1.555558E-15	1.252139E-17
5.640000E+03	1.561650E-15	1.263165E-17
5.650000E+03	1.567763E-15	1.274151E-17
5.660000E+03	1.573901E-15	1.285099E-17
5.670000E+03	1.580067E-15	1.296008E-17
5.680000E+03	1.586265E-15	1.306879E-17
5.690000E+03	1.592482E-15	1.317699E-17
5.700000E+03	1.598752E-15	1.328495E-17
5.710000E+03	1.605049E-15	1.339242E-17
5.720000E+03	1.611390E-15	1.349953E-17
5.730000E+03	1.617763E-15	1.360617E-17
5.740000E+03	1.624188E-15	1.371246E-17
5.750000E+03	1.630652E-15	1.381830E-17
5.760000E+03	1.637157E-15	1.392368E-17
5.770000E+03	1.643722E-15	1.402874E-17
5.780000E+03	1.650337E-15	1.413338E-17
5.790000E+03	1.656985E-15	1.423745E-17
5.800000E+03	1.663688E-15	1.434111E-17
5.810000E+03	1.670449E-15	1.444437E-17
5.820000E+03	1.677253E-15	1.454709E-17
5.830000E+03	1.684122E-15	1.464945E-17
5.840000E+03	1.691041E-15	1.475130E-17
5.850000E+03	1.697999E-15	1.485254E-17
5.860000E+03	1.705030E-15	1.495344E-17
5.870000E+03	1.712121E-15	1.505389E-17
5.880000E+03	1.719262E-15	1.515376E-17
5.890000E+03	1.726453E-15	1.525308E-17
5.900000E+03	1.733717E-15	1.535201E-17
5.910000E+03	1.741040E-15	1.545042E-17
5.920000E+03	1.748426E-15	1.554833E-17
5.930000E+03	1.755879E-15	1.564578E-17
5.940000E+03	1.763387E-15	1.574264E-17
5.950000E+03	1.770970E-15	1.583908E-17
5.960000E+03	1.778633E-15	1.593514E-17
5.970000E+03	1.786362E-15	1.603069E-17
5.980000E+03	1.794146E-15	1.612560E-17
5.990000E+03	1.802039E-15	1.622037E-17
6.000000E+03	1.809995E-15	1.631455E-17
6.010000E+03	1.818016E-15	1.640817E-17
6.020000E+03	1.826142E-15	1.650158E-17
6.030000E+03	1.834359E-15	1.659464E-17
6.040000E+03	1.842652E-15	1.668720E-17
6.050000E+03	1.851023E-15	1.677929E-17
6.060000E+03	1.859511E-15	1.687123E-17
6.070000E+03	1.868064E-15	1.696255E-17
6.080000E+03	1.876717E-15	1.705358E-17
6.090000E+03	1.885471E-15	1.714429E-17
6.100000E+03	1.894288E-15	1.723434E-17
6.110000E+03	1.903203E-15	1.732405E-17
6.120000E+03	1.912177E-15	1.741304E-17
6.130000E+03	1.921221E-15	1.750141E-17
6.140000E+03	1.930313E-15	1.758896E-17
6.150000E+03	1.939426E-15	1.767542E-17
6.160000E+03	1.948550E-15	1.776070E-17
6.170000E+03	1.957676E-15	1.784472E-17
6.180000E+03	1.966751E-15	1.792698E-17
6.190000E+03	1.975784E-15	1.800755E-17
6.200000E+03	1.984741E-15	1.808613E-17
6.210000E+03	1.993665E-15	1.816309E-17
6.220000E+03	2.002523E-15	1.823815E-17
6.230000E+03	2.011340E-15	1.831151E-17
6.240000E+03	2.020102E-15	1.838305E-17
6.250000E+03	2.028795E-15	1.845264E-17
6.260000E+03	2.037425E-15	1.852034E-17
6.270000E+03	2.045976E-15	1.858598E-17
6.280000E+03	2.054433E-15	1.864940E-17
6.290000E+03	2.062777E-15	1.871044E-17
6.300000E+03	2.071030E-15	1.876928E-17
6.310000E+03	2.079130E-15	1.882533E-17
6.320000E+03	2.087098E-15	1.887878E-17
6.330000E+03	2.094887E-15	1.892919E-17
6.340000E+03	2.102493E-15	1.897651E-17
6.350000E+03	2.109910E-15	1.902068E-17
6.360000E+03	2.117069E-15	1.906108E-17
6.370000E+03	2.123982E-15	1.909780E-17
6.380000E+03	2.130598E-15	1.913038E-17
6.390000E+03	2.136926E-15	1.915891E-17
6.400000E+03	2.142917E-15	1.918295E-17
6.410000E+03	2.148559E-15	1.920239E-17
6.420000E+03	2.153799E-15	1.921676E-17
6.430000E+03	2.158630E-15	1.922600E-17
6.440000E+03	2.163043E-15	1.923007E-17
6.450000E+03	2.166988E-15	1.922852E-17
6.460000E+03	2.170439E-15	1.922112E-17
6.470000E+03	2.173419E-15	1.920807E-17
6.480000E+03	2.175860E-15	1.918880E-17
6.490000E+03	2.177766E-15	1.916333E-17
6.500000E+03	2.179142E-15	1.913172E-17
6.510000E+03	2.179972E-15	1.909384E-17
6.520000E+03	2.180244E-15	1.904960E-17
6.530000E+03	2.179919E-15	1.899869E-17
6.540000E+03	2.179058E-15	1.894167E-17
6.550000E+03	2.177584E-15	1.887787E-17
6.560000E+03	2.175560E-15	1.880788E-17
6.570000E+03	2.172933E-15	1.873128E-17
6.580000E+03	2.169748E-15	1.864848E-17
6.590000E+03	2.165983E-15	1.855933E-17
6.600000E+03	2.161662E-15	1.846407E-17
6.610000E+03	2.156763E-15	1.836257E-17
6.620000E+03	2.151318E-15	1.825513E-17
6.630000E+03	2.145333E-15	1.814186E-17
6.640000E+03	2.138795E-15	1.802268E-17
6.650000E+03	2.131759E-15	1.789813E-17
6.660000E+03	2.124218E-15	1.776818E-17
6.670000E+03	2.116185E-15	1.763301E-17
6.680000E+03	2.107675E-15	1.749279E-17
6.690000E+03	2.098730E-15	1.734792E-17
6.700000E+03	2.089346E-15	1.719843E-17
6.710000E+03	2.079566E-15	1.704473E-17
6.720000E+03	2.069389E-15	1.688687E-17
6.730000E+03	2.058858E-15	1.672526E-17
6.740000E+03	2.047997E-15	1.656015E-17
6.750000E+03	2.036831E-15	1.639179E-17
6.760000E+03	2.025360E-15	1.622026E-17
6.770000E+03	2.013633E-15	1.604598E-17
6.780000E+03	2.001696E-15	1.586939E-17
6.790000E+03	1.989530E-15	1.569037E-17
6.800000E+03	1.977183E-15	1.550938E-17
6.810000E+03	1.964702E-15	1.532682E-17
6.820000E+03	1.952068E-15	1.514260E-17
6.830000E+03	1.939350E-15	1.495729E-17
6.840000E+03	1.926551E-15	1.477096E-17
6.850000E+03	1.913694E-15	1.458384E-17
6.860000E+03	1.900826E-15	1.439632E-17
6.870000E+03	1.887945E-15	1.420842E-17
6.880000E+03	1.875077E-15	1.402036E-17
6.890000E+03	1.862241E-15	1.383234E-17
6.900000E+03	1.849481E-15	1.364469E-17
6.910000E+03	1.836794E-15	1.345745E-17
6.920000E+03	1.824200E-15	1.327076E-17
6.930000E+03	1.811739E-15	1.308494E-17
6.940000E+03	1.799407E-15	1.289999E-17
6.950000E+03	1.787222E-15	1.271606E-17
6.960000E+03	1.775198E-15	1.253325E-17
6.970000E+03	1.763372E-15	1.235186E-17
6.980000E+03	1.751738E-15	1.217184E-17
6.990000E+03	1.740307E-15	1.199328E-17
7.000000E+03	1.729095E-15	1.181629E-17
7.010000E+03	1.718113E-15	1.164097E-17
7.020000E+03	1.707371E-15	1.146738E-17
7.030000E+03	1.696881E-15	1.129561E-17
7.040000E+03	1.686632E-15	1.112558E-17
7.050000E+03	1.676674E-15	1.095763E-17
7.060000E+03	1.666974E-15	1.079155E-17
7.070000E+03	1.657563E-15	1.062753E-17
7.080000E+03	1.648445E-15	1.046560E-17
7.090000E+03	1.639611E-15	1.030569E-17
7.100000E+03	1.631065E-15	1.014784E-17
7.110000E+03	1.622835E-15	9.992213E-18
7.120000E+03	1.614905E-15	9.838714E-18
7.130000E+03	1.607282E-15	9.687390E-18
7.140000E+03	1.599971E-15	9.538260E-18
7.150000E+03	1.592977E-15	9.391367E-18
7.160000E+03	1.586303E-15	9.246734E-18
7.170000E+03	1.579956E-15	9.104400E-18
7.180000E+03	1.573918E-15	8.964277E-18
7.190000E+03	1.568214E-15	8.826516E-18
7.200000E+03	1.562847E-15	8.691146E-18
7.210000E+03	1.557782E-15	8.557990E-18
7.220000E+03	1.553060E-15	8.427301E-18
7.230000E+03	1.548666E-15	8.299019E-18
7.240000E+03	1.544620E-15	8.173286E-18
7.250000E+03	1.540888E-15	8.049956E-18
7.260000E+03	1.537490E-15	7.929177E-18
7.270000E+03	1.534429E-15	7.811013E-18
7.280000E+03	1.531706E-15	7.695530E-18
7.290000E+03	1.529304E-15	7.582700E-18
7.300000E+03	1.527241E-15	7.472698E-18
7.310000E+03	1.525500E-15	7.365516E-18
7.320000E+03	1.524100E-15	7.261341E-18
7.330000E+03	1.523021E-15	7.160184E-18
7.340000E+03	1.522281E-15	7.062242E-18
7.350000E+03	1.521859E-15	6.967549E-18
7.360000E+03	1.521754E-15	6.876235E-18
7.370000E+03	1.521979E-15	6.788524E-18
7.380000E+03	1.522512E-15	6.704478E-18
7.390000E+03	1.523348E-15	6.624268E-18
7.400000E+03	1.524520E-15	6.548226E-18
7.410000E+03	1.525961E-15	6.476285E-18
7.420000E+03	1.527723E-15	6.408892E-18
7.430000E+03	1.529756E-15	6.346083E-18
7.440000E+03	1.532069E-15	6.288156E-18
7.450000E+03	1.534669E-15	6.235411E-18
7.460000E+03	1.537525E-15	6.188006E-18
7.470000E+03	1.540602E-15	6.146096E-18
7.480000E+03	1.543885E-15	6.109936E-18
7.490000E+03	1.547378E-15	6.079852E-18
7.500000E+03	1.551046E-15	6.056027E-18
7.510000E+03	1.554873E-15	6.038719E-18
7.520000E+03	1.558845E-15	6.028192E-18
7.530000E+03	1.562949E-15	6.024703E-18
7.540000E+03	1.567156E-15	6.028443E-18
7.550000E+03	1.571499E-15	6.039831E-18
7.560000E+03	1.575936E-15	6.058967E-18
7.570000E+03	1.580469E-15	6.086109E-18
7.580000E+03	1.585145E-15	6.121659E-18
7.590000E+03	1.589929E-15	6.165574E-18
7.600000E+03	1.594855E-15	6.217940E-18
7.610000E+03	1.599910E-15	6.278633E-18
7.620000E+03	1.605128E-15	6.347691E-18
7.630000E+03	1.610522E-15	6.425040E-18
7.640000E+03	1.616080E-15	6.510512E-18
7.650000E+03	1.621835E-15	6.604083E-18
7.660000E+03	1.627797E-15	6.705638E-18
7.670000E+03	1.633975E-15	6.815056E-18
7.680000E+03	1.640354E-15	6.932102E-18
7.690000E+03	1.646986E-15	7.056825E-18
7.700000E+03	1.653832E-15	7.188891E-18
7.710000E+03	1.660919E-15	7.328252E-18
7.720000E+03	1.668250E-15	7.474753E-18
7.730000E+03	1.675805E-15	7.628150E-18
7.740000E+03	1.683632E-15	7.788505E-18
7.750000E+03	1.691708E-15	7.955572E-18
7.760000E+03	1.700033E-15	8.129217E-18
