#wls	flux	fluxerr
1.600000E+03	5.484969E-17	1.413748E-18
1.640000E+03	5.469831E-17	1.409267E-18
1.680000E+03	5.455348E-17	1.404943E-18
1.720000E+03	5.440569E-17	1.400529E-18
1.760000E+03	5.425506E-17	1.396028E-18
1.800000E+03	5.412058E-17	1.391930E-18
1.840000E+03	5.397397E-17	1.387505E-18
1.880000E+03	5.383419E-17	1.383242E-18
1.920000E+03	5.370128E-17	1.379141E-18
1.960000E+03	5.356601E-17	1.374963E-18
2.000000E+03	5.342855E-17	1.370715E-18
2.040000E+03	5.330741E-17	1.366869E-18
2.080000E+03	5.317516E-17	1.362722E-18
2.120000E+03	5.305938E-17	1.358981E-18
2.160000E+03	5.293288E-17	1.354948E-18
2.200000E+03	5.282300E-17	1.351323E-18
2.240000E+03	5.271181E-17	1.347647E-18
2.280000E+03	5.260846E-17	1.344152E-18
2.320000E+03	5.250420E-17	1.340616E-18
2.360000E+03	5.240810E-17	1.337269E-18
2.400000E+03	5.232031E-17	1.334114E-18
2.440000E+03	5.224095E-17	1.331153E-18
2.480000E+03	5.216154E-17	1.328170E-18
2.520000E+03	5.209100E-17	1.325391E-18
2.560000E+03	5.202093E-17	1.322601E-18
2.600000E+03	5.196020E-17	1.320026E-18
2.640000E+03	5.190901E-17	1.317670E-18
2.680000E+03	5.186760E-17	1.315537E-18
2.720000E+03	5.183619E-17	1.313634E-18
2.760000E+03	5.180666E-17	1.311751E-18
2.800000E+03	5.178774E-17	1.310110E-18
2.840000E+03	5.177970E-17	1.308717E-18
2.880000E+03	5.177457E-17	1.307368E-18
2.920000E+03	5.178099E-17	1.306282E-18
2.960000E+03	5.179928E-17	1.305465E-18
3.000000E+03	5.182978E-17	1.304924E-18
3.010000E+03	5.184012E-17	1.304852E-18
3.020000E+03	5.185074E-17	1.304785E-18
3.030000E+03	5.186165E-17	1.304723E-18
3.040000E+03	5.187285E-17	1.304666E-18
3.050000E+03	5.188435E-17	1.304615E-18
3.060000E+03	5.189616E-17	1.304569E-18
3.070000E+03	5.190829E-17	1.304530E-18
3.080000E+03	5.192074E-17	1.304496E-18
3.090000E+03	5.193353E-17	1.304468E-18
3.100000E+03	5.194666E-17	1.304447E-18
3.110000E+03	5.196013E-17	1.304432E-18
3.120000E+03	5.198202E-17	1.304627E-18
3.130000E+03	5.199621E-17	1.304626E-18
3.140000E+03	5.201076E-17	1.304631E-18
3.150000E+03	5.203372E-17	1.304845E-18
3.160000E+03	5.204904E-17	1.304866E-18
3.170000E+03	5.207277E-17	1.305094E-18
3.180000E+03	5.208887E-17	1.305130E-18
3.190000E+03	5.211338E-17	1.305373E-18
3.200000E+03	5.213829E-17	1.305624E-18
3.210000E+03	5.215563E-17	1.305684E-18
3.220000E+03	5.218139E-17	1.305951E-18
3.230000E+03	5.220758E-17	1.306227E-18
3.240000E+03	5.222622E-17	1.306311E-18
3.250000E+03	5.225329E-17	1.306604E-18
3.260000E+03	5.228083E-17	1.306906E-18
3.270000E+03	5.230881E-17	1.307216E-18
3.280000E+03	5.233726E-17	1.307536E-18
3.290000E+03	5.236620E-17	1.307865E-18
3.300000E+03	5.239562E-17	1.308203E-18
3.310000E+03	5.242553E-17	1.308552E-18
3.320000E+03	5.245595E-17	1.308910E-18
3.330000E+03	5.249480E-17	1.309476E-18
3.340000E+03	5.252625E-17	1.309854E-18
3.350000E+03	5.255822E-17	1.310243E-18
3.360000E+03	5.259074E-17	1.310643E-18
3.370000E+03	5.263170E-17	1.311250E-18
3.380000E+03	5.266531E-17	1.311671E-18
3.390000E+03	5.269949E-17	1.312104E-18
3.400000E+03	5.274211E-17	1.312744E-18
3.410000E+03	5.277745E-17	1.313199E-18
3.420000E+03	5.282123E-17	1.313862E-18
3.430000E+03	5.285775E-17	1.314341E-18
3.440000E+03	5.290273E-17	1.315028E-18
3.450000E+03	5.294048E-17	1.315532E-18
3.460000E+03	5.298669E-17	1.316243E-18
3.470000E+03	5.303353E-17	1.316967E-18
3.480000E+03	5.307318E-17	1.317509E-18
3.490000E+03	5.312132E-17	1.318259E-18
3.500000E+03	5.317010E-17	1.319022E-18
3.510000E+03	5.321174E-17	1.319604E-18
3.520000E+03	5.326188E-17	1.320394E-18
3.530000E+03	5.331270E-17	1.321197E-18
3.540000E+03	5.336422E-17	1.322015E-18
3.550000E+03	5.341645E-17	1.322847E-18
3.560000E+03	5.346938E-17	1.323693E-18
3.570000E+03	5.352304E-17	1.324553E-18
3.580000E+03	5.357745E-17	1.325429E-18
3.590000E+03	5.363259E-17	1.326320E-18
3.600000E+03	5.368849E-17	1.327225E-18
3.610000E+03	5.374515E-17	1.328147E-18
3.620000E+03	5.380259E-17	1.329084E-18
3.630000E+03	5.386082E-17	1.330037E-18
3.640000E+03	5.391984E-17	1.331006E-18
3.650000E+03	5.397967E-17	1.331991E-18
3.660000E+03	5.404032E-17	1.332993E-18
3.670000E+03	5.410180E-17	1.334012E-18
3.680000E+03	5.417188E-17	1.335239E-18
3.690000E+03	5.423503E-17	1.336292E-18
3.700000E+03	5.429906E-17	1.337362E-18
3.710000E+03	5.436394E-17	1.338450E-18
3.720000E+03	5.442972E-17	1.339556E-18
3.730000E+03	5.450414E-17	1.340871E-18
3.740000E+03	5.457171E-17	1.342014E-18
3.750000E+03	5.464019E-17	1.343175E-18
3.760000E+03	5.471736E-17	1.344546E-18
3.770000E+03	5.478771E-17	1.345745E-18
3.780000E+03	5.485901E-17	1.346963E-18
3.790000E+03	5.493902E-17	1.348392E-18
3.800000E+03	5.501226E-17	1.349650E-18
3.810000E+03	5.508648E-17	1.350928E-18
3.820000E+03	5.516945E-17	1.352416E-18
3.830000E+03	5.524569E-17	1.353736E-18
3.840000E+03	5.533069E-17	1.355265E-18
3.850000E+03	5.540898E-17	1.356626E-18
3.860000E+03	5.548832E-17	1.358009E-18
3.870000E+03	5.557647E-17	1.359603E-18
3.880000E+03	5.565796E-17	1.361029E-18
3.890000E+03	5.574828E-17	1.362667E-18
3.900000E+03	5.583195E-17	1.364138E-18
3.910000E+03	5.592450E-17	1.365822E-18
3.920000E+03	5.601042E-17	1.367339E-18
3.930000E+03	5.609750E-17	1.368880E-18
3.940000E+03	5.619350E-17	1.370634E-18
3.950000E+03	5.628291E-17	1.372222E-18
3.960000E+03	5.638128E-17	1.374025E-18
3.970000E+03	5.647310E-17	1.375663E-18
3.980000E+03	5.656614E-17	1.377326E-18
3.990000E+03	5.666820E-17	1.379204E-18
4.000000E+03	5.676375E-17	1.380918E-18
4.010000E+03	5.686834E-17	1.382848E-18
4.020000E+03	5.696647E-17	1.384615E-18
4.030000E+03	5.706589E-17	1.386409E-18
4.040000E+03	5.717444E-17	1.388420E-18
4.050000E+03	5.727656E-17	1.390270E-18
4.060000E+03	5.738784E-17	1.392337E-18
4.070000E+03	5.749273E-17	1.394243E-18
4.080000E+03	5.759903E-17	1.396179E-18
4.090000E+03	5.771456E-17	1.398333E-18
4.100000E+03	5.782376E-17	1.400329E-18
4.110000E+03	5.793443E-17	1.402355E-18
4.120000E+03	5.804662E-17	1.404412E-18
4.130000E+03	5.816814E-17	1.406690E-18
4.140000E+03	5.828341E-17	1.408811E-18
4.150000E+03	5.840026E-17	1.410965E-18
4.160000E+03	5.851871E-17	1.413152E-18
4.170000E+03	5.864664E-17	1.415562E-18
4.180000E+03	5.876840E-17	1.417818E-18
4.190000E+03	5.889186E-17	1.420109E-18
4.200000E+03	5.901704E-17	1.422436E-18
4.210000E+03	5.914398E-17	1.424799E-18
4.220000E+03	5.927270E-17	1.427200E-18
4.230000E+03	5.940326E-17	1.429638E-18
4.240000E+03	5.953567E-17	1.432116E-18
4.250000E+03	5.966998E-17	1.434633E-18
4.260000E+03	5.980623E-17	1.437191E-18
4.270000E+03	5.994444E-17	1.439790E-18
4.280000E+03	6.008469E-17	1.442432E-18
4.290000E+03	6.022698E-17	1.445116E-18
4.300000E+03	6.037138E-17	1.447845E-18
4.310000E+03	6.050999E-17	1.450429E-18
4.320000E+03	6.065874E-17	1.453249E-18
4.330000E+03	6.080972E-17	1.456117E-18
4.340000E+03	6.096300E-17	1.459032E-18
4.350000E+03	6.111065E-17	1.461807E-18
4.360000E+03	6.126867E-17	1.464823E-18
4.370000E+03	6.142116E-17	1.467700E-18
4.380000E+03	6.158416E-17	1.470822E-18
4.390000E+03	6.174973E-17	1.473998E-18
4.400000E+03	6.190992E-17	1.477039E-18
4.410000E+03	6.207280E-17	1.480137E-18
4.420000E+03	6.224648E-17	1.483486E-18
4.430000E+03	6.241494E-17	1.486703E-18
4.440000E+03	6.259438E-17	1.490174E-18
4.450000E+03	6.276872E-17	1.493517E-18
4.460000E+03	6.294611E-17	1.496925E-18
4.470000E+03	6.312661E-17	1.500399E-18
4.480000E+03	6.331032E-17	1.503943E-18
4.490000E+03	6.349731E-17	1.507557E-18
4.500000E+03	6.369585E-17	1.511437E-18
4.510000E+03	6.388970E-17	1.515198E-18
4.520000E+03	6.407892E-17	1.518841E-18
4.530000E+03	6.427996E-17	1.522757E-18
4.540000E+03	6.448474E-17	1.526754E-18
4.550000E+03	6.469336E-17	1.530833E-18
4.560000E+03	6.490594E-17	1.534998E-18
4.570000E+03	6.512257E-17	1.539249E-18
4.580000E+03	6.533504E-17	1.543395E-18
4.590000E+03	6.556007E-17	1.547828E-18
4.600000E+03	6.578113E-17	1.552160E-18
4.610000E+03	6.601500E-17	1.556784E-18
4.620000E+03	6.624508E-17	1.561311E-18
4.630000E+03	6.648824E-17	1.566136E-18
4.640000E+03	6.672782E-17	1.570869E-18
4.650000E+03	6.697231E-17	1.575707E-18
4.660000E+03	6.722182E-17	1.580655E-18
4.670000E+03	6.748497E-17	1.585914E-18
4.680000E+03	6.774493E-17	1.591088E-18
4.690000E+03	6.801028E-17	1.596378E-18
4.700000E+03	6.828114E-17	1.601789E-18
4.710000E+03	6.855764E-17	1.607321E-18
4.720000E+03	6.883990E-17	1.612979E-18
4.730000E+03	6.911939E-17	1.618561E-18
4.740000E+03	6.941349E-17	1.624475E-18
4.750000E+03	6.971370E-17	1.630521E-18
4.760000E+03	7.001142E-17	1.636499E-18
4.770000E+03	7.032418E-17	1.642817E-18
4.780000E+03	7.064340E-17	1.649275E-18
4.790000E+03	7.096037E-17	1.655668E-18
4.800000E+03	7.128395E-17	1.662205E-18
4.810000E+03	7.162313E-17	1.669094E-18
4.820000E+03	7.196027E-17	1.675924E-18
4.830000E+03	7.230431E-17	1.682902E-18
4.840000E+03	7.265536E-17	1.690032E-18
4.850000E+03	7.301349E-17	1.697314E-18
4.860000E+03	7.337878E-17	1.704750E-18
4.870000E+03	7.375131E-17	1.712341E-18
4.880000E+03	7.413116E-17	1.720090E-18
4.890000E+03	7.451838E-17	1.727996E-18
4.900000E+03	7.491304E-17	1.736062E-18
4.910000E+03	7.530593E-17	1.744074E-18
4.920000E+03	7.571560E-17	1.752461E-18
4.930000E+03	7.613284E-17	1.761009E-18
4.940000E+03	7.654831E-17	1.769502E-18
4.950000E+03	7.697136E-17	1.778157E-18
4.960000E+03	7.741149E-17	1.787192E-18
4.970000E+03	7.784979E-17	1.796170E-18
4.980000E+03	7.829571E-17	1.805309E-18
4.990000E+03	7.874927E-17	1.814610E-18
5.000000E+03	7.921046E-17	1.824072E-18
5.010000E+03	7.968902E-17	1.833918E-18
5.020000E+03	8.015574E-17	1.843477E-18
5.030000E+03	8.063981E-17	1.853419E-18
5.040000E+03	8.113147E-17	1.863521E-18
5.050000E+03	8.163070E-17	1.873780E-18
5.060000E+03	8.213748E-17	1.884196E-18
5.070000E+03	8.264172E-17	1.894539E-18
5.080000E+03	8.316344E-17	1.905265E-18
5.090000E+03	8.368243E-17	1.915913E-18
5.100000E+03	8.420871E-17	1.926712E-18
5.110000E+03	8.475249E-17	1.937894E-18
5.120000E+03	8.529325E-17	1.948990E-18
5.130000E+03	8.584112E-17	1.960232E-18
5.140000E+03	8.639605E-17	1.971618E-18
5.150000E+03	8.695799E-17	1.983146E-18
5.160000E+03	8.752688E-17	1.994816E-18
5.170000E+03	8.810263E-17	2.006626E-18
5.180000E+03	8.868519E-17	2.018572E-18
5.190000E+03	8.927446E-17	2.030654E-18
5.200000E+03	8.987040E-17	2.042870E-18
5.210000E+03	9.046205E-17	2.054970E-18
5.220000E+03	9.107098E-17	2.067446E-18
5.230000E+03	9.167523E-17	2.079797E-18
5.240000E+03	9.229682E-17	2.092524E-18
5.250000E+03	9.291356E-17	2.105123E-18
5.260000E+03	9.353622E-17	2.117838E-18
5.270000E+03	9.417614E-17	2.130926E-18
5.280000E+03	9.481065E-17	2.143873E-18
5.290000E+03	9.545082E-17	2.156930E-18
5.300000E+03	9.609664E-17	2.170096E-18
5.310000E+03	9.674801E-17	2.183370E-18
5.320000E+03	9.740486E-17	2.196750E-18
5.330000E+03	9.806691E-17	2.210228E-18
5.340000E+03	9.872246E-17	2.223542E-18
5.350000E+03	9.939472E-17	2.237215E-18
5.360000E+03	1.000721E-16	2.250984E-18
5.370000E+03	1.007422E-16	2.264573E-18
5.380000E+03	1.014291E-16	2.278519E-18
5.390000E+03	1.021083E-16	2.292278E-18
5.400000E+03	1.028043E-16	2.306393E-18
5.410000E+03	1.034922E-16	2.320310E-18
5.420000E+03	1.041843E-16	2.334304E-18
5.430000E+03	1.048804E-16	2.348369E-18
5.440000E+03	1.055929E-16	2.362784E-18
5.450000E+03	1.062966E-16	2.376985E-18
5.460000E+03	1.070038E-16	2.391249E-18
5.470000E+03	1.077017E-16	2.405286E-18
5.480000E+03	1.084156E-16	2.419664E-18
5.490000E+03	1.091327E-16	2.434098E-18
5.500000E+03	1.098527E-16	2.448580E-18
5.510000E+03	1.105756E-16	2.463111E-18
5.520000E+03	1.112881E-16	2.477392E-18
5.530000E+03	1.120162E-16	2.492006E-18
5.540000E+03	1.127334E-16	2.506362E-18
5.550000E+03	1.134661E-16	2.521047E-18
5.560000E+03	1.141873E-16	2.535463E-18
5.570000E+03	1.149103E-16	2.549903E-18
5.580000E+03	1.156487E-16	2.564669E-18
5.590000E+03	1.163748E-16	2.579149E-18
5.600000E+03	1.171022E-16	2.593645E-18
5.610000E+03	1.178307E-16	2.608151E-18
5.620000E+03	1.185601E-16	2.622665E-18
5.630000E+03	1.192904E-16	2.637184E-18
5.640000E+03	1.200212E-16	2.651702E-18
5.650000E+03	1.207526E-16	2.666221E-18
5.660000E+03	1.214697E-16	2.680413E-18
5.670000E+03	1.222013E-16	2.694914E-18
5.680000E+03	1.229327E-16	2.709399E-18
5.690000E+03	1.236494E-16	2.723549E-18
5.700000E+03	1.243801E-16	2.737999E-18
5.710000E+03	1.250955E-16	2.752100E-18
5.720000E+03	1.258248E-16	2.766500E-18
5.730000E+03	1.265382E-16	2.780541E-18
5.740000E+03	1.272655E-16	2.794879E-18
5.750000E+03	1.279764E-16	2.808849E-18
5.760000E+03	1.286858E-16	2.822777E-18
5.770000E+03	1.293934E-16	2.836660E-18
5.780000E+03	1.300991E-16	2.850497E-18
5.790000E+03	1.308029E-16	2.864285E-18
5.800000E+03	1.315201E-16	2.878361E-18
5.810000E+03	1.322039E-16	2.891702E-18
5.820000E+03	1.329009E-16	2.905328E-18
5.830000E+03	1.335954E-16	2.918895E-18
5.840000E+03	1.342872E-16	2.932401E-18
5.850000E+03	1.349764E-16	2.945846E-18
5.860000E+03	1.356627E-16	2.959227E-18
5.870000E+03	1.363300E-16	2.972193E-18
5.880000E+03	1.370103E-16	2.985444E-18
5.890000E+03	1.376715E-16	2.998275E-18
5.900000E+03	1.383456E-16	3.011392E-18
5.910000E+03	1.390004E-16	3.024086E-18
5.920000E+03	1.396682E-16	3.037069E-18
5.930000E+03	1.403165E-16	3.049628E-18
5.940000E+03	1.409781E-16	3.062479E-18
5.950000E+03	1.416199E-16	3.074906E-18
5.960000E+03	1.422586E-16	3.087269E-18
5.970000E+03	1.428941E-16	3.099571E-18
5.980000E+03	1.435266E-16	3.111812E-18
5.990000E+03	1.441734E-16	3.124370E-18
6.000000E+03	1.448005E-16	3.136507E-18
6.010000E+03	1.454249E-16	3.148595E-18
6.020000E+03	1.460470E-16	3.160643E-18
6.030000E+03	1.466669E-16	3.172652E-18
6.040000E+03	1.472848E-16	3.184630E-18
6.050000E+03	1.478837E-16	3.196205E-18
6.060000E+03	1.484986E-16	3.208139E-18
6.070000E+03	1.491124E-16	3.220063E-18
6.080000E+03	1.497255E-16	3.231985E-18
6.090000E+03	1.503207E-16	3.243533E-18
6.100000E+03	1.509337E-16	3.255480E-18
6.110000E+03	1.515473E-16	3.267454E-18
6.120000E+03	1.521440E-16	3.279082E-18
6.130000E+03	1.527602E-16	3.291145E-18
6.140000E+03	1.533604E-16	3.302883E-18
6.150000E+03	1.539814E-16	3.315086E-18
6.160000E+03	1.545876E-16	3.326988E-18
6.170000E+03	1.552159E-16	3.339387E-18
6.180000E+03	1.558306E-16	3.351512E-18
6.190000E+03	1.564506E-16	3.363773E-18
6.200000E+03	1.570952E-16	3.376582E-18
6.210000E+03	1.577281E-16	3.389164E-18
6.220000E+03	1.583687E-16	3.401934E-18
6.230000E+03	1.590169E-16	3.414893E-18
6.240000E+03	1.596721E-16	3.428024E-18
6.250000E+03	1.603333E-16	3.441312E-18
6.260000E+03	1.610001E-16	3.454744E-18
6.270000E+03	1.616907E-16	3.468714E-18
6.280000E+03	1.623663E-16	3.482389E-18
6.290000E+03	1.630260E-16	3.495753E-18
6.300000E+03	1.637075E-16	3.509613E-18
6.310000E+03	1.643910E-16	3.523544E-18
6.320000E+03	1.650760E-16	3.537535E-18
6.330000E+03	1.657616E-16	3.551571E-18
6.340000E+03	1.664474E-16	3.565637E-18
6.350000E+03	1.671328E-16	3.579725E-18
6.360000E+03	1.677973E-16	3.593394E-18
6.370000E+03	1.684801E-16	3.607484E-18
6.380000E+03	1.691607E-16	3.621556E-18
6.390000E+03	1.698186E-16	3.635174E-18
6.400000E+03	1.704935E-16	3.649184E-18
6.410000E+03	1.711649E-16	3.663148E-18
6.420000E+03	1.718119E-16	3.676620E-18
6.430000E+03	1.724747E-16	3.690461E-18
6.440000E+03	1.731123E-16	3.703791E-18
6.450000E+03	1.737650E-16	3.717475E-18
6.460000E+03	1.743916E-16	3.730629E-18
6.470000E+03	1.750328E-16	3.744129E-18
6.480000E+03	1.756470E-16	3.757077E-18
6.490000E+03	1.762545E-16	3.769915E-18
6.500000E+03	1.768760E-16	3.783082E-18
6.510000E+03	1.774694E-16	3.795677E-18
6.520000E+03	1.780554E-16	3.808145E-18
6.530000E+03	1.786550E-16	3.820932E-18
6.540000E+03	1.792255E-16	3.833128E-18
6.550000E+03	1.797881E-16	3.845183E-18
6.560000E+03	1.803423E-16	3.857092E-18
6.570000E+03	1.808882E-16	3.868851E-18
6.580000E+03	1.814472E-16	3.880921E-18
6.590000E+03	1.819761E-16	3.892377E-18
6.600000E+03	1.824963E-16	3.903675E-18
6.610000E+03	1.830077E-16	3.914815E-18
6.620000E+03	1.835103E-16	3.925797E-18
6.630000E+03	1.840039E-16	3.936616E-18
6.640000E+03	1.844886E-16	3.947274E-18
6.650000E+03	1.849643E-16	3.957768E-18
6.660000E+03	1.854311E-16	3.968100E-18
6.670000E+03	1.858888E-16	3.978269E-18
6.680000E+03	1.863376E-16	3.988273E-18
6.690000E+03	1.867551E-16	3.997638E-18
6.700000E+03	1.871859E-16	4.007316E-18
6.710000E+03	1.876079E-16	4.016832E-18
6.720000E+03	1.880210E-16	4.026188E-18
6.730000E+03	1.884253E-16	4.035383E-18
6.740000E+03	1.887985E-16	4.043940E-18
6.750000E+03	1.891855E-16	4.052821E-18
6.760000E+03	1.895640E-16	4.061546E-18
6.770000E+03	1.899342E-16	4.070120E-18
6.780000E+03	1.902733E-16	4.078058E-18
6.790000E+03	1.906269E-16	4.086332E-18
6.800000E+03	1.909497E-16	4.093972E-18
6.810000E+03	1.912874E-16	4.101957E-18
6.820000E+03	1.916173E-16	4.109803E-18
6.830000E+03	1.919167E-16	4.117021E-18
6.840000E+03	1.922314E-16	4.124594E-18
6.850000E+03	1.925159E-16	4.131544E-18
6.860000E+03	1.928164E-16	4.138863E-18
6.870000E+03	1.930867E-16	4.145560E-18
6.880000E+03	1.933502E-16	4.152136E-18
6.890000E+03	1.936304E-16	4.159095E-18
6.900000E+03	1.938809E-16	4.165441E-18
6.910000E+03	1.941485E-16	4.172181E-18
6.920000E+03	1.943869E-16	4.178316E-18
6.930000E+03	1.946195E-16	4.184353E-18
6.940000E+03	1.948699E-16	4.190796E-18
6.950000E+03	1.950917E-16	4.196646E-18
6.960000E+03	1.953084E-16	4.202412E-18
6.970000E+03	1.955203E-16	4.208098E-18
6.980000E+03	1.957512E-16	4.214215E-18
6.990000E+03	1.959542E-16	4.219756E-18
7.000000E+03	1.961532E-16	4.225234E-18
7.010000E+03	1.963484E-16	4.230653E-18
7.020000E+03	1.965401E-16	4.236021E-18
7.030000E+03	1.967288E-16	4.241343E-18
7.040000E+03	1.969145E-16	4.246625E-18
7.050000E+03	1.970975E-16	4.251872E-18
7.060000E+03	1.972784E-16	4.257095E-18
7.070000E+03	1.974572E-16	4.262296E-18
7.080000E+03	1.976345E-16	4.267485E-18
7.090000E+03	1.978104E-16	4.272667E-18
7.100000E+03	1.979855E-16	4.277853E-18
7.110000E+03	1.981600E-16	4.283047E-18
7.120000E+03	1.983344E-16	4.288260E-18
7.130000E+03	1.985089E-16	4.293499E-18
7.140000E+03	1.986841E-16	4.298774E-18
7.150000E+03	1.988362E-16	4.303568E-18
7.160000E+03	1.990138E-16	4.308938E-18
7.170000E+03	1.991932E-16	4.314368E-18
7.180000E+03	1.993750E-16	4.319871E-18
7.190000E+03	1.995354E-16	4.324930E-18
7.200000E+03	1.997233E-16	4.330607E-18
7.210000E+03	1.999148E-16	4.336385E-18
7.220000E+03	2.000865E-16	4.341753E-18
7.230000E+03	2.002872E-16	4.347772E-18
7.240000E+03	2.004932E-16	4.353929E-18
7.250000E+03	2.006809E-16	4.359708E-18
7.260000E+03	2.008994E-16	4.366178E-18
7.270000E+03	2.011006E-16	4.372295E-18
7.280000E+03	2.013340E-16	4.379134E-18
7.290000E+03	2.015514E-16	4.385645E-18
7.300000E+03	2.018023E-16	4.392908E-18
7.310000E+03	2.020385E-16	4.399872E-18
7.320000E+03	2.023097E-16	4.407623E-18
7.330000E+03	2.025675E-16	4.415103E-18
7.340000E+03	2.028373E-16	4.422868E-18
7.350000E+03	2.031445E-16	4.431472E-18
7.360000E+03	2.034405E-16	4.439855E-18
7.370000E+03	2.037509E-16	4.448576E-18
7.380000E+03	2.040766E-16	4.457653E-18
7.390000E+03	2.044432E-16	4.467650E-18
7.400000E+03	2.048019E-16	4.477499E-18
7.410000E+03	2.051785E-16	4.487763E-18
7.420000E+03	2.055737E-16	4.498461E-18
7.430000E+03	2.059886E-16	4.509616E-18
7.440000E+03	2.064241E-16	4.521249E-18
7.450000E+03	2.068812E-16	4.533381E-18
7.460000E+03	2.073608E-16	4.546033E-18
7.470000E+03	2.078636E-16	4.559225E-18
7.480000E+03	2.083908E-16	4.572979E-18
7.490000E+03	2.089432E-16	4.587316E-18
7.500000E+03	2.095218E-16	4.602257E-18
7.510000E+03	2.101273E-16	4.617822E-18
7.520000E+03	2.107607E-16	4.634032E-18
7.530000E+03	2.114227E-16	4.650904E-18
7.540000E+03	2.120880E-16	4.667880E-18
7.550000E+03	2.128097E-16	4.686132E-18
7.560000E+03	2.135617E-16	4.705088E-18
7.570000E+03	2.143440E-16	4.724746E-18
7.580000E+03	2.151299E-16	4.744521E-18
7.590000E+03	2.159720E-16	4.765571E-18
7.600000E+03	2.168435E-16	4.787311E-18
7.610000E+03	2.177172E-16	4.809139E-18
7.620000E+03	2.186464E-16	4.832233E-18
7.630000E+03	2.195767E-16	4.855390E-18
7.640000E+03	2.205618E-16	4.879802E-18
7.650000E+03	2.215468E-16	4.904253E-18
7.660000E+03	2.225859E-16	4.929941E-18
7.670000E+03	2.236235E-16	4.955640E-18
7.680000E+03	2.246864E-16	4.981944E-18
7.690000E+03	2.258022E-16	5.009462E-18
7.700000E+03	2.269144E-16	5.036945E-18
7.710000E+03	2.280502E-16	5.064996E-18
7.720000E+03	2.292376E-16	5.094237E-18
7.730000E+03	2.304191E-16	5.123393E-18
7.740000E+03	2.316224E-16	5.153078E-18
7.750000E+03	2.328471E-16	5.183284E-18
7.760000E+03	2.340923E-16	5.213994E-18
