#wls	flux	fluxerr
1.454545E+03	8.439377E-03	0.000000E+00
1.490909E+03	8.716146E-03	0.000000E+00
1.527273E+03	9.013668E-03	0.000000E+00
1.563636E+03	9.334974E-03	0.000000E+00
1.600000E+03	9.679512E-03	0.000000E+00
1.636364E+03	1.005221E-02	0.000000E+00
1.672727E+03	1.045259E-02	0.000000E+00
1.709091E+03	1.088478E-02	0.000000E+00
1.745455E+03	1.135115E-02	0.000000E+00
1.781818E+03	1.185225E-02	0.000000E+00
1.818182E+03	1.239241E-02	0.000000E+00
1.854545E+03	1.297323E-02	0.000000E+00
1.890909E+03	1.359637E-02	0.000000E+00
1.927273E+03	1.426350E-02	0.000000E+00
1.963636E+03	1.497449E-02	0.000000E+00
2.000000E+03	1.572536E-02	0.000000E+00
2.036364E+03	1.650917E-02	0.000000E+00
2.072727E+03	1.732177E-02	0.000000E+00
2.109091E+03	1.816673E-02	0.000000E+00
2.145455E+03	1.905847E-02	0.000000E+00
2.181818E+03	2.000884E-02	0.000000E+00
2.218182E+03	2.102994E-02	0.000000E+00
2.254545E+03	2.212923E-02	0.000000E+00
2.290909E+03	2.331639E-02	0.000000E+00
2.327273E+03	2.459833E-02	0.000000E+00
2.363636E+03	2.598422E-02	0.000000E+00
2.400000E+03	2.748041E-02	0.000000E+00
2.436364E+03	2.909355E-02	0.000000E+00
2.472727E+03	3.083043E-02	0.000000E+00
2.509091E+03	3.269498E-02	0.000000E+00
2.545455E+03	3.469132E-02	0.000000E+00
2.581818E+03	3.682272E-02	0.000000E+00
2.618182E+03	3.909463E-02	0.000000E+00
2.654545E+03	4.151713E-02	0.000000E+00
2.690909E+03	4.410488E-02	0.000000E+00
2.727273E+03	4.687963E-02	0.000000E+00
2.736364E+03	4.760550E-02	0.000000E+00
2.745455E+03	4.834424E-02	0.000000E+00
2.754545E+03	4.909805E-02	0.000000E+00
2.763636E+03	4.986490E-02	0.000000E+00
2.772727E+03	5.064702E-02	0.000000E+00
2.781818E+03	5.144454E-02	0.000000E+00
2.790909E+03	5.225866E-02	0.000000E+00
2.800000E+03	5.308727E-02	0.000000E+00
2.809091E+03	5.393378E-02	0.000000E+00
2.818182E+03	5.479612E-02	0.000000E+00
2.827273E+03	5.567658E-02	0.000000E+00
2.836364E+03	5.657531E-02	0.000000E+00
2.845455E+03	5.749129E-02	0.000000E+00
2.854545E+03	5.842691E-02	0.000000E+00
2.863636E+03	5.938115E-02	0.000000E+00
2.872727E+03	6.035524E-02	0.000000E+00
2.881818E+03	6.134936E-02	0.000000E+00
2.890909E+03	6.236362E-02	0.000000E+00
2.900000E+03	6.339928E-02	0.000000E+00
2.909091E+03	6.445651E-02	0.000000E+00
2.918182E+03	6.553428E-02	0.000000E+00
2.927273E+03	6.663502E-02	0.000000E+00
2.936364E+03	6.775777E-02	0.000000E+00
2.945455E+03	6.890381E-02	0.000000E+00
2.954545E+03	7.007328E-02	0.000000E+00
2.963636E+03	7.126522E-02	0.000000E+00
2.972727E+03	7.248205E-02	0.000000E+00
2.981818E+03	7.372167E-02	0.000000E+00
2.990909E+03	7.498653E-02	0.000000E+00
3.000000E+03	7.627681E-02	0.000000E+00
3.009091E+03	7.759036E-02	0.000000E+00
3.018182E+03	7.892967E-02	0.000000E+00
3.027273E+03	8.029492E-02	0.000000E+00
3.036364E+03	8.168513E-02	0.000000E+00
3.045455E+03	8.310045E-02	0.000000E+00
3.054545E+03	8.454108E-02	0.000000E+00
3.063636E+03	8.600717E-02	0.000000E+00
3.072727E+03	8.749892E-02	0.000000E+00
3.081818E+03	8.901651E-02	0.000000E+00
3.090909E+03	9.055892E-02	0.000000E+00
3.100000E+03	9.212516E-02	0.000000E+00
3.109091E+03	9.371774E-02	0.000000E+00
3.118182E+03	9.533329E-02	0.000000E+00
3.127273E+03	9.697319E-02	0.000000E+00
3.136364E+03	9.863636E-02	0.000000E+00
3.145455E+03	1.003230E-01	0.000000E+00
3.154545E+03	1.020309E-01	0.000000E+00
3.163636E+03	1.037589E-01	0.000000E+00
3.172727E+03	1.055072E-01	0.000000E+00
3.181818E+03	1.072736E-01	0.000000E+00
3.190909E+03	1.090580E-01	0.000000E+00
3.200000E+03	1.108559E-01	0.000000E+00
3.209091E+03	1.126673E-01	0.000000E+00
3.218182E+03	1.144885E-01	0.000000E+00
3.227273E+03	1.163174E-01	0.000000E+00
3.236364E+03	1.181513E-01	0.000000E+00
3.245455E+03	1.199854E-01	0.000000E+00
3.254545E+03	1.218197E-01	0.000000E+00
3.263636E+03	1.236505E-01	0.000000E+00
3.272727E+03	1.254741E-01	0.000000E+00
3.281818E+03	1.272902E-01	0.000000E+00
3.290909E+03	1.290940E-01	0.000000E+00
3.300000E+03	1.308827E-01	0.000000E+00
3.309091E+03	1.326538E-01	0.000000E+00
3.318182E+03	1.344045E-01	0.000000E+00
3.327273E+03	1.361322E-01	0.000000E+00
3.336364E+03	1.378342E-01	0.000000E+00
3.345455E+03	1.395089E-01	0.000000E+00
3.354545E+03	1.411548E-01	0.000000E+00
3.363636E+03	1.427692E-01	0.000000E+00
3.372727E+03	1.443543E-01	0.000000E+00
3.381818E+03	1.459060E-01	0.000000E+00
3.390909E+03	1.474254E-01	0.000000E+00
3.400000E+03	1.489107E-01	0.000000E+00
3.409091E+03	1.503617E-01	0.000000E+00
3.418182E+03	1.517808E-01	0.000000E+00
3.427273E+03	1.531636E-01	0.000000E+00
3.436364E+03	1.545124E-01	0.000000E+00
3.445455E+03	1.558283E-01	0.000000E+00
3.454545E+03	1.571082E-01	0.000000E+00
3.463636E+03	1.583545E-01	0.000000E+00
3.472727E+03	1.595682E-01	0.000000E+00
3.481818E+03	1.607476E-01	0.000000E+00
3.490909E+03	1.618923E-01	0.000000E+00
3.500000E+03	1.630060E-01	0.000000E+00
3.509091E+03	1.640857E-01	0.000000E+00
3.518182E+03	1.651337E-01	0.000000E+00
3.527273E+03	1.661498E-01	0.000000E+00
3.536364E+03	1.671348E-01	0.000000E+00
3.545455E+03	1.680898E-01	0.000000E+00
3.554545E+03	1.690131E-01	0.000000E+00
3.563636E+03	1.699058E-01	0.000000E+00
3.572727E+03	1.707702E-01	0.000000E+00
3.581818E+03	1.716060E-01	0.000000E+00
3.590909E+03	1.724128E-01	0.000000E+00
3.600000E+03	1.731918E-01	0.000000E+00
3.609091E+03	1.739425E-01	0.000000E+00
3.618182E+03	1.746661E-01	0.000000E+00
3.627273E+03	1.753635E-01	0.000000E+00
3.636364E+03	1.760358E-01	0.000000E+00
3.645455E+03	1.766814E-01	0.000000E+00
3.654545E+03	1.773014E-01	0.000000E+00
3.663636E+03	1.778967E-01	0.000000E+00
3.672727E+03	1.784685E-01	0.000000E+00
3.681818E+03	1.790165E-01	0.000000E+00
3.690909E+03	1.795403E-01	0.000000E+00
3.700000E+03	1.800411E-01	0.000000E+00
3.709091E+03	1.805187E-01	0.000000E+00
3.718182E+03	1.809740E-01	0.000000E+00
3.727273E+03	1.814068E-01	0.000000E+00
3.736364E+03	1.818182E-01	0.000000E+00
3.745455E+03	1.822079E-01	0.000000E+00
3.754545E+03	1.825757E-01	0.000000E+00
3.763636E+03	1.829227E-01	0.000000E+00
3.772727E+03	1.832486E-01	0.000000E+00
3.781818E+03	1.835545E-01	0.000000E+00
3.790909E+03	1.838388E-01	0.000000E+00
3.800000E+03	1.841026E-01	0.000000E+00
3.809091E+03	1.843442E-01	0.000000E+00
3.818182E+03	1.845661E-01	0.000000E+00
3.827273E+03	1.847668E-01	0.000000E+00
3.836364E+03	1.849473E-01	0.000000E+00
3.845455E+03	1.851045E-01	0.000000E+00
3.854545E+03	1.852411E-01	0.000000E+00
3.863636E+03	1.853538E-01	0.000000E+00
3.872727E+03	1.854453E-01	0.000000E+00
3.881818E+03	1.855124E-01	0.000000E+00
3.890909E+03	1.855535E-01	0.000000E+00
3.900000E+03	1.855710E-01	0.000000E+00
3.909091E+03	1.855605E-01	0.000000E+00
3.918182E+03	1.855245E-01	0.000000E+00
3.927273E+03	1.854584E-01	0.000000E+00
3.936364E+03	1.853648E-01	0.000000E+00
3.945455E+03	1.852421E-01	0.000000E+00
3.954545E+03	1.850884E-01	0.000000E+00
3.963636E+03	1.849050E-01	0.000000E+00
3.972727E+03	1.846916E-01	0.000000E+00
3.981818E+03	1.844510E-01	0.000000E+00
3.990909E+03	1.841813E-01	0.000000E+00
4.000000E+03	1.838869E-01	0.000000E+00
4.009091E+03	1.835689E-01	0.000000E+00
4.018182E+03	1.832288E-01	0.000000E+00
4.027273E+03	1.828677E-01	0.000000E+00
4.036364E+03	1.824886E-01	0.000000E+00
4.045455E+03	1.820911E-01	0.000000E+00
4.054545E+03	1.816783E-01	0.000000E+00
4.063636E+03	1.812515E-01	0.000000E+00
4.072727E+03	1.808119E-01	0.000000E+00
4.081818E+03	1.803596E-01	0.000000E+00
4.090909E+03	1.798959E-01	0.000000E+00
4.100000E+03	1.794207E-01	0.000000E+00
4.109091E+03	1.789370E-01	0.000000E+00
4.118182E+03	1.784432E-01	0.000000E+00
4.127273E+03	1.779407E-01	0.000000E+00
4.136364E+03	1.774310E-01	0.000000E+00
4.145455E+03	1.769124E-01	0.000000E+00
4.154545E+03	1.763880E-01	0.000000E+00
4.163636E+03	1.758563E-01	0.000000E+00
4.172727E+03	1.753187E-01	0.000000E+00
4.181818E+03	1.747736E-01	0.000000E+00
4.190909E+03	1.742241E-01	0.000000E+00
4.200000E+03	1.736702E-01	0.000000E+00
4.209091E+03	1.731103E-01	0.000000E+00
4.218182E+03	1.725459E-01	0.000000E+00
4.227273E+03	1.719786E-01	0.000000E+00
4.236364E+03	1.714085E-01	0.000000E+00
4.245455E+03	1.708339E-01	0.000000E+00
4.254545E+03	1.702594E-01	0.000000E+00
4.263636E+03	1.696866E-01	0.000000E+00
4.272727E+03	1.691140E-01	0.000000E+00
4.281818E+03	1.685432E-01	0.000000E+00
4.290909E+03	1.679756E-01	0.000000E+00
4.300000E+03	1.674084E-01	0.000000E+00
4.309091E+03	1.668431E-01	0.000000E+00
4.318182E+03	1.662781E-01	0.000000E+00
4.327273E+03	1.657152E-01	0.000000E+00
4.336364E+03	1.651543E-01	0.000000E+00
4.345455E+03	1.645940E-01	0.000000E+00
4.354545E+03	1.640359E-01	0.000000E+00
4.363636E+03	1.634785E-01	0.000000E+00
4.372727E+03	1.629234E-01	0.000000E+00
4.381818E+03	1.623693E-01	0.000000E+00
4.390909E+03	1.618161E-01	0.000000E+00
4.400000E+03	1.612640E-01	0.000000E+00
4.409091E+03	1.607146E-01	0.000000E+00
4.418182E+03	1.601664E-01	0.000000E+00
4.427273E+03	1.596196E-01	0.000000E+00
4.436364E+03	1.590727E-01	0.000000E+00
4.445455E+03	1.585289E-01	0.000000E+00
4.454545E+03	1.579868E-01	0.000000E+00
4.463636E+03	1.574464E-01	0.000000E+00
4.472727E+03	1.569064E-01	0.000000E+00
4.481818E+03	1.563685E-01	0.000000E+00
4.490909E+03	1.558312E-01	0.000000E+00
4.500000E+03	1.552947E-01	0.000000E+00
4.509091E+03	1.547606E-01	0.000000E+00
4.518182E+03	1.542275E-01	0.000000E+00
4.527273E+03	1.536956E-01	0.000000E+00
4.536364E+03	1.531635E-01	0.000000E+00
4.545455E+03	1.526329E-01	0.000000E+00
4.554545E+03	1.521039E-01	0.000000E+00
4.563636E+03	1.515751E-01	0.000000E+00
4.572727E+03	1.510468E-01	0.000000E+00
4.581818E+03	1.505190E-01	0.000000E+00
4.590909E+03	1.499905E-01	0.000000E+00
4.600000E+03	1.494629E-01	0.000000E+00
4.609091E+03	1.489363E-01	0.000000E+00
4.618182E+03	1.484080E-01	0.000000E+00
4.627273E+03	1.478797E-01	0.000000E+00
4.636364E+03	1.473514E-01	0.000000E+00
4.645455E+03	1.468220E-01	0.000000E+00
4.654545E+03	1.462917E-01	0.000000E+00
4.663636E+03	1.457604E-01	0.000000E+00
4.672727E+03	1.452286E-01	0.000000E+00
4.681818E+03	1.446949E-01	0.000000E+00
4.690909E+03	1.441608E-01	0.000000E+00
4.700000E+03	1.436239E-01	0.000000E+00
4.709091E+03	1.430857E-01	0.000000E+00
4.718182E+03	1.425450E-01	0.000000E+00
4.727273E+03	1.420019E-01	0.000000E+00
4.736364E+03	1.414568E-01	0.000000E+00
4.745455E+03	1.409097E-01	0.000000E+00
4.754545E+03	1.403581E-01	0.000000E+00
4.763636E+03	1.398049E-01	0.000000E+00
4.772727E+03	1.392491E-01	0.000000E+00
4.781818E+03	1.386908E-01	0.000000E+00
4.790909E+03	1.381288E-01	0.000000E+00
4.800000E+03	1.375634E-01	0.000000E+00
4.809091E+03	1.369948E-01	0.000000E+00
4.818182E+03	1.364231E-01	0.000000E+00
4.827273E+03	1.358487E-01	0.000000E+00
4.836364E+03	1.352702E-01	0.000000E+00
4.845455E+03	1.346908E-01	0.000000E+00
4.854545E+03	1.341077E-01	0.000000E+00
4.863636E+03	1.335214E-01	0.000000E+00
4.872727E+03	1.329345E-01	0.000000E+00
4.881818E+03	1.323448E-01	0.000000E+00
4.890909E+03	1.317549E-01	0.000000E+00
4.900000E+03	1.311638E-01	0.000000E+00
4.909091E+03	1.305729E-01	0.000000E+00
4.918182E+03	1.299811E-01	0.000000E+00
4.927273E+03	1.293912E-01	0.000000E+00
4.936364E+03	1.288021E-01	0.000000E+00
4.945455E+03	1.282151E-01	0.000000E+00
4.954545E+03	1.276278E-01	0.000000E+00
4.963636E+03	1.270417E-01	0.000000E+00
4.972727E+03	1.264557E-01	0.000000E+00
4.981818E+03	1.258686E-01	0.000000E+00
4.990909E+03	1.252820E-01	0.000000E+00
5.000000E+03	1.246933E-01	0.000000E+00
5.009091E+03	1.241016E-01	0.000000E+00
5.018182E+03	1.235070E-01	0.000000E+00
5.027273E+03	1.229072E-01	0.000000E+00
5.036364E+03	1.223038E-01	0.000000E+00
5.045455E+03	1.216930E-01	0.000000E+00
5.054545E+03	1.210777E-01	0.000000E+00
5.063636E+03	1.204568E-01	0.000000E+00
5.072727E+03	1.198293E-01	0.000000E+00
5.081818E+03	1.191953E-01	0.000000E+00
5.090909E+03	1.185552E-01	0.000000E+00
5.100000E+03	1.179078E-01	0.000000E+00
5.109091E+03	1.172558E-01	0.000000E+00
5.118182E+03	1.165970E-01	0.000000E+00
5.127273E+03	1.159340E-01	0.000000E+00
5.136364E+03	1.152645E-01	0.000000E+00
5.145455E+03	1.145911E-01	0.000000E+00
5.154545E+03	1.139139E-01	0.000000E+00
5.163636E+03	1.132320E-01	0.000000E+00
5.172727E+03	1.125467E-01	0.000000E+00
5.181818E+03	1.118580E-01	0.000000E+00
5.190909E+03	1.111674E-01	0.000000E+00
5.200000E+03	1.104749E-01	0.000000E+00
5.209091E+03	1.097795E-01	0.000000E+00
5.218182E+03	1.090835E-01	0.000000E+00
5.227273E+03	1.083872E-01	0.000000E+00
5.236364E+03	1.076894E-01	0.000000E+00
5.245455E+03	1.069914E-01	0.000000E+00
5.254545E+03	1.062944E-01	0.000000E+00
5.263636E+03	1.055985E-01	0.000000E+00
5.272727E+03	1.049025E-01	0.000000E+00
5.281818E+03	1.042078E-01	0.000000E+00
5.290909E+03	1.035154E-01	0.000000E+00
5.300000E+03	1.028253E-01	0.000000E+00
5.309091E+03	1.021366E-01	0.000000E+00
5.318182E+03	1.014503E-01	0.000000E+00
5.327273E+03	1.007665E-01	0.000000E+00
5.336364E+03	1.000863E-01	0.000000E+00
5.345455E+03	9.940973E-02	0.000000E+00
5.354545E+03	9.873562E-02	0.000000E+00
5.363636E+03	9.806512E-02	0.000000E+00
5.372727E+03	9.739713E-02	0.000000E+00
5.381818E+03	9.673489E-02	0.000000E+00
5.390909E+03	9.607511E-02	0.000000E+00
5.400000E+03	9.541891E-02	0.000000E+00
5.409091E+03	9.476728E-02	0.000000E+00
5.418182E+03	9.411915E-02	0.000000E+00
5.427273E+03	9.347448E-02	0.000000E+00
5.436364E+03	9.283428E-02	0.000000E+00
5.445455E+03	9.219745E-02	0.000000E+00
5.454545E+03	9.156503E-02	0.000000E+00
5.463636E+03	9.093480E-02	0.000000E+00
5.472727E+03	9.030886E-02	0.000000E+00
5.481818E+03	8.968502E-02	0.000000E+00
5.490909E+03	8.906533E-02	0.000000E+00
5.500000E+03	8.844659E-02	0.000000E+00
5.509091E+03	8.783081E-02	0.000000E+00
5.518182E+03	8.721688E-02	0.000000E+00
5.527273E+03	8.660470E-02	0.000000E+00
5.536364E+03	8.599218E-02	0.000000E+00
5.545455E+03	8.538127E-02	0.000000E+00
5.554545E+03	8.476879E-02	0.000000E+00
5.563636E+03	8.415674E-02	0.000000E+00
5.572727E+03	8.354194E-02	0.000000E+00
5.581818E+03	8.292429E-02	0.000000E+00
5.590909E+03	8.230273E-02	0.000000E+00
5.600000E+03	8.167716E-02	0.000000E+00
5.609091E+03	8.104441E-02	0.000000E+00
5.618182E+03	8.040443E-02	0.000000E+00
5.627273E+03	7.975613E-02	0.000000E+00
5.636364E+03	7.909940E-02	0.000000E+00
5.645455E+03	7.843413E-02	0.000000E+00
5.654545E+03	7.776224E-02	0.000000E+00
5.663636E+03	7.708652E-02	0.000000E+00
5.672727E+03	7.640785E-02	0.000000E+00
5.681818E+03	7.572801E-02	0.000000E+00
5.690909E+03	7.504877E-02	0.000000E+00
5.700000E+03	7.437086E-02	0.000000E+00
5.709091E+03	7.369604E-02	0.000000E+00
5.718182E+03	7.302499E-02	0.000000E+00
5.727273E+03	7.235842E-02	0.000000E+00
5.736364E+03	7.169793E-02	0.000000E+00
5.745455E+03	7.104324E-02	0.000000E+00
5.754545E+03	7.039594E-02	0.000000E+00
5.763636E+03	6.975468E-02	0.000000E+00
5.772727E+03	6.912007E-02	0.000000E+00
5.781818E+03	6.849173E-02	0.000000E+00
5.790909E+03	6.787024E-02	0.000000E+00
5.800000E+03	6.725426E-02	0.000000E+00
5.809091E+03	6.664337E-02	0.000000E+00
5.818182E+03	6.603625E-02	0.000000E+00
5.827273E+03	6.543066E-02	0.000000E+00
5.836364E+03	6.482531E-02	0.000000E+00
5.845455E+03	6.421985E-02	0.000000E+00
5.854545E+03	6.361404E-02	0.000000E+00
5.863636E+03	6.300788E-02	0.000000E+00
5.872727E+03	6.240281E-02	0.000000E+00
5.881818E+03	6.180028E-02	0.000000E+00
5.890909E+03	6.120079E-02	0.000000E+00
5.900000E+03	6.060391E-02	0.000000E+00
5.909091E+03	6.001196E-02	0.000000E+00
5.918182E+03	5.942534E-02	0.000000E+00
5.927273E+03	5.884355E-02	0.000000E+00
5.936364E+03	5.826787E-02	0.000000E+00
5.945455E+03	5.769863E-02	0.000000E+00
5.954545E+03	5.713526E-02	0.000000E+00
5.963636E+03	5.657803E-02	0.000000E+00
5.972727E+03	5.602898E-02	0.000000E+00
5.981818E+03	5.548570E-02	0.000000E+00
5.990909E+03	5.495012E-02	0.000000E+00
6.000000E+03	5.442243E-02	0.000000E+00
6.009091E+03	5.390102E-02	0.000000E+00
6.018182E+03	5.338777E-02	0.000000E+00
6.027273E+03	5.288107E-02	0.000000E+00
6.036364E+03	5.238275E-02	0.000000E+00
6.045455E+03	5.189112E-02	0.000000E+00
6.054545E+03	5.140711E-02	0.000000E+00
6.063636E+03	5.093082E-02	0.000000E+00
6.072727E+03	5.046137E-02	0.000000E+00
6.081818E+03	4.999883E-02	0.000000E+00
6.090909E+03	4.954402E-02	0.000000E+00
6.100000E+03	4.909614E-02	0.000000E+00
6.109091E+03	4.865515E-02	0.000000E+00
6.118182E+03	4.822107E-02	0.000000E+00
6.127273E+03	4.779387E-02	0.000000E+00
6.136364E+03	4.737352E-02	0.000000E+00
6.145455E+03	4.696001E-02	0.000000E+00
6.154545E+03	4.655245E-02	0.000000E+00
6.163636E+03	4.615165E-02	0.000000E+00
6.172727E+03	4.575756E-02	0.000000E+00
6.181818E+03	4.536931E-02	0.000000E+00
6.190909E+03	4.498767E-02	0.000000E+00
6.200000E+03	4.461176E-02	0.000000E+00
6.209091E+03	4.424157E-02	0.000000E+00
6.218182E+03	4.387700E-02	0.000000E+00
6.227273E+03	4.351801E-02	0.000000E+00
6.236364E+03	4.316535E-02	0.000000E+00
6.245455E+03	4.281736E-02	0.000000E+00
6.254545E+03	4.247478E-02	0.000000E+00
6.263636E+03	4.213752E-02	0.000000E+00
6.272727E+03	4.180477E-02	0.000000E+00
6.281818E+03	4.147722E-02	0.000000E+00
6.290909E+03	4.115484E-02	0.000000E+00
6.300000E+03	4.083679E-02	0.000000E+00
6.309091E+03	4.052296E-02	0.000000E+00
6.318182E+03	4.021412E-02	0.000000E+00
6.327273E+03	3.990938E-02	0.000000E+00
6.336364E+03	3.960874E-02	0.000000E+00
6.345455E+03	3.931211E-02	0.000000E+00
6.354545E+03	3.901942E-02	0.000000E+00
6.363636E+03	3.872989E-02	0.000000E+00
6.372727E+03	3.844494E-02	0.000000E+00
6.381818E+03	3.816303E-02	0.000000E+00
6.390909E+03	3.788484E-02	0.000000E+00
6.400000E+03	3.760955E-02	0.000000E+00
6.409091E+03	3.733716E-02	0.000000E+00
6.418182E+03	3.706833E-02	0.000000E+00
6.427273E+03	3.680228E-02	0.000000E+00
6.436364E+03	3.653821E-02	0.000000E+00
6.445455E+03	3.627754E-02	0.000000E+00
6.454545E+03	3.601949E-02	0.000000E+00
6.463636E+03	3.576332E-02	0.000000E+00
6.472727E+03	3.550967E-02	0.000000E+00
6.481818E+03	3.525781E-02	0.000000E+00
6.490909E+03	3.500838E-02	0.000000E+00
6.500000E+03	3.476066E-02	0.000000E+00
6.509091E+03	3.451531E-02	0.000000E+00
6.518182E+03	3.427088E-02	0.000000E+00
6.527273E+03	3.402801E-02	0.000000E+00
6.536364E+03	3.378742E-02	0.000000E+00
6.545455E+03	3.354765E-02	0.000000E+00
6.554545E+03	3.330865E-02	0.000000E+00
6.563636E+03	3.307112E-02	0.000000E+00
6.572727E+03	3.283503E-02	0.000000E+00
6.581818E+03	3.259965E-02	0.000000E+00
6.590909E+03	3.236564E-02	0.000000E+00
6.600000E+03	3.213229E-02	0.000000E+00
6.609091E+03	3.189958E-02	0.000000E+00
6.618182E+03	3.166816E-02	0.000000E+00
6.627273E+03	3.143735E-02	0.000000E+00
6.636364E+03	3.120779E-02	0.000000E+00
6.645455E+03	3.097880E-02	0.000000E+00
6.654545E+03	3.075033E-02	0.000000E+00
6.663636E+03	3.052373E-02	0.000000E+00
6.672727E+03	3.029763E-02	0.000000E+00
6.681818E+03	3.007338E-02	0.000000E+00
6.690909E+03	2.985023E-02	0.000000E+00
6.700000E+03	2.962887E-02	0.000000E+00
6.709091E+03	2.940989E-02	0.000000E+00
6.718182E+03	2.919268E-02	0.000000E+00
6.727273E+03	2.897844E-02	0.000000E+00
6.736364E+03	2.876722E-02	0.000000E+00
6.745455E+03	2.855956E-02	0.000000E+00
6.754545E+03	2.835549E-02	0.000000E+00
6.763636E+03	2.815494E-02	0.000000E+00
6.772727E+03	2.795851E-02	0.000000E+00
6.781818E+03	2.776489E-02	0.000000E+00
6.790909E+03	2.757402E-02	0.000000E+00
6.800000E+03	2.738526E-02	0.000000E+00
6.809091E+03	2.719922E-02	0.000000E+00
6.818182E+03	2.701524E-02	0.000000E+00
6.827273E+03	2.683266E-02	0.000000E+00
6.836364E+03	2.665144E-02	0.000000E+00
6.845455E+03	2.647161E-02	0.000000E+00
6.854545E+03	2.629252E-02	0.000000E+00
6.863636E+03	2.611475E-02	0.000000E+00
6.872727E+03	2.593710E-02	0.000000E+00
6.881818E+03	2.576079E-02	0.000000E+00
6.890909E+03	2.558519E-02	0.000000E+00
6.900000E+03	2.541030E-02	0.000000E+00
6.909091E+03	2.523549E-02	0.000000E+00
6.918182E+03	2.506139E-02	0.000000E+00
6.927273E+03	2.488802E-02	0.000000E+00
6.936364E+03	2.471533E-02	0.000000E+00
6.945455E+03	2.454276E-02	0.000000E+00
6.954545E+03	2.437088E-02	0.000000E+00
6.963636E+03	2.419913E-02	0.000000E+00
6.972727E+03	2.402869E-02	0.000000E+00
6.981818E+03	2.385777E-02	0.000000E+00
6.990909E+03	2.368817E-02	0.000000E+00
7.000000E+03	2.351929E-02	0.000000E+00
7.009091E+03	2.335054E-02	0.000000E+00
7.018182E+03	2.318253E-02	0.000000E+00
7.027273E+03	2.301526E-02	0.000000E+00
7.036364E+03	2.284870E-02	0.000000E+00
7.045455E+03	2.268291E-02	0.000000E+00
7.054545E+03	2.251844E-02	0.000000E+00
