#wls	flux	fluxerr
1.454545E+03	9.407305E-03	1.370554E-04
1.490909E+03	9.435613E-03	1.373535E-04
1.527273E+03	9.465526E-03	1.376714E-04
1.563636E+03	9.500715E-03	1.380621E-04
1.600000E+03	9.537491E-03	1.384719E-04
1.636364E+03	9.577689E-03	1.389271E-04
1.672727E+03	9.621300E-03	1.394276E-04
1.709091E+03	9.672056E-03	1.400269E-04
1.745455E+03	9.724348E-03	1.406436E-04
1.781818E+03	9.783788E-03	1.413585E-04
1.818182E+03	9.848498E-03	1.421442E-04
1.854545E+03	9.918475E-03	1.430002E-04
1.890909E+03	9.995601E-03	1.439531E-04
1.927273E+03	1.007797E-02	1.449751E-04
1.963636E+03	1.016937E-02	1.461203E-04
2.000000E+03	1.026789E-02	1.473606E-04
2.036364E+03	1.037352E-02	1.486951E-04
2.072727E+03	1.048813E-02	1.501503E-04
2.109091E+03	1.061171E-02	1.517251E-04
2.145455E+03	1.074422E-02	1.534183E-04
2.181818E+03	1.088756E-02	1.552563E-04
2.218182E+03	1.103973E-02	1.572097E-04
2.254545E+03	1.120455E-02	1.593322E-04
2.290909E+03	1.138196E-02	1.616217E-04
2.327273E+03	1.156995E-02	1.640485E-04
2.363636E+03	1.177230E-02	1.666654E-04
2.400000E+03	1.198892E-02	1.694697E-04
2.436364E+03	1.222163E-02	1.724859E-04
2.472727E+03	1.247227E-02	1.757383E-04
2.509091E+03	1.274066E-02	1.792229E-04
2.545455E+03	1.302859E-02	1.829629E-04
2.581818E+03	1.334173E-02	1.870360E-04
2.618182E+03	1.367789E-02	1.914092E-04
2.654545E+03	1.404266E-02	1.961585E-04
2.690909E+03	1.443770E-02	2.013040E-04
2.727273E+03	1.486852E-02	2.069195E-04
2.736364E+03	1.498153E-02	2.083923E-04
2.745455E+03	1.509820E-02	2.099142E-04
2.754545E+03	1.521658E-02	2.114577E-04
2.763636E+03	1.533667E-02	2.130228E-04
2.772727E+03	1.546040E-02	2.146364E-04
2.781818E+03	1.558776E-02	2.162983E-04
2.790909E+03	1.571876E-02	2.180083E-04
2.800000E+03	1.585143E-02	2.197391E-04
2.809091E+03	1.598575E-02	2.214905E-04
2.818182E+03	1.612563E-02	2.233165E-04
2.827273E+03	1.626714E-02	2.251626E-04
2.836364E+03	1.641224E-02	2.270558E-04
2.845455E+03	1.656285E-02	2.290228E-04
2.854545E+03	1.671508E-02	2.310093E-04
2.863636E+03	1.687085E-02	2.330421E-04
2.872727E+03	1.703015E-02	2.351209E-04
2.881818E+03	1.719493E-02	2.372724E-04
2.890909E+03	1.736321E-02	2.394693E-04
2.900000E+03	1.753499E-02	2.417114E-04
2.909091E+03	1.771025E-02	2.439984E-04
2.918182E+03	1.789092E-02	2.463568E-04
2.927273E+03	1.807699E-02	2.487862E-04
2.936364E+03	1.826649E-02	2.512595E-04
2.945455E+03	1.845941E-02	2.537765E-04
2.954545E+03	1.865962E-02	2.563901E-04
2.963636E+03	1.886322E-02	2.590466E-04
2.972727E+03	1.907213E-02	2.617724E-04
2.981818E+03	1.928632E-02	2.645669E-04
2.990909E+03	1.950772E-02	2.674563E-04
3.000000E+03	1.973243E-02	2.703871E-04
3.009091E+03	1.996430E-02	2.734119E-04
3.018182E+03	2.020138E-02	2.765038E-04
3.027273E+03	2.044557E-02	2.796887E-04
3.036364E+03	2.069491E-02	2.829396E-04
3.045455E+03	2.094939E-02	2.862562E-04
3.054545E+03	2.121284E-02	2.896905E-04
3.063636E+03	2.148137E-02	2.931894E-04
3.072727E+03	2.175880E-02	2.968049E-04
3.081818E+03	2.204127E-02	3.004839E-04
3.090909E+03	2.233258E-02	3.042782E-04
3.100000E+03	2.263078E-02	3.081611E-04
3.109091E+03	2.293584E-02	3.121318E-04
3.118182E+03	2.324965E-02	3.162157E-04
3.127273E+03	2.357025E-02	3.203864E-04
3.136364E+03	2.390144E-02	3.246949E-04
3.145455E+03	2.423937E-02	3.290887E-04
3.154545E+03	2.458588E-02	3.335926E-04
3.163636E+03	2.494287E-02	3.382324E-04
3.172727E+03	2.530838E-02	3.429809E-04
3.181818E+03	2.568238E-02	3.478375E-04
3.190909E+03	2.606671E-02	3.528270E-04
3.200000E+03	2.646133E-02	3.579485E-04
3.209091E+03	2.686431E-02	3.631755E-04
3.218182E+03	2.727939E-02	3.685584E-04
3.227273E+03	2.770464E-02	3.740710E-04
3.236364E+03	2.813998E-02	3.797116E-04
3.245455E+03	2.858536E-02	3.854793E-04
3.254545E+03	2.904455E-02	3.914247E-04
3.263636E+03	2.951366E-02	3.974951E-04
3.272727E+03	2.999457E-02	4.037152E-04
3.281818E+03	3.048720E-02	4.100839E-04
3.290909E+03	3.099339E-02	4.166254E-04
3.300000E+03	3.150928E-02	4.232876E-04
3.309091E+03	3.204049E-02	4.301455E-04
3.318182E+03	3.258317E-02	4.371472E-04
3.327273E+03	3.314101E-02	4.443416E-04
3.336364E+03	3.371021E-02	4.516775E-04
3.345455E+03	3.429446E-02	4.592038E-04
3.354545E+03	3.489177E-02	4.668936E-04
3.363636E+03	3.550397E-02	4.747709E-04
3.372727E+03	3.613099E-02	4.828343E-04
3.381818E+03	3.677273E-02	4.910821E-04
3.390909E+03	3.742729E-02	4.994885E-04
3.400000E+03	3.810013E-02	5.081258E-04
3.409091E+03	3.878563E-02	5.169186E-04
3.418182E+03	3.948927E-02	5.259396E-04
3.427273E+03	4.020725E-02	5.351375E-04
3.436364E+03	4.094137E-02	5.445360E-04
3.445455E+03	4.169333E-02	5.541571E-04
3.454545E+03	4.246127E-02	5.639755E-04
3.463636E+03	4.324508E-02	5.739893E-04
3.472727E+03	4.404649E-02	5.842209E-04
3.481818E+03	4.486547E-02	5.946695E-04
3.490909E+03	4.570188E-02	6.053326E-04
3.500000E+03	4.655382E-02	6.161845E-04
3.509091E+03	4.742486E-02	6.272719E-04
3.518182E+03	4.831492E-02	6.385933E-04
3.527273E+03	4.922211E-02	6.501228E-04
3.536364E+03	5.014629E-02	6.618585E-04
3.545455E+03	5.109105E-02	6.738469E-04
3.554545E+03	5.205268E-02	6.860385E-04
3.563636E+03	5.303288E-02	6.984552E-04
3.572727E+03	5.403158E-02	7.110955E-04
3.581818E+03	5.504869E-02	7.239576E-04
3.590909E+03	5.608415E-02	7.370401E-04
3.600000E+03	5.713966E-02	7.503647E-04
3.609091E+03	5.821334E-02	7.639064E-04
3.618182E+03	5.930517E-02	7.776639E-04
3.627273E+03	6.041499E-02	7.916348E-04
3.636364E+03	6.154461E-02	8.058422E-04
3.645455E+03	6.269034E-02	8.202370E-04
3.654545E+03	6.385568E-02	8.348647E-04
3.663636E+03	6.504061E-02	8.497243E-04
3.672727E+03	6.624150E-02	8.647678E-04
3.681818E+03	6.746005E-02	8.800168E-04
3.690909E+03	6.869804E-02	8.954940E-04
3.700000E+03	6.995184E-02	9.111513E-04
3.709091E+03	7.122144E-02	9.269884E-04
3.718182E+03	7.250857E-02	9.430270E-04
3.727273E+03	7.381323E-02	9.592666E-04
3.736364E+03	7.513185E-02	9.756603E-04
3.745455E+03	7.646619E-02	9.922305E-04
3.754545E+03	7.781450E-02	1.008954E-03
3.763636E+03	7.917856E-02	1.025853E-03
3.772727E+03	8.055484E-02	1.042882E-03
3.781818E+03	8.194514E-02	1.060064E-03
3.790909E+03	8.334773E-02	1.077375E-03
3.800000E+03	8.476091E-02	1.094794E-03
3.809091E+03	8.618649E-02	1.112343E-03
3.818182E+03	8.762105E-02	1.129978E-03
3.827273E+03	8.906462E-02	1.147698E-03
3.836364E+03	9.051558E-02	1.165484E-03
3.845455E+03	9.197402E-02	1.183335E-03
3.854545E+03	9.343830E-02	1.201231E-03
3.863636E+03	9.490682E-02	1.219150E-03
3.872727E+03	9.637969E-02	1.237094E-03
3.881818E+03	9.785359E-02	1.255021E-03
3.890909E+03	9.932696E-02	1.272909E-03
3.900000E+03	1.007999E-01	1.290762E-03
3.909091E+03	1.022710E-01	1.308559E-03
3.918182E+03	1.037352E-01	1.326237E-03
3.927273E+03	1.051944E-01	1.343820E-03
3.936364E+03	1.066437E-01	1.361246E-03
3.945455E+03	1.080815E-01	1.378496E-03
3.954545E+03	1.095065E-01	1.395552E-03
3.963636E+03	1.109137E-01	1.412351E-03
3.972727E+03	1.123016E-01	1.428875E-03
3.981818E+03	1.136672E-01	1.445086E-03
3.990909E+03	1.150072E-01	1.460944E-03
4.000000E+03	1.163169E-01	1.476389E-03
4.009091E+03	1.175931E-01	1.491382E-03
4.018182E+03	1.188328E-01	1.505884E-03
4.027273E+03	1.200327E-01	1.519859E-03
4.036364E+03	1.211883E-01	1.533246E-03
4.045455E+03	1.222979E-01	1.546030E-03
4.054545E+03	1.233587E-01	1.558173E-03
4.063636E+03	1.243724E-01	1.569700E-03
4.072727E+03	1.253395E-01	1.580618E-03
4.081818E+03	1.262618E-01	1.590952E-03
4.090909E+03	1.271412E-01	1.600728E-03
4.100000E+03	1.279797E-01	1.609970E-03
4.109091E+03	1.287775E-01	1.618684E-03
4.118182E+03	1.295380E-01	1.626913E-03
4.127273E+03	1.302648E-01	1.634705E-03
4.136364E+03	1.309580E-01	1.642062E-03
4.145455E+03	1.316211E-01	1.649027E-03
4.154545E+03	1.322541E-01	1.655603E-03
4.163636E+03	1.328605E-01	1.661834E-03
4.172727E+03	1.334403E-01	1.667721E-03
4.181818E+03	1.339986E-01	1.673328E-03
4.190909E+03	1.345335E-01	1.678634E-03
4.200000E+03	1.350502E-01	1.683703E-03
4.209091E+03	1.355468E-01	1.688512E-03
4.218182E+03	1.360282E-01	1.693125E-03
4.227273E+03	1.364944E-01	1.697539E-03
4.236364E+03	1.369485E-01	1.701796E-03
4.245455E+03	1.373904E-01	1.705893E-03
4.254545E+03	1.378214E-01	1.709848E-03
4.263636E+03	1.382447E-01	1.713701E-03
4.272727E+03	1.386599E-01	1.717448E-03
4.281818E+03	1.390701E-01	1.721127E-03
4.290909E+03	1.394733E-01	1.724712E-03
4.300000E+03	1.398724E-01	1.728242E-03
4.309091E+03	1.402685E-01	1.731730E-03
4.318182E+03	1.406614E-01	1.735173E-03
4.327273E+03	1.410487E-01	1.738542E-03
4.336364E+03	1.414350E-01	1.741894E-03
4.345455E+03	1.418162E-01	1.745180E-03
4.354545E+03	1.421953E-01	1.748433E-03
4.363636E+03	1.425713E-01	1.751647E-03
4.372727E+03	1.429438E-01	1.754812E-03
4.381818E+03	1.433153E-01	1.757962E-03
4.390909E+03	1.436835E-01	1.761068E-03
4.400000E+03	1.440476E-01	1.764122E-03
4.409091E+03	1.444070E-01	1.767114E-03
4.418182E+03	1.447626E-01	1.770057E-03
4.427273E+03	1.451119E-01	1.772922E-03
4.436364E+03	1.454547E-01	1.775704E-03
4.445455E+03	1.457912E-01	1.778408E-03
4.454545E+03	1.461218E-01	1.781038E-03
4.463636E+03	1.464437E-01	1.783560E-03
4.472727E+03	1.467604E-01	1.786019E-03
4.481818E+03	1.470691E-01	1.788379E-03
4.490909E+03	1.473717E-01	1.790665E-03
4.500000E+03	1.476687E-01	1.792881E-03
4.509091E+03	1.479570E-01	1.794993E-03
4.518182E+03	1.482387E-01	1.797024E-03
4.527273E+03	1.485159E-01	1.798998E-03
4.536364E+03	1.487837E-01	1.800861E-03
4.545455E+03	1.490476E-01	1.802675E-03
4.554545E+03	1.493029E-01	1.804386E-03
4.563636E+03	1.495531E-01	1.806035E-03
4.572727E+03	1.497969E-01	1.807607E-03
4.581818E+03	1.500346E-01	1.809106E-03
4.590909E+03	1.502663E-01	1.810533E-03
4.600000E+03	1.504924E-01	1.811892E-03
4.609091E+03	1.507130E-01	1.813186E-03
4.618182E+03	1.509283E-01	1.814417E-03
4.627273E+03	1.511385E-01	1.815588E-03
4.636364E+03	1.513438E-01	1.816700E-03
4.645455E+03	1.515427E-01	1.817736E-03
4.654545E+03	1.517387E-01	1.818737E-03
4.663636E+03	1.519285E-01	1.819666E-03
4.672727E+03	1.521156E-01	1.820563E-03
4.681818E+03	1.522968E-01	1.821390E-03
4.690909E+03	1.524738E-01	1.822168E-03
4.700000E+03	1.526484E-01	1.822919E-03
4.709091E+03	1.528174E-01	1.823604E-03
4.718182E+03	1.529840E-01	1.824262E-03
4.727273E+03	1.531452E-01	1.824855E-03
4.736364E+03	1.533042E-01	1.825424E-03
4.745455E+03	1.534594E-01	1.825949E-03
4.754545E+03	1.536108E-01	1.826431E-03
4.763636E+03	1.537586E-01	1.826870E-03
4.772727E+03	1.539026E-01	1.827267E-03
4.781818E+03	1.540430E-01	1.827621E-03
4.790909E+03	1.541813E-01	1.827953E-03
4.800000E+03	1.543159E-01	1.828242E-03
4.809091E+03	1.544469E-01	1.828490E-03
4.818182E+03	1.545758E-01	1.828714E-03
4.827273E+03	1.547010E-01	1.828897E-03
4.836364E+03	1.548225E-01	1.829038E-03
4.845455E+03	1.549403E-01	1.829137E-03
4.854545E+03	1.550544E-01	1.829193E-03
4.863636E+03	1.551663E-01	1.829226E-03
4.872727E+03	1.552744E-01	1.829217E-03
4.881818E+03	1.553787E-01	1.829164E-03
4.890909E+03	1.554791E-01	1.829068E-03
4.900000E+03	1.555757E-01	1.828930E-03
4.909091E+03	1.556700E-01	1.828765E-03
4.918182E+03	1.557587E-01	1.828539E-03
4.927273E+03	1.558434E-01	1.828268E-03
4.936364E+03	1.559257E-01	1.827971E-03
4.945455E+03	1.560024E-01	1.827610E-03
4.954545E+03	1.560750E-01	1.827205E-03
4.963636E+03	1.561419E-01	1.826735E-03
4.972727E+03	1.562046E-01	1.826220E-03
4.981818E+03	1.562616E-01	1.825640E-03
4.990909E+03	1.563127E-01	1.824996E-03
5.000000E+03	1.563581E-01	1.824287E-03
5.009091E+03	1.563975E-01	1.823513E-03
5.018182E+03	1.564311E-01	1.822673E-03
5.027273E+03	1.564603E-01	1.821787E-03
5.036364E+03	1.564820E-01	1.820817E-03
5.045455E+03	1.564992E-01	1.819799E-03
5.054545E+03	1.565121E-01	1.818734E-03
5.063636E+03	1.565188E-01	1.817603E-03
5.072727E+03	1.565211E-01	1.816424E-03
5.081818E+03	1.565189E-01	1.815197E-03
5.090909E+03	1.565136E-01	1.813940E-03
5.100000E+03	1.565038E-01	1.812634E-03
5.109091E+03	1.564894E-01	1.811280E-03
5.118182E+03	1.564704E-01	1.809878E-03
5.127273E+03	1.564483E-01	1.808446E-03
5.136364E+03	1.564232E-01	1.806983E-03
5.145455E+03	1.563918E-01	1.805454E-03
5.154545E+03	1.563589E-01	1.803912E-03
5.163636E+03	1.563198E-01	1.802305E-03
5.172727E+03	1.562776E-01	1.800667E-03
5.181818E+03	1.562322E-01	1.799000E-03
5.190909E+03	1.561823E-01	1.797285E-03
5.200000E+03	1.561277E-01	1.795524E-03
5.209091E+03	1.560685E-01	1.793716E-03
5.218182E+03	1.560063E-01	1.791879E-03
5.227273E+03	1.559380E-01	1.789980E-03
5.236364E+03	1.558667E-01	1.788052E-03
5.245455E+03	1.557924E-01	1.786097E-03
5.254545E+03	1.557121E-01	1.784081E-03
5.263636E+03	1.556273E-01	1.782021E-03
5.272727E+03	1.555367E-01	1.779902E-03
5.281818E+03	1.554433E-01	1.777757E-03
5.290909E+03	1.553455E-01	1.775571E-03
5.300000E+03	1.552420E-01	1.773328E-03
5.309091E+03	1.551329E-01	1.771028E-03
5.318182E+03	1.550196E-01	1.768689E-03
5.327273E+03	1.549022E-01	1.766312E-03
5.336364E+03	1.547778E-01	1.763865E-03
5.345455E+03	1.546496E-01	1.761381E-03
5.354545E+03	1.545159E-01	1.758846E-03
5.363636E+03	1.543755E-01	1.756243E-03
5.372727E+03	1.542314E-01	1.753608E-03
5.381818E+03	1.540807E-01	1.750906E-03
5.390909E+03	1.539235E-01	1.748141E-03
5.400000E+03	1.537613E-01	1.745330E-03
5.409091E+03	1.535927E-01	1.742456E-03
5.418182E+03	1.534164E-01	1.739505E-03
5.427273E+03	1.532353E-01	1.736512E-03
5.436364E+03	1.530467E-01	1.733443E-03
5.445455E+03	1.528505E-01	1.730300E-03
5.454545E+03	1.526484E-01	1.727101E-03
5.463636E+03	1.524375E-01	1.723814E-03
5.472727E+03	1.522193E-01	1.720456E-03
5.481818E+03	1.519938E-01	1.717029E-03
5.490909E+03	1.517598E-01	1.713517E-03
5.500000E+03	1.515157E-01	1.709904E-03
5.509091E+03	1.512631E-01	1.706208E-03
5.518182E+03	1.510006E-01	1.702413E-03
5.527273E+03	1.507283E-01	1.698520E-03
5.536364E+03	1.504446E-01	1.694513E-03
5.545455E+03	1.501498E-01	1.690394E-03
5.554545E+03	1.498437E-01	1.686162E-03
5.563636E+03	1.495235E-01	1.681785E-03
5.572727E+03	1.491892E-01	1.677265E-03
5.581818E+03	1.488408E-01	1.672601E-03
5.590909E+03	1.484755E-01	1.667762E-03
5.600000E+03	1.480919E-01	1.662732E-03
5.609091E+03	1.476884E-01	1.657496E-03
5.618182E+03	1.472624E-01	1.652021E-03
5.627273E+03	1.468137E-01	1.646309E-03
5.636364E+03	1.463466E-01	1.640406E-03
5.645455E+03	1.458626E-01	1.634330E-03
5.654545E+03	1.453630E-01	1.628096E-03
5.663636E+03	1.448508E-01	1.621738E-03
5.672727E+03	1.443278E-01	1.615274E-03
5.681818E+03	1.437957E-01	1.608725E-03
5.690909E+03	1.432548E-01	1.602094E-03
5.700000E+03	1.427067E-01	1.595399E-03
5.709091E+03	1.421532E-01	1.588659E-03
5.718182E+03	1.415944E-01	1.581876E-03
5.727273E+03	1.410304E-01	1.575052E-03
5.736364E+03	1.404644E-01	1.568221E-03
5.745455E+03	1.398950E-01	1.561368E-03
5.754545E+03	1.393237E-01	1.554510E-03
5.763636E+03	1.387492E-01	1.547633E-03
5.772727E+03	1.381759E-01	1.540783E-03
5.781818E+03	1.375994E-01	1.533915E-03
5.790909E+03	1.370241E-01	1.527076E-03
5.800000E+03	1.364486E-01	1.520249E-03
5.809091E+03	1.358714E-01	1.513419E-03
5.818182E+03	1.352955E-01	1.506618E-03
5.827273E+03	1.347206E-01	1.499845E-03
5.836364E+03	1.341443E-01	1.493068E-03
5.845455E+03	1.335691E-01	1.486320E-03
5.854545E+03	1.329925E-01	1.479570E-03
5.863636E+03	1.324172E-01	1.472848E-03
5.872727E+03	1.318422E-01	1.466144E-03
5.881818E+03	1.312677E-01	1.459459E-03
5.890909E+03	1.306941E-01	1.452797E-03
5.900000E+03	1.301202E-01	1.446145E-03
5.909091E+03	1.295491E-01	1.439537E-03
5.918182E+03	1.289797E-01	1.432961E-03
5.927273E+03	1.284123E-01	1.426419E-03
5.936364E+03	1.278484E-01	1.419929E-03
5.945455E+03	1.272885E-01	1.413494E-03
5.954545E+03	1.267325E-01	1.407116E-03
5.963636E+03	1.261809E-01	1.400798E-03
5.972727E+03	1.256364E-01	1.394570E-03
5.981818E+03	1.250964E-01	1.388405E-03
5.990909E+03	1.245653E-01	1.382349E-03
6.000000E+03	1.240403E-01	1.376372E-03
6.009091E+03	1.235230E-01	1.370490E-03
6.018182E+03	1.230133E-01	1.364703E-03
6.027273E+03	1.225126E-01	1.359028E-03
6.036364E+03	1.220195E-01	1.353448E-03
6.045455E+03	1.215369E-01	1.347993E-03
6.054545E+03	1.210606E-01	1.342618E-03
6.063636E+03	1.205945E-01	1.337367E-03
6.072727E+03	1.201373E-01	1.332224E-03
6.081818E+03	1.196889E-01	1.327189E-03
6.090909E+03	1.192492E-01	1.322259E-03
6.100000E+03	1.188181E-01	1.317434E-03
6.109091E+03	1.183954E-01	1.312712E-03
6.118182E+03	1.179824E-01	1.308107E-03
6.127273E+03	1.175763E-01	1.303587E-03
6.136364E+03	1.171796E-01	1.299180E-03
6.145455E+03	1.167908E-01	1.294870E-03
6.154545E+03	1.164097E-01	1.290654E-03
6.163636E+03	1.160363E-01	1.286532E-03
6.172727E+03	1.156702E-01	1.282500E-03
6.181818E+03	1.153114E-01	1.278558E-03
6.190909E+03	1.149610E-01	1.274717E-03
6.200000E+03	1.146174E-01	1.270961E-03
6.209091E+03	1.142807E-01	1.267288E-03
6.218182E+03	1.139504E-01	1.263696E-03
6.227273E+03	1.136265E-01	1.260183E-03
6.236364E+03	1.133087E-01	1.256746E-03
6.245455E+03	1.129970E-01	1.253385E-03
6.254545E+03	1.126911E-01	1.250096E-03
6.263636E+03	1.123921E-01	1.246892E-03
6.272727E+03	1.120972E-01	1.243743E-03
6.281818E+03	1.118090E-01	1.240675E-03
6.290909E+03	1.115245E-01	1.237658E-03
6.300000E+03	1.112463E-01	1.234717E-03
6.309091E+03	1.109728E-01	1.231838E-03
6.318182E+03	1.107039E-01	1.229018E-03
6.327273E+03	1.104394E-01	1.226254E-03
6.336364E+03	1.101792E-01	1.223546E-03
6.345455E+03	1.099230E-01	1.220892E-03
6.354545E+03	1.096708E-01	1.218289E-03
6.363636E+03	1.094223E-01	1.215736E-03
6.372727E+03	1.091773E-01	1.213231E-03
6.381818E+03	1.089358E-01	1.210773E-03
6.390909E+03	1.086976E-01	1.208359E-03
6.400000E+03	1.084626E-01	1.205988E-03
6.409091E+03	1.082318E-01	1.203674E-03
6.418182E+03	1.080025E-01	1.201384E-03
6.427273E+03	1.077759E-01	1.199132E-03
6.436364E+03	1.075531E-01	1.196932E-03
6.445455E+03	1.073327E-01	1.194766E-03
6.454545E+03	1.071132E-01	1.192619E-03
6.463636E+03	1.068972E-01	1.190519E-03
6.472727E+03	1.066830E-01	1.188449E-03
6.481818E+03	1.064707E-01	1.186407E-03
6.490909E+03	1.062601E-01	1.184392E-03
6.500000E+03	1.060509E-01	1.182403E-03
6.509091E+03	1.058431E-01	1.180438E-03
6.518182E+03	1.056379E-01	1.178509E-03
6.527273E+03	1.054323E-01	1.176587E-03
6.536364E+03	1.052291E-01	1.174698E-03
6.545455E+03	1.050266E-01	1.172827E-03
6.554545E+03	1.048260E-01	1.170986E-03
6.563636E+03	1.046259E-01	1.169160E-03
6.572727E+03	1.044261E-01	1.167345E-03
6.581818E+03	1.042264E-01	1.165541E-03
6.590909E+03	1.040280E-01	1.163761E-03
6.600000E+03	1.038294E-01	1.161987E-03
6.609091E+03	1.036318E-01	1.160233E-03
6.618182E+03	1.034349E-01	1.158497E-03
6.627273E+03	1.032359E-01	1.156746E-03
6.636364E+03	1.030386E-01	1.155024E-03
6.645455E+03	1.028414E-01	1.153313E-03
6.654545E+03	1.026429E-01	1.151595E-03
6.663636E+03	1.024442E-01	1.149885E-03
6.672727E+03	1.022449E-01	1.148178E-03
6.681818E+03	1.020435E-01	1.146457E-03
6.690909E+03	1.018426E-01	1.144750E-03
6.700000E+03	1.016404E-01	1.143039E-03
6.709091E+03	1.014367E-01	1.141320E-03
6.718182E+03	1.012325E-01	1.139606E-03
6.727273E+03	1.010250E-01	1.137864E-03
6.736364E+03	1.008151E-01	1.136104E-03
6.745455E+03	1.006038E-01	1.134340E-03
6.754545E+03	1.003896E-01	1.132551E-03
6.763636E+03	1.001721E-01	1.130735E-03
6.772727E+03	9.995236E-02	1.128903E-03
6.781818E+03	9.972730E-02	1.127021E-03
6.790909E+03	9.949793E-02	1.125100E-03
6.800000E+03	9.926530E-02	1.123151E-03
6.809091E+03	9.902636E-02	1.121141E-03
6.818182E+03	9.878215E-02	1.119080E-03
6.827273E+03	9.853231E-02	1.116965E-03
6.836364E+03	9.827523E-02	1.114778E-03
6.845455E+03	9.801060E-02	1.112513E-03
6.854545E+03	9.773946E-02	1.110183E-03
6.863636E+03	9.746026E-02	1.107769E-03
6.872727E+03	9.717306E-02	1.105271E-03
6.881818E+03	9.687832E-02	1.102695E-03
6.890909E+03	9.657642E-02	1.100044E-03
6.900000E+03	9.626780E-02	1.097323E-03
6.909091E+03	9.595291E-02	1.094537E-03
6.918182E+03	9.563088E-02	1.091674E-03
6.927273E+03	9.530347E-02	1.088755E-03
6.936364E+03	9.496981E-02	1.085769E-03
6.945455E+03	9.463160E-02	1.082735E-03
6.954545E+03	9.428930E-02	1.079659E-03
6.963636E+03	9.394198E-02	1.076528E-03
6.972727E+03	9.359011E-02	1.073349E-03
6.981818E+03	9.323529E-02	1.070139E-03
6.990909E+03	9.287665E-02	1.066887E-03
7.000000E+03	9.251455E-02	1.063598E-03
7.009091E+03	9.215061E-02	1.060289E-03
7.018182E+03	9.178385E-02	1.056949E-03
7.027273E+03	9.141585E-02	1.053597E-03
7.036364E+03	9.104568E-02	1.050220E-03
7.045455E+03	9.067360E-02	1.046821E-03
7.054545E+03	9.030114E-02	1.043419E-03
