#wls	flux	fluxerr
1.454545E+03	4.009441E-03	5.276632E-04
1.490909E+03	4.071593E-03	5.353744E-04
1.527273E+03	4.135630E-03	5.433067E-04
1.563636E+03	4.203082E-03	5.516598E-04
1.600000E+03	4.271867E-03	5.601582E-04
1.636364E+03	4.344287E-03	5.691024E-04
1.672727E+03	4.418968E-03	5.783098E-04
1.709091E+03	4.496772E-03	5.878915E-04
1.745455E+03	4.577045E-03	5.977595E-04
1.781818E+03	4.660680E-03	6.080283E-04
1.818182E+03	4.747821E-03	6.187140E-04
1.854545E+03	4.838619E-03	6.298334E-04
1.890909E+03	4.933229E-03	6.414038E-04
1.927273E+03	5.031819E-03	6.534437E-04
1.963636E+03	5.133702E-03	6.658607E-04
2.000000E+03	5.239895E-03	6.787834E-04
2.036364E+03	5.351486E-03	6.923488E-04
2.072727E+03	5.466909E-03	7.063500E-04
2.109091E+03	5.587259E-03	7.209245E-04
2.145455E+03	5.712768E-03	7.360976E-04
2.181818E+03	5.843673E-03	7.518950E-04
2.218182E+03	5.981210E-03	7.684703E-04
2.254545E+03	6.123718E-03	7.856044E-04
2.290909E+03	6.272441E-03	8.034510E-04
2.327273E+03	6.428718E-03	8.221753E-04
2.363636E+03	6.591878E-03	8.416843E-04
2.400000E+03	6.762271E-03	8.620152E-04
2.436364E+03	6.940261E-03	8.832068E-04
2.472727E+03	7.126237E-03	9.053002E-04
2.509091E+03	7.320614E-03	9.283393E-04
2.545455E+03	7.525002E-03	9.525182E-04
2.581818E+03	7.738746E-03	9.777437E-04
2.618182E+03	7.962350E-03	1.004068E-03
2.654545E+03	8.197594E-03	1.031704E-03
2.690909E+03	8.442575E-03	1.060400E-03
2.727273E+03	8.700427E-03	1.090535E-03
2.736364E+03	8.767561E-03	1.098374E-03
2.745455E+03	8.834075E-03	1.106124E-03
2.754545E+03	8.902620E-03	1.114116E-03
2.763636E+03	8.971885E-03	1.122186E-03
2.772727E+03	9.041884E-03	1.130335E-03
2.781818E+03	9.111266E-03	1.138394E-03
2.790909E+03	9.182748E-03	1.146702E-03
2.800000E+03	9.254993E-03	1.155093E-03
2.809091E+03	9.328007E-03	1.163566E-03
2.818182E+03	9.403197E-03	1.172297E-03
2.827273E+03	9.477797E-03	1.180940E-03
2.836364E+03	9.553199E-03	1.189669E-03
2.845455E+03	9.629415E-03	1.198486E-03
2.854545E+03	9.707883E-03	1.207568E-03
2.863636E+03	9.787205E-03	1.216741E-03
2.872727E+03	9.865951E-03	1.225828E-03
2.881818E+03	9.947007E-03	1.235187E-03
2.890909E+03	1.002895E-02	1.244640E-03
2.900000E+03	1.011180E-02	1.254190E-03
2.909091E+03	1.019409E-02	1.263654E-03
2.918182E+03	1.027877E-02	1.273399E-03
2.927273E+03	1.036589E-02	1.283429E-03
2.936364E+03	1.045248E-02	1.293376E-03
2.945455E+03	1.054003E-02	1.303426E-03
2.954545E+03	1.062856E-02	1.313579E-03
2.963636E+03	1.071962E-02	1.324028E-03
2.972727E+03	1.081016E-02	1.334394E-03
2.981818E+03	1.090329E-02	1.345060E-03
2.990909E+03	1.099590E-02	1.355645E-03
3.000000E+03	1.109114E-02	1.366535E-03
3.009091E+03	1.118746E-02	1.377540E-03
3.018182E+03	1.128489E-02	1.388661E-03
3.027273E+03	1.138183E-02	1.399701E-03
3.036364E+03	1.148150E-02	1.411057E-03
3.045455E+03	1.158232E-02	1.422535E-03
3.054545E+03	1.168595E-02	1.434336E-03
3.063636E+03	1.178913E-02	1.446061E-03
3.072727E+03	1.189351E-02	1.457912E-03
3.081818E+03	1.199911E-02	1.469890E-03
3.090909E+03	1.210763E-02	1.482204E-03
3.100000E+03	1.221573E-02	1.494443E-03
3.109091E+03	1.232681E-02	1.507024E-03
3.118182E+03	1.243748E-02	1.519531E-03
3.127273E+03	1.255119E-02	1.532387E-03
3.136364E+03	1.266626E-02	1.545384E-03
3.145455E+03	1.278270E-02	1.558523E-03
3.154545E+03	1.289876E-02	1.571591E-03
3.163636E+03	1.301799E-02	1.585020E-03
3.172727E+03	1.313866E-02	1.598598E-03
3.181818E+03	1.326078E-02	1.612326E-03
3.190909E+03	1.338438E-02	1.626207E-03
3.200000E+03	1.351131E-02	1.640466E-03
3.209091E+03	1.363794E-02	1.654661E-03
3.218182E+03	1.376611E-02	1.669014E-03
3.227273E+03	1.389586E-02	1.683529E-03
3.236364E+03	1.402908E-02	1.698437E-03
3.245455E+03	1.416204E-02	1.713283E-03
3.254545E+03	1.429856E-02	1.728530E-03
3.263636E+03	1.443483E-02	1.743716E-03
3.272727E+03	1.457475E-02	1.759311E-03
3.281818E+03	1.471444E-02	1.774847E-03
3.290909E+03	1.485785E-02	1.790800E-03
3.300000E+03	1.500306E-02	1.806936E-03
3.309091E+03	1.515009E-02	1.823259E-03
3.318182E+03	1.529897E-02	1.839770E-03
3.327273E+03	1.544769E-02	1.856227E-03
3.336364E+03	1.560034E-02	1.873122E-03
3.345455E+03	1.575492E-02	1.890213E-03
3.354545E+03	1.591146E-02	1.907503E-03
3.363636E+03	1.607000E-02	1.924995E-03
3.372727E+03	1.623056E-02	1.942691E-03
3.381818E+03	1.639531E-02	1.960851E-03
3.390909E+03	1.656001E-02	1.978966E-03
3.400000E+03	1.672682E-02	1.997294E-03
3.409091E+03	1.689576E-02	2.015837E-03
3.418182E+03	1.706908E-02	2.034861E-03
3.427273E+03	1.724241E-02	2.053843E-03
3.436364E+03	1.741796E-02	2.073048E-03
3.445455E+03	1.759802E-02	2.092748E-03
3.454545E+03	1.777812E-02	2.112408E-03
3.463636E+03	1.796053E-02	2.132298E-03
3.472727E+03	1.814759E-02	2.152695E-03
3.481818E+03	1.833471E-02	2.173053E-03
3.490909E+03	1.852657E-02	2.193927E-03
3.500000E+03	1.871851E-02	2.214761E-03
3.509091E+03	1.891527E-02	2.236119E-03
3.518182E+03	1.911453E-02	2.257722E-03
3.527273E+03	1.931386E-02	2.279284E-03
3.536364E+03	1.951814E-02	2.301378E-03
3.545455E+03	1.972250E-02	2.323431E-03
3.554545E+03	1.993187E-02	2.346022E-03
3.563636E+03	2.014382E-02	2.368862E-03
3.572727E+03	2.035581E-02	2.391654E-03
3.581818E+03	2.057290E-02	2.414990E-03
3.590909E+03	2.079259E-02	2.438575E-03
3.600000E+03	2.101226E-02	2.462100E-03
3.609091E+03	2.123710E-02	2.486174E-03
3.618182E+03	2.146455E-02	2.510495E-03
3.627273E+03	2.169455E-02	2.535054E-03
3.636364E+03	2.192439E-02	2.559534E-03
3.645455E+03	2.215946E-02	2.584564E-03
3.654545E+03	2.239703E-02	2.609823E-03
3.663636E+03	2.263430E-02	2.634984E-03
3.672727E+03	2.287676E-02	2.660686E-03
3.681818E+03	2.312162E-02	2.686600E-03
3.690909E+03	2.336600E-02	2.712394E-03
3.700000E+03	2.361548E-02	2.738715E-03
3.709091E+03	2.386721E-02	2.765228E-03
3.718182E+03	2.411820E-02	2.791585E-03
3.727273E+03	2.437418E-02	2.818453E-03
3.736364E+03	2.463218E-02	2.845484E-03
3.745455E+03	2.488914E-02	2.872324E-03
3.754545E+03	2.515092E-02	2.899648E-03
3.763636E+03	2.541140E-02	2.926750E-03
3.772727E+03	2.567656E-02	2.954317E-03
3.781818E+03	2.594018E-02	2.981634E-03
3.790909E+03	2.620829E-02	3.009393E-03
3.800000E+03	2.647457E-02	3.036866E-03
3.809091E+03	2.674517E-02	3.064758E-03
3.818182E+03	2.701361E-02	3.092326E-03
3.827273E+03	2.728295E-02	3.119921E-03
3.836364E+03	2.755629E-02	3.147895E-03
3.845455E+03	2.782700E-02	3.175489E-03
3.854545E+03	2.809820E-02	3.203062E-03
3.863636E+03	2.836972E-02	3.230591E-03
3.872727E+03	2.864479E-02	3.258445E-03
3.881818E+03	2.891656E-02	3.285844E-03
3.890909E+03	2.918826E-02	3.313154E-03
3.900000E+03	2.945975E-02	3.340358E-03
3.909091E+03	2.973087E-02	3.367442E-03
3.918182E+03	3.000150E-02	3.394387E-03
3.927273E+03	3.027154E-02	3.421184E-03
3.936364E+03	3.053732E-02	3.447420E-03
3.945455E+03	3.080579E-02	3.473876E-03
3.954545E+03	3.107331E-02	3.500144E-03
3.963636E+03	3.133982E-02	3.526216E-03
3.972727E+03	3.160160E-02	3.551673E-03
3.981818E+03	3.186579E-02	3.577320E-03
3.990909E+03	3.212507E-02	3.602335E-03
4.000000E+03	3.238670E-02	3.627530E-03
4.009091E+03	3.264330E-02	3.652079E-03
4.018182E+03	3.289849E-02	3.676390E-03
4.027273E+03	3.315601E-02	3.700880E-03
4.036364E+03	3.340837E-02	3.724712E-03
4.045455E+03	3.365934E-02	3.748307E-03
4.054545E+03	3.390893E-02	3.771667E-03
4.063636E+03	3.415715E-02	3.794794E-03
4.072727E+03	3.440407E-02	3.817695E-03
4.081818E+03	3.464585E-02	3.839945E-03
4.090909E+03	3.489031E-02	3.862411E-03
4.100000E+03	3.513365E-02	3.884673E-03
4.109091E+03	3.537200E-02	3.906302E-03
4.118182E+03	3.561335E-02	3.928182E-03
4.127273E+03	3.584983E-02	3.949445E-03
4.136364E+03	3.608955E-02	3.970983E-03
4.145455E+03	3.632456E-02	3.991923E-03
4.154545E+03	3.655896E-02	4.012715E-03
4.163636E+03	3.679284E-02	4.033370E-03
4.172727E+03	3.702633E-02	4.053901E-03
4.181818E+03	3.725947E-02	4.074315E-03
4.190909E+03	3.749238E-02	4.094622E-03
4.200000E+03	3.772513E-02	4.114830E-03
4.209091E+03	3.795360E-02	4.134491E-03
4.218182E+03	3.818618E-02	4.154519E-03
4.227273E+03	3.841453E-02	4.174007E-03
4.236364E+03	3.864288E-02	4.193413E-03
4.245455E+03	3.887543E-02	4.213195E-03
4.254545E+03	3.910375E-02	4.232436E-03
4.263636E+03	3.933202E-02	4.251590E-03
4.272727E+03	3.956017E-02	4.270651E-03
4.281818E+03	3.978815E-02	4.289611E-03
4.290909E+03	4.001151E-02	4.307993E-03
4.300000E+03	4.023880E-02	4.326718E-03
4.309091E+03	4.046555E-02	4.345302E-03
4.318182E+03	4.068718E-02	4.363255E-03
4.327273E+03	4.090784E-02	4.381024E-03
4.336364E+03	4.113175E-02	4.399062E-03
4.345455E+03	4.134984E-02	4.416395E-03
4.354545E+03	4.156620E-02	4.433465E-03
4.363636E+03	4.178053E-02	4.450239E-03
4.372727E+03	4.199250E-02	4.466684E-03
4.381818E+03	4.219726E-02	4.482284E-03
4.390909E+03	4.240341E-02	4.497956E-03
4.400000E+03	4.260154E-02	4.512701E-03
4.409091E+03	4.280027E-02	4.527436E-03
4.418182E+03	4.299008E-02	4.541155E-03
4.427273E+03	4.317507E-02	4.554292E-03
4.436364E+03	4.335476E-02	4.566802E-03
4.445455E+03	4.352870E-02	4.578636E-03
4.454545E+03	4.369638E-02	4.589747E-03
4.463636E+03	4.385733E-02	4.600086E-03
4.472727E+03	4.400642E-02	4.609120E-03
4.481818E+03	4.415248E-02	4.617778E-03
4.490909E+03	4.428573E-02	4.625038E-03
4.500000E+03	4.441040E-02	4.631349E-03
4.509091E+03	4.452604E-02	4.636668E-03
4.518182E+03	4.463229E-02	4.640961E-03
4.527273E+03	4.472877E-02	4.644193E-03
4.536364E+03	4.481514E-02	4.646334E-03
4.545455E+03	4.489115E-02	4.647362E-03
4.554545E+03	4.495181E-02	4.646766E-03
4.563636E+03	4.500637E-02	4.645509E-03
4.572727E+03	4.504525E-02	4.642606E-03
4.581818E+03	4.507307E-02	4.638539E-03
4.590909E+03	4.508981E-02	4.633312E-03
4.600000E+03	4.509546E-02	4.626931E-03
4.609091E+03	4.509013E-02	4.619410E-03
4.618182E+03	4.507398E-02	4.610772E-03
4.627273E+03	4.504250E-02	4.600561E-03
4.636364E+03	4.500534E-02	4.589769E-03
4.645455E+03	4.495348E-02	4.577481E-03
4.654545E+03	4.489199E-02	4.564218E-03
4.663636E+03	4.482594E-02	4.550501E-03
4.672727E+03	4.474651E-02	4.535439E-03
4.681818E+03	4.465897E-02	4.519570E-03
4.690909E+03	4.455922E-02	4.502485E-03
4.700000E+03	4.445718E-02	4.485192E-03
4.709091E+03	4.434889E-02	4.467291E-03
4.718182E+03	4.423047E-02	4.448396E-03
4.727273E+03	4.410728E-02	4.429052E-03
4.736364E+03	4.398458E-02	4.409787E-03
4.745455E+03	4.385410E-02	4.389775E-03
4.754545E+03	4.372115E-02	4.369549E-03
4.763636E+03	4.358206E-02	4.348747E-03
4.772727E+03	4.344660E-02	4.328343E-03
4.781818E+03	4.331108E-02	4.307970E-03
4.790909E+03	4.317185E-02	4.287265E-03
4.800000E+03	4.303857E-02	4.267189E-03
4.809091E+03	4.290317E-02	4.246939E-03
4.818182E+03	4.277080E-02	4.227029E-03
4.827273E+03	4.264218E-02	4.207526E-03
4.836364E+03	4.251803E-02	4.188500E-03
4.845455E+03	4.239899E-02	4.170012E-03
4.854545E+03	4.228568E-02	4.152122E-03
4.863636E+03	4.217440E-02	4.134464E-03
4.872727E+03	4.207435E-02	4.117939E-03
4.881818E+03	4.197742E-02	4.101749E-03
4.890909E+03	4.188842E-02	4.086362E-03
4.900000E+03	4.181203E-02	4.072229E-03
4.909091E+03	4.174013E-02	4.058558E-03
4.918182E+03	4.167734E-02	4.045793E-03
4.927273E+03	4.161976E-02	4.033555E-03
4.936364E+03	4.157614E-02	4.022685E-03
4.945455E+03	4.154245E-02	4.012791E-03
4.954545E+03	4.151469E-02	4.003480E-03
4.963636E+03	4.150144E-02	3.995577E-03
4.972727E+03	4.149440E-02	3.988279E-03
4.981818E+03	4.149786E-02	3.981992E-03
4.990909E+03	4.151184E-02	3.976717E-03
5.000000E+03	4.153637E-02	3.972450E-03
5.009091E+03	4.157142E-02	3.969185E-03
5.018182E+03	4.161693E-02	3.966910E-03
5.027273E+03	4.166855E-02	3.965209E-03
5.036364E+03	4.173462E-02	3.964870E-03
5.045455E+03	4.180654E-02	3.965073E-03
5.054545E+03	4.189255E-02	3.966594E-03
5.063636E+03	4.198399E-02	3.968609E-03
5.072727E+03	4.208483E-02	3.971491E-03
5.081818E+03	4.219480E-02	3.975211E-03
5.090909E+03	4.231362E-02	3.979739E-03
5.100000E+03	4.244097E-02	3.985041E-03
5.109091E+03	4.257646E-02	3.991078E-03
5.118182E+03	4.271978E-02	3.997816E-03
5.127273E+03	4.286618E-02	4.004811E-03
5.136364E+03	4.302390E-02	4.012829E-03
5.145455E+03	4.318384E-02	4.021019E-03
5.154545E+03	4.334986E-02	4.029739E-03
5.163636E+03	4.352589E-02	4.039353E-03
5.172727E+03	4.370267E-02	4.048998E-03
5.181818E+03	4.388408E-02	4.059034E-03
5.190909E+03	4.406960E-02	4.069412E-03
5.200000E+03	4.425868E-02	4.080080E-03
5.209091E+03	4.444631E-02	4.090577E-03
5.218182E+03	4.464087E-02	4.101674E-03
5.227273E+03	4.483729E-02	4.112905E-03
5.236364E+03	4.503050E-02	4.123803E-03
5.245455E+03	4.522438E-02	4.134730E-03
5.254545E+03	4.542293E-02	4.146047E-03
5.263636E+03	4.561640E-02	4.156869E-03
5.272727E+03	4.580877E-02	4.167559E-03
5.281818E+03	4.599943E-02	4.178064E-03
5.290909E+03	4.618778E-02	4.188331E-03
5.300000E+03	4.637323E-02	4.198310E-03
5.309091E+03	4.655520E-02	4.207950E-03
5.318182E+03	4.673311E-02	4.217202E-03
5.327273E+03	4.690637E-02	4.226018E-03
5.336364E+03	4.706973E-02	4.233925E-03
5.345455E+03	4.723206E-02	4.241729E-03
5.354545E+03	4.738343E-02	4.248539E-03
5.363636E+03	4.752800E-02	4.254735E-03
5.372727E+03	4.767014E-02	4.260712E-03
5.381818E+03	4.779984E-02	4.265577E-03
5.390909E+03	4.792142E-02	4.269724E-03
5.400000E+03	4.803451E-02	4.273124E-03
5.409091E+03	4.813877E-02	4.275752E-03
5.418182E+03	4.823384E-02	4.277580E-03
5.427273E+03	4.831947E-02	4.278594E-03
5.436364E+03	4.839539E-02	4.278772E-03
5.445455E+03	4.846141E-02	4.278103E-03
5.454545E+03	4.851245E-02	4.276147E-03
5.463636E+03	4.855814E-02	4.273756E-03
5.472727E+03	4.858864E-02	4.270071E-03
5.481818E+03	4.861363E-02	4.265947E-03
5.490909E+03	4.862337E-02	4.260536E-03
5.500000E+03	4.862763E-02	4.254698E-03
5.509091E+03	4.861673E-02	4.247592E-03
5.518182E+03	4.859564E-02	4.239657E-03
5.527273E+03	4.856454E-02	4.230915E-03
5.536364E+03	4.852357E-02	4.221383E-03
5.545455E+03	4.847298E-02	4.211086E-03
5.554545E+03	4.841299E-02	4.200050E-03
5.563636E+03	4.834391E-02	4.188305E-03
5.572727E+03	4.826602E-02	4.175880E-03
5.581818E+03	4.817966E-02	4.162807E-03
5.590909E+03	4.808519E-02	4.149123E-03
5.600000E+03	4.797815E-02	4.134445E-03
5.609091E+03	4.786861E-02	4.119648E-03
5.618182E+03	4.774731E-02	4.103935E-03
5.627273E+03	4.762430E-02	4.088174E-03
5.636364E+03	4.749039E-02	4.071579E-03
5.645455E+03	4.735562E-02	4.055013E-03
5.654545E+03	4.721084E-02	4.037693E-03
5.663636E+03	4.706129E-02	4.020070E-03
5.672727E+03	4.691210E-02	4.002580E-03
5.681818E+03	4.675419E-02	3.984451E-03
5.690909E+03	4.659275E-02	3.966124E-03
5.700000E+03	4.642815E-02	3.947632E-03
5.709091E+03	4.626076E-02	3.929008E-03
5.718182E+03	4.609098E-02	3.910283E-03
5.727273E+03	4.591915E-02	3.891488E-03
5.736364E+03	4.574563E-02	3.872652E-03
5.745455E+03	4.557073E-02	3.853801E-03
5.754545E+03	4.539478E-02	3.834962E-03
5.763636E+03	4.521808E-02	3.816160E-03
5.772727E+03	4.503635E-02	3.797035E-03
5.781818E+03	4.485898E-02	3.778376E-03
5.790909E+03	4.468166E-02	3.759820E-03
5.800000E+03	4.450011E-02	3.741006E-03
5.809091E+03	4.432356E-02	3.722708E-03
5.818182E+03	4.414321E-02	3.704188E-03
5.827273E+03	4.396824E-02	3.686213E-03
5.836364E+03	4.378982E-02	3.668043E-03
5.845455E+03	4.361706E-02	3.650438E-03
5.854545E+03	4.344118E-02	3.632662E-03
5.863636E+03	4.327116E-02	3.615466E-03
5.872727E+03	4.309829E-02	3.598118E-03
5.881818E+03	4.292707E-02	3.580995E-03
5.890909E+03	4.275755E-02	3.564097E-03
5.900000E+03	4.258982E-02	3.547433E-03
5.909091E+03	4.242821E-02	3.531361E-03
5.918182E+03	4.226414E-02	3.515164E-03
5.927273E+03	4.210196E-02	3.499205E-03
5.936364E+03	4.194169E-02	3.483482E-03
5.945455E+03	4.178332E-02	3.467995E-03
5.954545E+03	4.162687E-02	3.452742E-03
5.963636E+03	4.147233E-02	3.437722E-03
5.972727E+03	4.131967E-02	3.422932E-03
5.981818E+03	4.116470E-02	3.408023E-03
5.990909E+03	4.101575E-02	3.393685E-03
6.000000E+03	4.086862E-02	3.379567E-03
6.009091E+03	4.072326E-02	3.365664E-03
6.018182E+03	4.057963E-02	3.351972E-03
6.027273E+03	4.043355E-02	3.338147E-03
6.036364E+03	4.029321E-02	3.324861E-03
6.045455E+03	4.015443E-02	3.311770E-03
6.054545E+03	4.001308E-02	3.298531E-03
6.063636E+03	3.987724E-02	3.285810E-03
6.072727E+03	3.973872E-02	3.272932E-03
6.081818E+03	3.960555E-02	3.260557E-03
6.090909E+03	3.946957E-02	3.248012E-03
6.100000E+03	3.933877E-02	3.235954E-03
6.109091E+03	3.920504E-02	3.223715E-03
6.118182E+03	3.907628E-02	3.211945E-03
6.127273E+03	3.894445E-02	3.199980E-03
6.136364E+03	3.881343E-02	3.188142E-03
6.145455E+03	3.868314E-02	3.176420E-03
6.154545E+03	3.855746E-02	3.165134E-03
6.163636E+03	3.842839E-02	3.153627E-03
6.172727E+03	3.829978E-02	3.142213E-03
6.181818E+03	3.817153E-02	3.130885E-03
6.190909E+03	3.804747E-02	3.119955E-03
6.200000E+03	3.791967E-02	3.108774E-03
6.209091E+03	3.779198E-02	3.097655E-03
6.218182E+03	3.766429E-02	3.086590E-03
6.227273E+03	3.753649E-02	3.075569E-03
6.236364E+03	3.740851E-02	3.064588E-03
6.245455E+03	3.728026E-02	3.053635E-03
6.254545E+03	3.715164E-02	3.042706E-03
6.263636E+03	3.702255E-02	3.031789E-03
6.272727E+03	3.689294E-02	3.020882E-03
6.281818E+03	3.675891E-02	3.009663E-03
6.290909E+03	3.662798E-02	2.998750E-03
6.300000E+03	3.649630E-02	2.987825E-03
6.309091E+03	3.636374E-02	2.976878E-03
6.318182E+03	3.623028E-02	2.965908E-03
6.327273E+03	3.609211E-02	2.954601E-03
6.336364E+03	3.595666E-02	2.943567E-03
6.345455E+03	3.582011E-02	2.932492E-03
6.354545E+03	3.567877E-02	2.921072E-03
6.363636E+03	3.553996E-02	2.909908E-03
6.372727E+03	3.539629E-02	2.898395E-03
6.381818E+03	3.525512E-02	2.887133E-03
6.390909E+03	3.510908E-02	2.875520E-03
6.400000E+03	3.496547E-02	2.864154E-03
6.409091E+03	3.481706E-02	2.852440E-03
6.418182E+03	3.467111E-02	2.840974E-03
6.427273E+03	3.452040E-02	2.829165E-03
6.436364E+03	3.437218E-02	2.817606E-03
6.445455E+03	3.421935E-02	2.805714E-03
6.454545E+03	3.406556E-02	2.793787E-03
6.463636E+03	3.391086E-02	2.781832E-03
6.472727E+03	3.375888E-02	2.770143E-03
6.481818E+03	3.360267E-02	2.758152E-03
6.490909E+03	3.344584E-02	2.746154E-03
6.500000E+03	3.328850E-02	2.734157E-03
6.509091E+03	3.313079E-02	2.722173E-03
6.518182E+03	3.297285E-02	2.710212E-03
6.527273E+03	3.281479E-02	2.698284E-03
6.536364E+03	3.265675E-02	2.686400E-03
6.545455E+03	3.249890E-02	2.674573E-03
6.554545E+03	3.234136E-02	2.662813E-03
6.563636E+03	3.218432E-02	2.651135E-03
6.572727E+03	3.202790E-02	2.639550E-03
6.581818E+03	3.187227E-02	2.628070E-03
6.590909E+03	3.171759E-02	2.616709E-03
6.600000E+03	3.156072E-02	2.605208E-03
6.609091E+03	3.140842E-02	2.594124E-03
6.618182E+03	3.125753E-02	2.583196E-03
6.627273E+03	3.110492E-02	2.572166E-03
6.636364E+03	3.095730E-02	2.561588E-03
6.645455E+03	3.081149E-02	2.551200E-03
6.654545E+03	3.066446E-02	2.540749E-03
6.663636E+03	3.052273E-02	2.530777E-03
6.672727E+03	3.038004E-02	2.520765E-03
6.681818E+03	3.024287E-02	2.511250E-03
6.690909E+03	3.010497E-02	2.501714E-03
6.700000E+03	2.996963E-02	2.492430E-03
6.709091E+03	2.984010E-02	2.483669E-03
6.718182E+03	2.971014E-02	2.474911E-03
6.727273E+03	2.958302E-02	2.466429E-03
6.736364E+03	2.945876E-02	2.458225E-03
6.745455E+03	2.933744E-02	2.450308E-03
6.754545E+03	2.921916E-02	2.442683E-03
6.763636E+03	2.910698E-02	2.435610E-03
6.772727E+03	2.899481E-02	2.428579E-03
6.781818E+03	2.888576E-02	2.421850E-03
6.790909E+03	2.877683E-02	2.415172E-03
6.800000E+03	2.867412E-02	2.409058E-03
6.809091E+03	2.857461E-02	2.403255E-03
6.818182E+03	2.847830E-02	2.397764E-03
6.827273E+03	2.838517E-02	2.392584E-03
6.836364E+03	2.829522E-02	2.387715E-03
6.845455E+03	2.820546E-02	2.382901E-03
6.854545E+03	2.812182E-02	2.378647E-03
6.863636E+03	2.803832E-02	2.374444E-03
6.872727E+03	2.796086E-02	2.370790E-03
6.881818E+03	2.788336E-02	2.367173E-03
6.890909E+03	2.781167E-02	2.364085E-03
6.900000E+03	2.773977E-02	2.361017E-03
6.909091E+03	2.767344E-02	2.358459E-03
6.918182E+03	2.760667E-02	2.355899E-03
6.927273E+03	2.754231E-02	2.353578E-03
6.936364E+03	2.748318E-02	2.351740E-03
6.945455E+03	2.742326E-02	2.349867E-03
6.954545E+03	2.736540E-02	2.348202E-03
6.963636E+03	2.730946E-02	2.346735E-03
6.972727E+03	2.725535E-02	2.345456E-03
6.981818E+03	2.720296E-02	2.344355E-03
6.990909E+03	2.715217E-02	2.343422E-03
7.000000E+03	2.710288E-02	2.342647E-03
7.009091E+03	2.705498E-02	2.342021E-03
7.018182E+03	2.700544E-02	2.341281E-03
7.027273E+03	2.696003E-02	2.340925E-03
7.036364E+03	2.691569E-02	2.340689E-03
7.045455E+03	2.686947E-02	2.340314E-03
7.054545E+03	2.682706E-02	2.340295E-03
