#wls	flux	fluxerr
1.454545E+03	4.023880E-03	2.656300E-04
1.490909E+03	4.088241E-03	2.698031E-04
1.527273E+03	4.154788E-03	2.741160E-04
1.563636E+03	4.223614E-03	2.785745E-04
1.600000E+03	4.294816E-03	2.831846E-04
1.636364E+03	4.369265E-03	2.880035E-04
1.672727E+03	4.447107E-03	2.930405E-04
1.709091E+03	4.526912E-03	2.982009E-04
1.745455E+03	4.610375E-03	3.035960E-04
1.781818E+03	4.697663E-03	3.092363E-04
1.818182E+03	4.788124E-03	3.150785E-04
1.854545E+03	4.881906E-03	3.211319E-04
1.890909E+03	4.980022E-03	3.274624E-04
1.927273E+03	5.081806E-03	3.340259E-04
1.963636E+03	5.187431E-03	3.408331E-04
2.000000E+03	5.298901E-03	3.480151E-04
2.036364E+03	5.413729E-03	3.554077E-04
2.072727E+03	5.533962E-03	3.631448E-04
2.109091E+03	5.658907E-03	3.711800E-04
2.145455E+03	5.789782E-03	3.795925E-04
2.181818E+03	5.926896E-03	3.884015E-04
2.218182E+03	6.069544E-03	3.975599E-04
2.254545E+03	6.218009E-03	4.070853E-04
2.290909E+03	6.373655E-03	4.170660E-04
2.327273E+03	6.535772E-03	4.274543E-04
2.363636E+03	6.705813E-03	4.383441E-04
2.400000E+03	6.884212E-03	4.497623E-04
2.436364E+03	7.069074E-03	4.615837E-04
2.472727E+03	7.264328E-03	4.740635E-04
2.509091E+03	7.468104E-03	4.870779E-04
2.545455E+03	7.680854E-03	5.006546E-04
2.581818E+03	7.904357E-03	5.149078E-04
2.618182E+03	8.139216E-03	5.298749E-04
2.654545E+03	8.384712E-03	5.455066E-04
2.690909E+03	8.641417E-03	5.618381E-04
2.727273E+03	8.911378E-03	5.790000E-04
2.736364E+03	8.981163E-03	5.834345E-04
2.745455E+03	9.051746E-03	5.879186E-04
2.754545E+03	9.123139E-03	5.924532E-04
2.763636E+03	9.195352E-03	5.970388E-04
2.772727E+03	9.268397E-03	6.016762E-04
2.781818E+03	9.342281E-03	6.063659E-04
2.790909E+03	9.417020E-03	6.111087E-04
2.800000E+03	9.492622E-03	6.159051E-04
2.809091E+03	9.569101E-03	6.207561E-04
2.818182E+03	9.646467E-03	6.256622E-04
2.827273E+03	9.724732E-03	6.306241E-04
2.836364E+03	9.803908E-03	6.356427E-04
2.845455E+03	9.885586E-03	6.408208E-04
2.854545E+03	9.966631E-03	6.459553E-04
2.863636E+03	1.004862E-02	6.511487E-04
2.872727E+03	1.013158E-02	6.564016E-04
2.881818E+03	1.021713E-02	6.618200E-04
2.890909E+03	1.030205E-02	6.671951E-04
2.900000E+03	1.038797E-02	6.726319E-04
2.909091E+03	1.047656E-02	6.782390E-04
2.918182E+03	1.056453E-02	6.838028E-04
2.927273E+03	1.065522E-02	6.895399E-04
2.936364E+03	1.074530E-02	6.952339E-04
2.945455E+03	1.083643E-02	7.009936E-04
2.954545E+03	1.093037E-02	7.069318E-04
2.963636E+03	1.102543E-02	7.129391E-04
2.972727E+03	1.111988E-02	7.189032E-04
2.981818E+03	1.121720E-02	7.250508E-04
2.990909E+03	1.131392E-02	7.311552E-04
3.000000E+03	1.141357E-02	7.374464E-04
3.009091E+03	1.151442E-02	7.438113E-04
3.018182E+03	1.161465E-02	7.501332E-04
3.027273E+03	1.171792E-02	7.566470E-04
3.036364E+03	1.182242E-02	7.632374E-04
3.045455E+03	1.192818E-02	7.699050E-04
3.054545E+03	1.203332E-02	7.765297E-04
3.063636E+03	1.214162E-02	7.833538E-04
3.072727E+03	1.225122E-02	7.902580E-04
3.081818E+03	1.236213E-02	7.972433E-04
3.090909E+03	1.247438E-02	8.043106E-04
3.100000E+03	1.258798E-02	8.114608E-04
3.109091E+03	1.270294E-02	8.186950E-04
3.118182E+03	1.281730E-02	8.258861E-04
3.127273E+03	1.293502E-02	8.332901E-04
3.136364E+03	1.305416E-02	8.407809E-04
3.145455E+03	1.317473E-02	8.483595E-04
3.154545E+03	1.329675E-02	8.560269E-04
3.163636E+03	1.342024E-02	8.637840E-04
3.172727E+03	1.354728E-02	8.717660E-04
3.181818E+03	1.367376E-02	8.797066E-04
3.190909E+03	1.380175E-02	8.877399E-04
3.200000E+03	1.393127E-02	8.958668E-04
3.209091E+03	1.406234E-02	9.040884E-04
3.218182E+03	1.419497E-02	9.124054E-04
3.227273E+03	1.432918E-02	9.208189E-04
3.236364E+03	1.446499E-02	9.293300E-04
3.245455E+03	1.460463E-02	9.380824E-04
3.254545E+03	1.474369E-02	9.467922E-04
3.263636E+03	1.488440E-02	9.556021E-04
3.272727E+03	1.502677E-02	9.645132E-04
3.281818E+03	1.517081E-02	9.735262E-04
3.290909E+03	1.531886E-02	9.827910E-04
3.300000E+03	1.546631E-02	9.920117E-04
3.309091E+03	1.561548E-02	1.001337E-03
3.318182E+03	1.576877E-02	1.010920E-03
3.327273E+03	1.592144E-02	1.020458E-03
3.336364E+03	1.607588E-02	1.030102E-03
3.345455E+03	1.623453E-02	1.040011E-03
3.354545E+03	1.639254E-02	1.049872E-03
3.363636E+03	1.655235E-02	1.059842E-03
3.372727E+03	1.671648E-02	1.070083E-03
3.381818E+03	1.687994E-02	1.080274E-03
3.390909E+03	1.704523E-02	1.090575E-03
3.400000E+03	1.721494E-02	1.101152E-03
3.409091E+03	1.738395E-02	1.111678E-03
3.418182E+03	1.755743E-02	1.122482E-03
3.427273E+03	1.773018E-02	1.133233E-03
3.436364E+03	1.790479E-02	1.144096E-03
3.445455E+03	1.808397E-02	1.155243E-03
3.454545E+03	1.826237E-02	1.166333E-03
3.463636E+03	1.844539E-02	1.177711E-03
3.472727E+03	1.862758E-02	1.189027E-03
3.481818E+03	1.881165E-02	1.200457E-03
3.490909E+03	1.900042E-02	1.212179E-03
3.500000E+03	1.918829E-02	1.223835E-03
3.509091E+03	1.938091E-02	1.235785E-03
3.518182E+03	1.957256E-02	1.247667E-03
3.527273E+03	1.976901E-02	1.259845E-03
3.536364E+03	1.996443E-02	1.271950E-03
3.545455E+03	2.016171E-02	1.284164E-03
3.554545E+03	2.036382E-02	1.296678E-03
3.563636E+03	2.056480E-02	1.309111E-03
3.572727E+03	2.077064E-02	1.321845E-03
3.581818E+03	2.097528E-02	1.334493E-03
3.590909E+03	2.118481E-02	1.347444E-03
3.600000E+03	2.139304E-02	1.360302E-03
3.609091E+03	2.160301E-02	1.373262E-03
3.618182E+03	2.181788E-02	1.386524E-03
3.627273E+03	2.203131E-02	1.399685E-03
3.636364E+03	2.224966E-02	1.413148E-03
3.645455E+03	2.246642E-02	1.426501E-03
3.654545E+03	2.268480E-02	1.439948E-03
3.663636E+03	2.290811E-02	1.453697E-03
3.672727E+03	2.312966E-02	1.467324E-03
3.681818E+03	2.335271E-02	1.481036E-03
3.690909E+03	2.358066E-02	1.495049E-03
3.700000E+03	2.380664E-02	1.508927E-03
3.709091E+03	2.403400E-02	1.522882E-03
3.718182E+03	2.426621E-02	1.537133E-03
3.727273E+03	2.449625E-02	1.551236E-03
3.736364E+03	2.472753E-02	1.565407E-03
3.745455E+03	2.496359E-02	1.579870E-03
3.754545E+03	2.519723E-02	1.594168E-03
3.763636E+03	2.543196E-02	1.608524E-03
3.772727E+03	2.566769E-02	1.622933E-03
3.781818E+03	2.590442E-02	1.637393E-03
3.790909E+03	2.614577E-02	1.652134E-03
3.800000E+03	2.638428E-02	1.666684E-03
3.809091E+03	2.662355E-02	1.681271E-03
3.818182E+03	2.686354E-02	1.695892E-03
3.827273E+03	2.710418E-02	1.710542E-03
3.836364E+03	2.734540E-02	1.725217E-03
3.845455E+03	2.759106E-02	1.740160E-03
3.854545E+03	2.783324E-02	1.754872E-03
3.863636E+03	2.807582E-02	1.769597E-03
3.872727E+03	2.831869E-02	1.784328E-03
3.881818E+03	2.856179E-02	1.799062E-03
3.890909E+03	2.880502E-02	1.813792E-03
3.900000E+03	2.904835E-02	1.828516E-03
3.909091E+03	2.929166E-02	1.843227E-03
3.918182E+03	2.953491E-02	1.857921E-03
3.927273E+03	2.977381E-02	1.872330E-03
3.936364E+03	3.001666E-02	1.886975E-03
3.945455E+03	3.025919E-02	1.901587E-03
3.954545E+03	3.050134E-02	1.916164E-03
3.963636E+03	3.074305E-02	1.930699E-03
3.972727E+03	3.098422E-02	1.945189E-03
3.981818E+03	3.122043E-02	1.959355E-03
3.990909E+03	3.146028E-02	1.973738E-03
4.000000E+03	3.169939E-02	1.988061E-03
4.009091E+03	3.193319E-02	2.002039E-03
4.018182E+03	3.217052E-02	2.016225E-03
4.027273E+03	3.240686E-02	2.030338E-03
4.036364E+03	3.263762E-02	2.044088E-03
4.045455E+03	3.287174E-02	2.058036E-03
4.054545E+03	3.310008E-02	2.071610E-03
4.063636E+03	3.333169E-02	2.085376E-03
4.072727E+03	3.355731E-02	2.098756E-03
4.081818E+03	3.378612E-02	2.112322E-03
4.090909E+03	3.400872E-02	2.125488E-03
4.100000E+03	3.422969E-02	2.138541E-03
4.109091E+03	3.445373E-02	2.151772E-03
4.118182E+03	3.467124E-02	2.164585E-03
4.127273E+03	3.488692E-02	2.177270E-03
4.136364E+03	3.510068E-02	2.189824E-03
4.145455E+03	3.531728E-02	2.202543E-03
4.154545E+03	3.552699E-02	2.214821E-03
4.163636E+03	3.573455E-02	2.226953E-03
4.172727E+03	3.593988E-02	2.238935E-03
4.181818E+03	3.614290E-02	2.250761E-03
4.190909E+03	3.634357E-02	2.262429E-03
4.200000E+03	3.654175E-02	2.273931E-03
4.209091E+03	3.673742E-02	2.285265E-03
4.218182E+03	3.693045E-02	2.296425E-03
4.227273E+03	3.712079E-02	2.307406E-03
4.236364E+03	3.730325E-02	2.317886E-03
4.245455E+03	3.748792E-02	2.328493E-03
4.254545E+03	3.766965E-02	2.338907E-03
4.263636E+03	3.784834E-02	2.349121E-03
4.272727E+03	3.801875E-02	2.358811E-03
4.281818E+03	3.819109E-02	2.368611E-03
4.290909E+03	3.835493E-02	2.377874E-03
4.300000E+03	3.852059E-02	2.387240E-03
4.309091E+03	3.867753E-02	2.396056E-03
4.318182E+03	3.883616E-02	2.404967E-03
4.327273E+03	3.898586E-02	2.413316E-03
4.336364E+03	3.913712E-02	2.421752E-03
4.345455E+03	3.927923E-02	2.429613E-03
4.354545E+03	3.941742E-02	2.437223E-03
4.363636E+03	3.955695E-02	2.444908E-03
4.372727E+03	3.968707E-02	2.452002E-03
4.381818E+03	3.981301E-02	2.458831E-03
4.390909E+03	3.993471E-02	2.465390E-03
4.400000E+03	4.005210E-02	2.471674E-03
4.409091E+03	4.016510E-02	2.477682E-03
4.418182E+03	4.027365E-02	2.483407E-03
4.427273E+03	4.037769E-02	2.488847E-03
4.436364E+03	4.047714E-02	2.493998E-03
4.445455E+03	4.057197E-02	2.498858E-03
4.454545E+03	4.066210E-02	2.503423E-03
4.463636E+03	4.074203E-02	2.507354E-03
4.472727E+03	4.082265E-02	2.511321E-03
4.481818E+03	4.089846E-02	2.514988E-03
4.490909E+03	4.096395E-02	2.518015E-03
4.500000E+03	4.103005E-02	2.521075E-03
4.509091E+03	4.108582E-02	2.523496E-03
4.518182E+03	4.114218E-02	2.525949E-03
4.527273E+03	4.118819E-02	2.527763E-03
4.536364E+03	4.123485E-02	2.529613E-03
4.545455E+03	4.127117E-02	2.530826E-03
4.554545E+03	4.130270E-02	2.531741E-03
4.563636E+03	4.133499E-02	2.532701E-03
4.572727E+03	4.135708E-02	2.533034E-03
4.581818E+03	4.137455E-02	2.533080E-03
4.590909E+03	4.138746E-02	2.532847E-03
4.600000E+03	4.139593E-02	2.532340E-03
4.609091E+03	4.140001E-02	2.531563E-03
4.618182E+03	4.139984E-02	2.530525E-03
4.627273E+03	4.139551E-02	2.529232E-03
4.636364E+03	4.138716E-02	2.527693E-03
4.645455E+03	4.137492E-02	2.525917E-03
4.654545E+03	4.135894E-02	2.523911E-03
4.663636E+03	4.133388E-02	2.521352E-03
4.672727E+03	4.131085E-02	2.518918E-03
4.681818E+03	4.128457E-02	2.516285E-03
4.690909E+03	4.124970E-02	2.513130E-03
4.700000E+03	4.121738E-02	2.510132E-03
4.709091E+03	4.118232E-02	2.506968E-03
4.718182E+03	4.113928E-02	2.503320E-03
4.727273E+03	4.109387E-02	2.499530E-03
4.736364E+03	4.105174E-02	2.495941E-03
4.745455E+03	4.100224E-02	2.491905E-03
4.754545E+03	4.095098E-02	2.487765E-03
4.763636E+03	4.090355E-02	2.483860E-03
4.772727E+03	4.084938E-02	2.479549E-03
4.781818E+03	4.079406E-02	2.475170E-03
4.790909E+03	4.073781E-02	2.470738E-03
4.800000E+03	4.068080E-02	2.466263E-03
4.809091E+03	4.062326E-02	2.461758E-03
4.818182E+03	4.056535E-02	2.457234E-03
4.827273E+03	4.050730E-02	2.452705E-03
4.836364E+03	4.044924E-02	2.448178E-03
4.845455E+03	4.039140E-02	2.443668E-03
4.854545E+03	4.032865E-02	2.438865E-03
4.863636E+03	4.027174E-02	2.434418E-03
4.872727E+03	4.021557E-02	2.430019E-03
4.881818E+03	4.016025E-02	2.425676E-03
4.890909E+03	4.010068E-02	2.421079E-03
4.900000E+03	4.004756E-02	2.416875E-03
4.909091E+03	3.999048E-02	2.412436E-03
4.918182E+03	3.994005E-02	2.408401E-03
4.927273E+03	3.988594E-02	2.404148E-03
4.936364E+03	3.983348E-02	2.399999E-03
4.945455E+03	3.978799E-02	2.396272E-03
4.954545E+03	3.973912E-02	2.392346E-03
4.963636E+03	3.969215E-02	2.388539E-03
4.972727E+03	3.965235E-02	2.385166E-03
4.981818E+03	3.960942E-02	2.381608E-03
4.990909E+03	3.956857E-02	2.378178E-03
5.000000E+03	3.952984E-02	2.374881E-03
5.009091E+03	3.949328E-02	2.371716E-03
5.018182E+03	3.945890E-02	2.368687E-03
5.027273E+03	3.942671E-02	2.365792E-03
5.036364E+03	3.939670E-02	2.363031E-03
5.045455E+03	3.936887E-02	2.360405E-03
5.054545E+03	3.933809E-02	2.357605E-03
5.063636E+03	3.931457E-02	2.355245E-03
5.072727E+03	3.929316E-02	2.353013E-03
5.081818E+03	3.927381E-02	2.350909E-03
5.090909E+03	3.925135E-02	2.348622E-03
5.100000E+03	3.923599E-02	2.346763E-03
5.109091E+03	3.921738E-02	2.344713E-03
5.118182E+03	3.920572E-02	2.343082E-03
5.127273E+03	3.919070E-02	2.341254E-03
5.136364E+03	3.918242E-02	2.339832E-03
5.145455E+03	3.917060E-02	2.338202E-03
5.154545E+03	3.916537E-02	2.336968E-03
5.163636E+03	3.915639E-02	2.335515E-03
5.172727E+03	3.914867E-02	2.334141E-03
5.181818E+03	3.914211E-02	2.332839E-03
5.190909E+03	3.914169E-02	2.331907E-03
5.200000E+03	3.913709E-02	2.330730E-03
5.209091E+03	3.913329E-02	2.329604E-03
5.218182E+03	3.913018E-02	2.328524E-03
5.227273E+03	3.912764E-02	2.327481E-03
5.236364E+03	3.912551E-02	2.326467E-03
5.245455E+03	3.912370E-02	2.325477E-03
5.254545E+03	3.912208E-02	2.324502E-03
5.263636E+03	3.912050E-02	2.323533E-03
5.272727E+03	3.911888E-02	2.322567E-03
5.281818E+03	3.911705E-02	2.321594E-03
5.290909E+03	3.910984E-02	2.320305E-03
5.300000E+03	3.910728E-02	2.319298E-03
5.309091E+03	3.910418E-02	2.318263E-03
5.318182E+03	3.909533E-02	2.316893E-03
5.327273E+03	3.909081E-02	2.315786E-03
5.336364E+03	3.908539E-02	2.314630E-03
5.345455E+03	3.907394E-02	2.313123E-03
5.354545E+03	3.906649E-02	2.311859E-03
5.363636E+03	3.905279E-02	2.310231E-03
5.372727E+03	3.904292E-02	2.308836E-03
5.381818E+03	3.902664E-02	2.307068E-03
5.390909E+03	3.901401E-02	2.305523E-03
5.400000E+03	3.899486E-02	2.303599E-03
5.409091E+03	3.897415E-02	2.301590E-03
5.418182E+03	3.895690E-02	2.299793E-03
5.427273E+03	3.893296E-02	2.297608E-03
5.436364E+03	3.890733E-02	2.295330E-03
5.445455E+03	3.887999E-02	2.292960E-03
5.454545E+03	3.885592E-02	2.290791E-03
5.463636E+03	3.882506E-02	2.288230E-03
5.472727E+03	3.879239E-02	2.285570E-03
5.481818E+03	3.875796E-02	2.282814E-03
5.490909E+03	3.872171E-02	2.279961E-03
5.500000E+03	3.868367E-02	2.277011E-03
5.509091E+03	3.864388E-02	2.273967E-03
5.518182E+03	3.860233E-02	2.270829E-03
5.527273E+03	3.855904E-02	2.267598E-03
5.536364E+03	3.851406E-02	2.264277E-03
5.545455E+03	3.846743E-02	2.260870E-03
5.554545E+03	3.841919E-02	2.257377E-03
5.563636E+03	3.836439E-02	2.253509E-03
5.572727E+03	3.831307E-02	2.249856E-03
5.581818E+03	3.826030E-02	2.246128E-03
5.590909E+03	3.820612E-02	2.242328E-03
5.600000E+03	3.814567E-02	2.238171E-03
5.609091E+03	3.808891E-02	2.234241E-03
5.618182E+03	3.803095E-02	2.230253E-03
5.627273E+03	3.796695E-02	2.225921E-03
5.636364E+03	3.790682E-02	2.221827E-03
5.645455E+03	3.784570E-02	2.217687E-03
5.654545E+03	3.777876E-02	2.213217E-03
5.663636E+03	3.771588E-02	2.208996E-03
5.672727E+03	3.764729E-02	2.204452E-03
5.681818E+03	3.758289E-02	2.200164E-03
5.690909E+03	3.751291E-02	2.195561E-03
5.700000E+03	3.744234E-02	2.190934E-03
5.709091E+03	3.737604E-02	2.186568E-03
5.718182E+03	3.730437E-02	2.181900E-03
5.727273E+03	3.723708E-02	2.177497E-03
5.736364E+03	3.716451E-02	2.172797E-03
5.745455E+03	3.709159E-02	2.168088E-03
5.754545E+03	3.701835E-02	2.163370E-03
5.763636E+03	3.694962E-02	2.158926E-03
5.772727E+03	3.687585E-02	2.154199E-03
5.781818E+03	3.680190E-02	2.149471E-03
5.790909E+03	3.672779E-02	2.144744E-03
5.800000E+03	3.665358E-02	2.140022E-03
5.809091E+03	3.658404E-02	2.135582E-03
5.818182E+03	3.650970E-02	2.130873E-03
5.827273E+03	3.643534E-02	2.126173E-03
5.836364E+03	3.636103E-02	2.121485E-03
5.845455E+03	3.628677E-02	2.116811E-03
5.854545E+03	3.621260E-02	2.112151E-03
5.863636E+03	3.613857E-02	2.107509E-03
5.872727E+03	3.606466E-02	2.102884E-03
5.881818E+03	3.599089E-02	2.098277E-03
5.890909E+03	3.591735E-02	2.093692E-03
5.900000E+03	3.584397E-02	2.089126E-03
5.909091E+03	3.576619E-02	2.084313E-03
5.918182E+03	3.569328E-02	2.079793E-03
5.927273E+03	3.562064E-02	2.075297E-03
5.936364E+03	3.554825E-02	2.070825E-03
5.945455E+03	3.547612E-02	2.066377E-03
5.954545E+03	3.539965E-02	2.061685E-03
5.963636E+03	3.532808E-02	2.057287E-03
5.972727E+03	3.525678E-02	2.052913E-03
5.981818E+03	3.518575E-02	2.048563E-03
5.990909E+03	3.511043E-02	2.043973E-03
6.000000E+03	3.503996E-02	2.039673E-03
6.009091E+03	3.496976E-02	2.035396E-03
6.018182E+03	3.489524E-02	2.030877E-03
6.027273E+03	3.482557E-02	2.026648E-03
6.036364E+03	3.475610E-02	2.022438E-03
6.045455E+03	3.468235E-02	2.017987E-03
6.054545E+03	3.461335E-02	2.013821E-03
6.063636E+03	3.454002E-02	2.009411E-03
6.072727E+03	3.447139E-02	2.005282E-03
6.081818E+03	3.439843E-02	2.000909E-03
6.090909E+03	3.433011E-02	1.996813E-03
6.100000E+03	3.425745E-02	1.992472E-03
6.109091E+03	3.418937E-02	1.988405E-03
6.118182E+03	3.411692E-02	1.984092E-03
6.127273E+03	3.404453E-02	1.979789E-03
6.136364E+03	3.397666E-02	1.975757E-03
6.145455E+03	3.390434E-02	1.971473E-03
6.154545E+03	3.383648E-02	1.967455E-03
6.163636E+03	3.376417E-02	1.963186E-03
6.172727E+03	3.369182E-02	1.958922E-03
6.181818E+03	3.362379E-02	1.954917E-03
6.190909E+03	3.355127E-02	1.950657E-03
6.200000E+03	3.347865E-02	1.946398E-03
6.209091E+03	3.340591E-02	1.942139E-03
6.218182E+03	3.333736E-02	1.938131E-03
6.227273E+03	3.326427E-02	1.933866E-03
6.236364E+03	3.319099E-02	1.929596E-03
6.245455E+03	3.311747E-02	1.925320E-03
6.254545E+03	3.304373E-02	1.921036E-03
6.263636E+03	3.296973E-02	1.916745E-03
6.272727E+03	3.289545E-02	1.912445E-03
6.281818E+03	3.282521E-02	1.908385E-03
6.290909E+03	3.275034E-02	1.904063E-03
6.300000E+03	3.267515E-02	1.899729E-03
6.309091E+03	3.259964E-02	1.895383E-03
6.318182E+03	3.252380E-02	1.891024E-03
6.327273E+03	3.244759E-02	1.886650E-03
6.336364E+03	3.237103E-02	1.882262E-03
6.345455E+03	3.229413E-02	1.877860E-03
6.354545E+03	3.221685E-02	1.873443E-03
6.363636E+03	3.213922E-02	1.869012E-03
6.372727E+03	3.206121E-02	1.864565E-03
6.381818E+03	3.197863E-02	1.859859E-03
6.390909E+03	3.189994E-02	1.855384E-03
6.400000E+03	3.182088E-02	1.850895E-03
6.409091E+03	3.174148E-02	1.846392E-03
6.418182E+03	3.166176E-02	1.841876E-03
6.427273E+03	3.158171E-02	1.837348E-03
6.436364E+03	3.149721E-02	1.832566E-03
6.445455E+03	3.141659E-02	1.828017E-03
6.454545E+03	3.133570E-02	1.823457E-03
6.463636E+03	3.125456E-02	1.818890E-03
6.472727E+03	3.116910E-02	1.814076E-03
6.481818E+03	3.108756E-02	1.809497E-03
6.490909E+03	3.100586E-02	1.804914E-03
6.500000E+03	3.091991E-02	1.800090E-03
6.509091E+03	3.083797E-02	1.795505E-03
6.518182E+03	3.075593E-02	1.790920E-03
6.527273E+03	3.066980E-02	1.786103E-03
6.536364E+03	3.058770E-02	1.781526E-03
6.545455E+03	3.050161E-02	1.776723E-03
6.554545E+03	3.041963E-02	1.772165E-03
6.563636E+03	3.033372E-02	1.767383E-03
6.572727E+03	3.025198E-02	1.762851E-03
6.581818E+03	3.016641E-02	1.758101E-03
6.590909E+03	3.008509E-02	1.753604E-03
6.600000E+03	3.000004E-02	1.748896E-03
6.609091E+03	2.991930E-02	1.744444E-03
6.618182E+03	2.983495E-02	1.739788E-03
6.627273E+03	2.975495E-02	1.735391E-03
6.636364E+03	2.967146E-02	1.730796E-03
6.645455E+03	2.958847E-02	1.726236E-03
6.654545E+03	2.950994E-02	1.721943E-03
6.663636E+03	2.942809E-02	1.717460E-03
6.672727E+03	2.934686E-02	1.713020E-03
6.681818E+03	2.927021E-02	1.708853E-03
6.690909E+03	2.919039E-02	1.704506E-03
6.700000E+03	2.911134E-02	1.700209E-03
6.709091E+03	2.903310E-02	1.695966E-03
6.718182E+03	2.895956E-02	1.692004E-03
6.727273E+03	2.888305E-02	1.687873E-03
6.736364E+03	2.880748E-02	1.683803E-03
6.745455E+03	2.873291E-02	1.679797E-03
6.754545E+03	2.865934E-02	1.675855E-03
6.763636E+03	2.858682E-02	1.671980E-03
6.772727E+03	2.851538E-02	1.668175E-03
6.781818E+03	2.844507E-02	1.664441E-03
6.790909E+03	2.837591E-02	1.660781E-03
6.800000E+03	2.830794E-02	1.657195E-03
6.809091E+03	2.824117E-02	1.653686E-03
6.818182E+03	2.817565E-02	1.650256E-03
6.827273E+03	2.811137E-02	1.646905E-03
6.836364E+03	2.804835E-02	1.643633E-03
6.845455E+03	2.798665E-02	1.640445E-03
6.854545E+03	2.792621E-02	1.637336E-03
6.863636E+03	2.786705E-02	1.634308E-03
6.872727E+03	2.780917E-02	1.631361E-03
6.881818E+03	2.775251E-02	1.628490E-03
6.890909E+03	2.769709E-02	1.625698E-03
6.900000E+03	2.763911E-02	1.622761E-03
6.909091E+03	2.758599E-02	1.620114E-03
6.918182E+03	2.753397E-02	1.617536E-03
6.927273E+03	2.748297E-02	1.615023E-03
6.936364E+03	2.742927E-02	1.612356E-03
6.945455E+03	2.738021E-02	1.609968E-03
6.954545E+03	2.733204E-02	1.607635E-03
6.963636E+03	2.728101E-02	1.605138E-03
6.972727E+03	2.723444E-02	1.602909E-03
6.981818E+03	2.718493E-02	1.600511E-03
6.990909E+03	2.713977E-02	1.598372E-03
7.000000E+03	2.709524E-02	1.596274E-03
7.009091E+03	2.704760E-02	1.593998E-03
7.018182E+03	2.700411E-02	1.591969E-03
7.027273E+03	2.695746E-02	1.589758E-03
7.036364E+03	2.691485E-02	1.587789E-03
7.045455E+03	2.686897E-02	1.585630E-03
7.054545E+03	2.682338E-02	1.583492E-03
