#wls	flux	fluxerr
1.454545E+03	3.936752E-03	1.224105E-04
1.490909E+03	4.002917E-03	1.244551E-04
1.527273E+03	4.071482E-03	1.265735E-04
1.563636E+03	4.142557E-03	1.287691E-04
1.600000E+03	4.217001E-03	1.310686E-04
1.636364E+03	4.293454E-03	1.334295E-04
1.672727E+03	4.373549E-03	1.359027E-04
1.709091E+03	4.456673E-03	1.384689E-04
1.745455E+03	4.543771E-03	1.411575E-04
1.781818E+03	4.633403E-03	1.439235E-04
1.818182E+03	4.727346E-03	1.468223E-04
1.854545E+03	4.824966E-03	1.498340E-04
1.890909E+03	4.926443E-03	1.529640E-04
1.927273E+03	5.032841E-03	1.562453E-04
1.963636E+03	5.142615E-03	1.596299E-04
2.000000E+03	5.257757E-03	1.631794E-04
2.036364E+03	5.377605E-03	1.668732E-04
2.072727E+03	5.503356E-03	1.707483E-04
2.109091E+03	5.633358E-03	1.747534E-04
2.145455E+03	5.769812E-03	1.789565E-04
2.181818E+03	5.913068E-03	1.833683E-04
2.218182E+03	6.061389E-03	1.879347E-04
2.254545E+03	6.217166E-03	1.927299E-04
2.290909E+03	6.379703E-03	1.977319E-04
2.327273E+03	6.549349E-03	2.029514E-04
2.363636E+03	6.726471E-03	2.083995E-04
2.400000E+03	6.912647E-03	2.141249E-04
2.436364E+03	7.107163E-03	2.201052E-04
2.472727E+03	7.310450E-03	2.263535E-04
2.509091E+03	7.522970E-03	2.328838E-04
2.545455E+03	7.746526E-03	2.397515E-04
2.581818E+03	7.980375E-03	2.469335E-04
2.618182E+03	8.225058E-03	2.544460E-04
2.654545E+03	8.482578E-03	2.623505E-04
2.690909E+03	8.750687E-03	2.705773E-04
2.727273E+03	9.032928E-03	2.792354E-04
2.736364E+03	9.105164E-03	2.814508E-04
2.745455E+03	9.179785E-03	2.837395E-04
2.754545E+03	9.253721E-03	2.860067E-04
2.763636E+03	9.328515E-03	2.883000E-04
2.772727E+03	9.405760E-03	2.906686E-04
2.781818E+03	9.482318E-03	2.930156E-04
2.790909E+03	9.559769E-03	2.953898E-04
2.800000E+03	9.639739E-03	2.978413E-04
2.809091E+03	9.719018E-03	3.002712E-04
2.818182E+03	9.799224E-03	3.027292E-04
2.827273E+03	9.882022E-03	3.052668E-04
2.836364E+03	9.964123E-03	3.077825E-04
2.845455E+03	1.004718E-02	3.103274E-04
2.854545E+03	1.013291E-02	3.129541E-04
2.863636E+03	1.021794E-02	3.155588E-04
2.872727E+03	1.030569E-02	3.182469E-04
2.881818E+03	1.039273E-02	3.209129E-04
2.890909E+03	1.048254E-02	3.236638E-04
2.900000E+03	1.057164E-02	3.263924E-04
2.909091E+03	1.066357E-02	3.292076E-04
2.918182E+03	1.075479E-02	3.320003E-04
2.927273E+03	1.084888E-02	3.348813E-04
2.936364E+03	1.094225E-02	3.377397E-04
2.945455E+03	1.103856E-02	3.406880E-04
2.954545E+03	1.113414E-02	3.436134E-04
2.963636E+03	1.123271E-02	3.466304E-04
2.972727E+03	1.133056E-02	3.496246E-04
2.981818E+03	1.143144E-02	3.527119E-04
2.990909E+03	1.153351E-02	3.558353E-04
3.000000E+03	1.163485E-02	3.589354E-04
3.009091E+03	1.173932E-02	3.621314E-04
3.018182E+03	1.184305E-02	3.653040E-04
3.027273E+03	1.194996E-02	3.685741E-04
3.036364E+03	1.205812E-02	3.718822E-04
3.045455E+03	1.216553E-02	3.751666E-04
3.054545E+03	1.227621E-02	3.785512E-04
3.063636E+03	1.238819E-02	3.819748E-04
3.072727E+03	1.249940E-02	3.853745E-04
3.081818E+03	1.261398E-02	3.888770E-04
3.090909E+03	1.272988E-02	3.924198E-04
3.100000E+03	1.284713E-02	3.960033E-04
3.109091E+03	1.296360E-02	3.995621E-04
3.118182E+03	1.308355E-02	4.032274E-04
3.127273E+03	1.320488E-02	4.069346E-04
3.136364E+03	1.332541E-02	4.106165E-04
3.145455E+03	1.344952E-02	4.144078E-04
3.154545E+03	1.357505E-02	4.182420E-04
3.163636E+03	1.370201E-02	4.221196E-04
3.172727E+03	1.382815E-02	4.259708E-04
3.181818E+03	1.395799E-02	4.299354E-04
3.190909E+03	1.408929E-02	4.339443E-04
3.200000E+03	1.422207E-02	4.379978E-04
3.209091E+03	1.435634E-02	4.420963E-04
3.218182E+03	1.448974E-02	4.461673E-04
3.227273E+03	1.462700E-02	4.503563E-04
3.236364E+03	1.476579E-02	4.545912E-04
3.245455E+03	1.490610E-02	4.588723E-04
3.254545E+03	1.504796E-02	4.632001E-04
3.263636E+03	1.518890E-02	4.674985E-04
3.272727E+03	1.533385E-02	4.719196E-04
3.281818E+03	1.548038E-02	4.763880E-04
3.290909E+03	1.562848E-02	4.809041E-04
3.300000E+03	1.577817E-02	4.854680E-04
3.309091E+03	1.592945E-02	4.900801E-04
3.318182E+03	1.607973E-02	4.946602E-04
3.327273E+03	1.623421E-02	4.993684E-04
3.336364E+03	1.639030E-02	5.041252E-04
3.345455E+03	1.654802E-02	5.089310E-04
3.354545E+03	1.670736E-02	5.137856E-04
3.363636E+03	1.686834E-02	5.186894E-04
3.372727E+03	1.703095E-02	5.236425E-04
3.381818E+03	1.719243E-02	5.285595E-04
3.390909E+03	1.735830E-02	5.336105E-04
3.400000E+03	1.752582E-02	5.387109E-04
3.409091E+03	1.769498E-02	5.438607E-04
3.418182E+03	1.786579E-02	5.490601E-04
3.427273E+03	1.803825E-02	5.543089E-04
3.436364E+03	1.821236E-02	5.596071E-04
3.445455E+03	1.838812E-02	5.649547E-04
3.454545E+03	1.856253E-02	5.702598E-04
3.463636E+03	1.874154E-02	5.757048E-04
3.472727E+03	1.892218E-02	5.811989E-04
3.481818E+03	1.910446E-02	5.867416E-04
3.490909E+03	1.928835E-02	5.923330E-04
3.500000E+03	1.947387E-02	5.979726E-04
3.509091E+03	1.966099E-02	6.036603E-04
3.518182E+03	1.984971E-02	6.093958E-04
3.527273E+03	2.003681E-02	6.150802E-04
3.536364E+03	2.022867E-02	6.209091E-04
3.545455E+03	2.042209E-02	6.267847E-04
3.554545E+03	2.061706E-02	6.327064E-04
3.563636E+03	2.081357E-02	6.386737E-04
3.572727E+03	2.101159E-02	6.446863E-04
3.581818E+03	2.121112E-02	6.507434E-04
3.590909E+03	2.140872E-02	6.567399E-04
3.600000E+03	2.161115E-02	6.628831E-04
3.609091E+03	2.181503E-02	6.690693E-04
3.618182E+03	2.202034E-02	6.752979E-04
3.627273E+03	2.222703E-02	6.815670E-04
3.636364E+03	2.243508E-02	6.878765E-04
3.645455E+03	2.264089E-02	6.941157E-04
3.654545E+03	2.285157E-02	7.005026E-04
3.663636E+03	2.306354E-02	7.069273E-04
3.672727E+03	2.327674E-02	7.133883E-04
3.681818E+03	2.349119E-02	7.198857E-04
3.690909E+03	2.370305E-02	7.263023E-04
3.700000E+03	2.391978E-02	7.328664E-04
3.709091E+03	2.413762E-02	7.394629E-04
3.718182E+03	2.435655E-02	7.460911E-04
3.727273E+03	2.457262E-02	7.526299E-04
3.736364E+03	2.479351E-02	7.593148E-04
3.745455E+03	2.501536E-02	7.660274E-04
3.754545E+03	2.523814E-02	7.727663E-04
3.763636E+03	2.545774E-02	7.794066E-04
3.772727E+03	2.568214E-02	7.861916E-04
3.781818E+03	2.590727E-02	7.929976E-04
3.790909E+03	2.613313E-02	7.998240E-04
3.800000E+03	2.635551E-02	8.065419E-04
3.809091E+03	2.658260E-02	8.134025E-04
3.818182E+03	2.681025E-02	8.202781E-04
3.827273E+03	2.703413E-02	8.270367E-04
3.836364E+03	2.726267E-02	8.339358E-04
3.845455E+03	2.749158E-02	8.408447E-04
3.854545E+03	2.771648E-02	8.476288E-04
3.863636E+03	2.794592E-02	8.545500E-04
3.872727E+03	2.817116E-02	8.613412E-04
3.881818E+03	2.840089E-02	8.682675E-04
3.890909E+03	2.863068E-02	8.751937E-04
3.900000E+03	2.885597E-02	8.819807E-04
3.909091E+03	2.908564E-02	8.888995E-04
3.918182E+03	2.931062E-02	8.956731E-04
3.927273E+03	2.953991E-02	9.025766E-04
3.936364E+03	2.976427E-02	9.093277E-04
3.945455E+03	2.999288E-02	9.162067E-04
3.954545E+03	3.021636E-02	9.229268E-04
3.963636E+03	3.044401E-02	9.297727E-04
3.972727E+03	3.066632E-02	9.364533E-04
3.981818E+03	3.089269E-02	9.432564E-04
3.990909E+03	3.111350E-02	9.498876E-04
4.000000E+03	3.133828E-02	9.566380E-04
4.009091E+03	3.155730E-02	9.632107E-04
4.018182E+03	3.178020E-02	9.699000E-04
4.027273E+03	3.199708E-02	9.764037E-04
4.036364E+03	3.221277E-02	9.828694E-04
4.045455E+03	3.243220E-02	9.894471E-04
4.054545E+03	3.264526E-02	9.958288E-04
4.063636E+03	3.285690E-02	1.002165E-03
4.072727E+03	3.307211E-02	1.008609E-03
4.081818E+03	3.328065E-02	1.014847E-03
4.090909E+03	3.348747E-02	1.021031E-03
4.100000E+03	3.369771E-02	1.027318E-03
4.109091E+03	3.390094E-02	1.033388E-03
4.118182E+03	3.410221E-02	1.039398E-03
4.127273E+03	3.430143E-02	1.045343E-03
4.136364E+03	3.449856E-02	1.051223E-03
4.145455E+03	3.469881E-02	1.057196E-03
4.154545E+03	3.489147E-02	1.062936E-03
4.163636E+03	3.508175E-02	1.068602E-03
4.172727E+03	3.526957E-02	1.074191E-03
4.181818E+03	3.545486E-02	1.079701E-03
4.190909E+03	3.563753E-02	1.085130E-03
4.200000E+03	3.581747E-02	1.090475E-03
4.209091E+03	3.599465E-02	1.095734E-03
4.218182E+03	3.616894E-02	1.100903E-03
4.227273E+03	3.634030E-02	1.105981E-03
4.236364E+03	3.650861E-02	1.110965E-03
4.245455E+03	3.667383E-02	1.115854E-03
4.254545E+03	3.683587E-02	1.120644E-03
4.263636E+03	3.699464E-02	1.125334E-03
4.272727E+03	3.715009E-02	1.129921E-03
4.281818E+03	3.730214E-02	1.134403E-03
4.290909E+03	3.745070E-02	1.138777E-03
4.300000E+03	3.759573E-02	1.143043E-03
4.309091E+03	3.773715E-02	1.147199E-03
4.318182E+03	3.787490E-02	1.151241E-03
4.327273E+03	3.800314E-02	1.154993E-03
4.336364E+03	3.813336E-02	1.158804E-03
4.345455E+03	3.825975E-02	1.162497E-03
4.354545E+03	3.838224E-02	1.166071E-03
4.363636E+03	3.849494E-02	1.169346E-03
4.372727E+03	3.860951E-02	1.172677E-03
4.381818E+03	3.872005E-02	1.175884E-03
4.390909E+03	3.882064E-02	1.178789E-03
4.400000E+03	3.892302E-02	1.181747E-03
4.409091E+03	3.902128E-02	1.184579E-03
4.418182E+03	3.910948E-02	1.187104E-03
4.427273E+03	3.919945E-02	1.189683E-03
4.436364E+03	3.927928E-02	1.191953E-03
4.445455E+03	3.936087E-02	1.194275E-03
4.454545E+03	3.943830E-02	1.196471E-03
4.463636E+03	3.950553E-02	1.198357E-03
4.472727E+03	3.956856E-02	1.200115E-03
4.481818E+03	3.963340E-02	1.201927E-03
4.490909E+03	3.968808E-02	1.203430E-03
4.500000E+03	3.974462E-02	1.204989E-03
4.509091E+03	3.979101E-02	1.206240E-03
4.518182E+03	3.983931E-02	1.207549E-03
4.527273E+03	3.987752E-02	1.208552E-03
4.536364E+03	3.991173E-02	1.209432E-03
4.545455E+03	3.994193E-02	1.210191E-03
4.554545E+03	3.997421E-02	1.211013E-03
4.563636E+03	3.999659E-02	1.211535E-03
4.572727E+03	4.001512E-02	1.211940E-03
4.581818E+03	4.002989E-02	1.212230E-03
4.590909E+03	4.004699E-02	1.212592E-03
4.600000E+03	4.005440E-02	1.212660E-03
4.609091E+03	4.005824E-02	1.212619E-03
4.618182E+03	4.005858E-02	1.212473E-03
4.627273E+03	4.005551E-02	1.212223E-03
4.636364E+03	4.004908E-02	1.211872E-03
4.645455E+03	4.003941E-02	1.211423E-03
4.654545E+03	4.002656E-02	1.210878E-03
4.663636E+03	4.001064E-02	1.210240E-03
4.672727E+03	3.999172E-02	1.209512E-03
4.681818E+03	3.996988E-02	1.208696E-03
4.690909E+03	3.994527E-02	1.207795E-03
4.700000E+03	3.991793E-02	1.206813E-03
4.709091E+03	3.988799E-02	1.205753E-03
4.718182E+03	3.985552E-02	1.204616E-03
4.727273E+03	3.982065E-02	1.203407E-03
4.736364E+03	3.978344E-02	1.202128E-03
4.745455E+03	3.973808E-02	1.200603E-03
4.754545E+03	3.969655E-02	1.199194E-03
4.763636E+03	3.965304E-02	1.197726E-03
4.772727E+03	3.960758E-02	1.196200E-03
4.781818E+03	3.955441E-02	1.194441E-03
4.790909E+03	3.950544E-02	1.192809E-03
4.800000E+03	3.945488E-02	1.191130E-03
4.809091E+03	3.939689E-02	1.189228E-03
4.818182E+03	3.934340E-02	1.187462E-03
4.827273E+03	3.928856E-02	1.185656E-03
4.836364E+03	3.922665E-02	1.183637E-03
4.845455E+03	3.916947E-02	1.181761E-03
4.854545E+03	3.910541E-02	1.179679E-03
4.863636E+03	3.904624E-02	1.177745E-03
4.872727E+03	3.898037E-02	1.175609E-03
4.881818E+03	3.891955E-02	1.173626E-03
4.890909E+03	3.885221E-02	1.171448E-03
4.900000E+03	3.879007E-02	1.169427E-03
4.909091E+03	3.872161E-02	1.167217E-03
4.918182E+03	3.865266E-02	1.164993E-03
4.927273E+03	3.858913E-02	1.162932E-03
4.936364E+03	3.851949E-02	1.160689E-03
4.945455E+03	3.844960E-02	1.158438E-03
4.954545E+03	3.838525E-02	1.156356E-03
4.963636E+03	3.831506E-02	1.154098E-03
4.972727E+03	3.824478E-02	1.151839E-03
4.981818E+03	3.817447E-02	1.149580E-03
4.990909E+03	3.810989E-02	1.147494E-03
5.000000E+03	3.803969E-02	1.145240E-03
5.009091E+03	3.796961E-02	1.142990E-03
5.018182E+03	3.789972E-02	1.140747E-03
5.027273E+03	3.783000E-02	1.138511E-03
5.036364E+03	3.776053E-02	1.136282E-03
5.045455E+03	3.769133E-02	1.134063E-03
5.054545E+03	3.762243E-02	1.131853E-03
5.063636E+03	3.755944E-02	1.129823E-03
5.072727E+03	3.749120E-02	1.127636E-03
5.081818E+03	3.742334E-02	1.125460E-03
5.090909E+03	3.735029E-02	1.123130E-03
5.100000E+03	3.728321E-02	1.120981E-03
5.109091E+03	3.721655E-02	1.118845E-03
5.118182E+03	3.715031E-02	1.116723E-03
5.127273E+03	3.708452E-02	1.114615E-03
5.136364E+03	3.701917E-02	1.112522E-03
5.145455E+03	3.695426E-02	1.110443E-03
5.154545E+03	3.688978E-02	1.108378E-03
5.163636E+03	3.682579E-02	1.106329E-03
5.172727E+03	3.675676E-02	1.104130E-03
5.181818E+03	3.669366E-02	1.102110E-03
5.190909E+03	3.663100E-02	1.100104E-03
5.200000E+03	3.656878E-02	1.098112E-03
5.209091E+03	3.650159E-02	1.095972E-03
5.218182E+03	3.644024E-02	1.094009E-03
5.227273E+03	3.637933E-02	1.092060E-03
5.236364E+03	3.631343E-02	1.089963E-03
5.245455E+03	3.625335E-02	1.088042E-03
5.254545E+03	3.619364E-02	1.086133E-03
5.263636E+03	3.612900E-02	1.084076E-03
5.272727E+03	3.607008E-02	1.082193E-03
5.281818E+03	3.600620E-02	1.080163E-03
5.290909E+03	3.594803E-02	1.078305E-03
5.300000E+03	3.588490E-02	1.076299E-03
5.309091E+03	3.582744E-02	1.074464E-03
5.318182E+03	3.576501E-02	1.072482E-03
5.327273E+03	3.570823E-02	1.070671E-03
5.336364E+03	3.564649E-02	1.068712E-03
5.345455E+03	3.559035E-02	1.066922E-03
5.354545E+03	3.552927E-02	1.064986E-03
5.363636E+03	3.546849E-02	1.063060E-03
5.372727E+03	3.541331E-02	1.061303E-03
5.381818E+03	3.535317E-02	1.059399E-03
5.390909E+03	3.529337E-02	1.057506E-03
5.400000E+03	3.523912E-02	1.055781E-03
5.409091E+03	3.517994E-02	1.053910E-03
5.418182E+03	3.512107E-02	1.052049E-03
5.427273E+03	3.506774E-02	1.050356E-03
5.436364E+03	3.500954E-02	1.048518E-03
5.445455E+03	3.495166E-02	1.046691E-03
5.454545E+03	3.489412E-02	1.044876E-03
5.463636E+03	3.483695E-02	1.043074E-03
5.472727E+03	3.478529E-02	1.041437E-03
5.481818E+03	3.472883E-02	1.039659E-03
5.490909E+03	3.467276E-02	1.037894E-03
5.500000E+03	3.461707E-02	1.036142E-03
5.509091E+03	3.456182E-02	1.034404E-03
5.518182E+03	3.450697E-02	1.032680E-03
5.527273E+03	3.445258E-02	1.030971E-03
5.536364E+03	3.439863E-02	1.029277E-03
5.545455E+03	3.434516E-02	1.027599E-03
5.554545E+03	3.429219E-02	1.025937E-03
5.563636E+03	3.423973E-02	1.024293E-03
5.572727E+03	3.418780E-02	1.022665E-03
5.581818E+03	3.413643E-02	1.021056E-03
5.590909E+03	3.408564E-02	1.019466E-03
5.600000E+03	3.403541E-02	1.017895E-03
5.609091E+03	3.398582E-02	1.016344E-03
5.618182E+03	3.393683E-02	1.014813E-03
5.627273E+03	3.388851E-02	1.013303E-03
5.636364E+03	3.384081E-02	1.011814E-03
5.645455E+03	3.379382E-02	1.010347E-03
5.654545E+03	3.374750E-02	1.008903E-03
5.663636E+03	3.370186E-02	1.007480E-03
5.672727E+03	3.365191E-02	1.005930E-03
5.681818E+03	3.360764E-02	1.004552E-03
5.690909E+03	3.356407E-02	1.003195E-03
5.700000E+03	3.352115E-02	1.001860E-03
5.709091E+03	3.347889E-02	1.000546E-03
5.718182E+03	3.343232E-02	9.991055E-04
5.727273E+03	3.339134E-02	9.978330E-04
5.736364E+03	3.335101E-02	9.965817E-04
5.745455E+03	3.331127E-02	9.953493E-04
5.754545E+03	3.326721E-02	9.939893E-04
5.763636E+03	3.322867E-02	9.927957E-04
5.772727E+03	3.319070E-02	9.916206E-04
5.781818E+03	3.314835E-02	9.903164E-04
5.790909E+03	3.311151E-02	9.891779E-04
5.800000E+03	3.307028E-02	9.879098E-04
5.809091E+03	3.303447E-02	9.868048E-04
5.818182E+03	3.299917E-02	9.857169E-04
5.827273E+03	3.295946E-02	9.844985E-04
5.836364E+03	3.292515E-02	9.834426E-04
5.845455E+03	3.288640E-02	9.822556E-04
5.854545E+03	3.285301E-02	9.812298E-04
5.863636E+03	3.282005E-02	9.802184E-04
5.872727E+03	3.278265E-02	9.790758E-04
5.881818E+03	3.275054E-02	9.780924E-04
5.890909E+03	3.271399E-02	9.769778E-04
5.900000E+03	3.268271E-02	9.760217E-04
5.909091E+03	3.264697E-02	9.749337E-04
5.918182E+03	3.261160E-02	9.738581E-04
5.927273E+03	3.258148E-02	9.729403E-04
5.936364E+03	3.254687E-02	9.718900E-04
5.945455E+03	3.251748E-02	9.709967E-04
5.954545E+03	3.248360E-02	9.699703E-04
5.963636E+03	3.245487E-02	9.690990E-04
5.972727E+03	3.242167E-02	9.680957E-04
5.981818E+03	3.238879E-02	9.671028E-04
5.990909E+03	3.236102E-02	9.662637E-04
6.000000E+03	3.232877E-02	9.652919E-04
6.009091E+03	3.229679E-02	9.643297E-04
6.018182E+03	3.226990E-02	9.635201E-04
6.027273E+03	3.223847E-02	9.625764E-04
6.036364E+03	3.220731E-02	9.616416E-04
6.045455E+03	3.218120E-02	9.608588E-04
6.054545E+03	3.215051E-02	9.599406E-04
6.063636E+03	3.212007E-02	9.590306E-04
6.072727E+03	3.208982E-02	9.581276E-04
6.081818E+03	3.206456E-02	9.573744E-04
6.090909E+03	3.203471E-02	9.564853E-04
6.100000E+03	3.200503E-02	9.556023E-04
6.109091E+03	3.197550E-02	9.547250E-04
6.118182E+03	3.194613E-02	9.538533E-04
6.127273E+03	3.192166E-02	9.531289E-04
6.136364E+03	3.189255E-02	9.522671E-04
6.145455E+03	3.186352E-02	9.514089E-04
6.154545E+03	3.183461E-02	9.505549E-04
6.163636E+03	3.180579E-02	9.497046E-04
6.172727E+03	3.177703E-02	9.488573E-04
6.181818E+03	3.174832E-02	9.480122E-04
6.190909E+03	3.171965E-02	9.471695E-04
6.200000E+03	3.169573E-02	9.464696E-04
6.209091E+03	3.166710E-02	9.456301E-04
6.218182E+03	3.163846E-02	9.447910E-04
6.227273E+03	3.160982E-02	9.439529E-04
6.236364E+03	3.158116E-02	9.431151E-04
6.245455E+03	3.155245E-02	9.422770E-04
6.254545E+03	3.152370E-02	9.414385E-04
6.263636E+03	3.149489E-02	9.405990E-04
6.272727E+03	3.146600E-02	9.397580E-04
6.281818E+03	3.143703E-02	9.389159E-04
6.290909E+03	3.140794E-02	9.380708E-04
6.300000E+03	3.137877E-02	9.372241E-04
6.309091E+03	3.134948E-02	9.363751E-04
6.318182E+03	3.132005E-02	9.355225E-04
6.327273E+03	3.129049E-02	9.346669E-04
6.336364E+03	3.125608E-02	9.336677E-04
6.345455E+03	3.122622E-02	9.328048E-04
6.354545E+03	3.119618E-02	9.319377E-04
6.363636E+03	3.116595E-02	9.310656E-04
6.372727E+03	3.113556E-02	9.301898E-04
6.381818E+03	3.110496E-02	9.293085E-04
6.390909E+03	3.107416E-02	9.284222E-04
6.400000E+03	3.104315E-02	9.275303E-04
6.409091E+03	3.100730E-02	9.264947E-04
6.418182E+03	3.097585E-02	9.255915E-04
6.427273E+03	3.094419E-02	9.246827E-04
6.436364E+03	3.091229E-02	9.237677E-04
6.445455E+03	3.088017E-02	9.228470E-04
6.454545E+03	3.084316E-02	9.217811E-04
6.463636E+03	3.081052E-02	9.208465E-04
6.472727E+03	3.077764E-02	9.199056E-04
6.481818E+03	3.074450E-02	9.189578E-04
6.490909E+03	3.070650E-02	9.178654E-04
6.500000E+03	3.067282E-02	9.169029E-04
6.509091E+03	3.063889E-02	9.159341E-04
6.518182E+03	3.060466E-02	9.149571E-04
6.527273E+03	3.056557E-02	9.138354E-04
6.536364E+03	3.053080E-02	9.128437E-04
6.545455E+03	3.049574E-02	9.118444E-04
6.554545E+03	3.045580E-02	9.106997E-04
6.563636E+03	3.042015E-02	9.096844E-04
6.572727E+03	3.038421E-02	9.086608E-04
6.581818E+03	3.034339E-02	9.074924E-04
6.590909E+03	3.030683E-02	9.064522E-04
6.600000E+03	3.026540E-02	9.052671E-04
6.609091E+03	3.022821E-02	9.042096E-04
6.618182E+03	3.019069E-02	9.031430E-04
6.627273E+03	3.014830E-02	9.019317E-04
6.636364E+03	3.011012E-02	9.008471E-04
6.645455E+03	3.006708E-02	8.996177E-04
6.654545E+03	3.002820E-02	8.985139E-04
6.663636E+03	2.998446E-02	8.972651E-04
6.672727E+03	2.994486E-02	8.961413E-04
6.681818E+03	2.990040E-02	8.948726E-04
6.690909E+03	2.986003E-02	8.937275E-04
6.700000E+03	2.981480E-02	8.924374E-04
6.709091E+03	2.977368E-02	8.912710E-04
6.718182E+03	2.972764E-02	8.899584E-04
6.727273E+03	2.968564E-02	8.887674E-04
6.736364E+03	2.963877E-02	8.874314E-04
6.745455E+03	2.959144E-02	8.860825E-04
6.754545E+03	2.954811E-02	8.848540E-04
6.763636E+03	2.949984E-02	8.834785E-04
6.772727E+03	2.945555E-02	8.822229E-04
6.781818E+03	2.940632E-02	8.808201E-04
6.790909E+03	2.935657E-02	8.794025E-04
6.800000E+03	2.931071E-02	8.781021E-04
6.809091E+03	2.925988E-02	8.766540E-04
6.818182E+03	2.920851E-02	8.751902E-04
6.827273E+03	2.916099E-02	8.738425E-04
6.836364E+03	2.910847E-02	8.723456E-04
6.845455E+03	2.905535E-02	8.708318E-04
6.854545E+03	2.900604E-02	8.694328E-04
6.863636E+03	2.895173E-02	8.678845E-04
6.872727E+03	2.889683E-02	8.663192E-04
6.881818E+03	2.884131E-02	8.647362E-04
6.890909E+03	2.878958E-02	8.632673E-04
6.900000E+03	2.873287E-02	8.616496E-04
6.909091E+03	2.867559E-02	8.600154E-04
6.918182E+03	2.861774E-02	8.583648E-04
6.927273E+03	2.856363E-02	8.568269E-04
6.936364E+03	2.850464E-02	8.551433E-04
6.945455E+03	2.844511E-02	8.534438E-04
6.954545E+03	2.838504E-02	8.517283E-04
6.963636E+03	2.832444E-02	8.499976E-04
6.972727E+03	2.826331E-02	8.482515E-04
6.981818E+03	2.820169E-02	8.464907E-04
6.990909E+03	2.814382E-02	8.448432E-04
7.000000E+03	2.808116E-02	8.430523E-04
7.009091E+03	2.801803E-02	8.412473E-04
7.018182E+03	2.795439E-02	8.394274E-04
7.027273E+03	2.789029E-02	8.375941E-04
7.036364E+03	2.782569E-02	8.357459E-04
7.045455E+03	2.776063E-02	8.338841E-04
7.054545E+03	2.769509E-02	8.320081E-04
