#wls	flux	fluxerr
1.454545E+03	4.067970E-03	3.013100E-04
1.490909E+03	4.137982E-03	3.063440E-04
1.527273E+03	4.210608E-03	3.115618E-04
1.563636E+03	4.285963E-03	3.169711E-04
1.600000E+03	4.364170E-03	3.225805E-04
1.636364E+03	4.445356E-03	3.283984E-04
1.672727E+03	4.529655E-03	3.344341E-04
1.709091E+03	4.618033E-03	3.407580E-04
1.745455E+03	4.709002E-03	3.472594E-04
1.781818E+03	4.803530E-03	3.540087E-04
1.818182E+03	4.902650E-03	3.610812E-04
1.854545E+03	5.004801E-03	3.683607E-04
1.890909E+03	5.111935E-03	3.759898E-04
1.927273E+03	5.223364E-03	3.839165E-04
1.963636E+03	5.339288E-03	3.921543E-04
2.000000E+03	5.459914E-03	4.007171E-04
2.036364E+03	5.585464E-03	4.096196E-04
2.072727E+03	5.716162E-03	4.188767E-04
2.109091E+03	5.852251E-03	4.285044E-04
2.145455E+03	5.993980E-03	4.385194E-04
2.181818E+03	6.141613E-03	4.489390E-04
2.218182E+03	6.295422E-03	4.597811E-04
2.254545E+03	6.456843E-03	4.711483E-04
2.290909E+03	6.623910E-03	4.828948E-04
2.327273E+03	6.799258E-03	4.952103E-04
2.363636E+03	6.980828E-03	5.079423E-04
2.400000E+03	7.171407E-03	5.212908E-04
2.436364E+03	7.370144E-03	5.351908E-04
2.472727E+03	7.576063E-03	5.495684E-04
2.509091E+03	7.792189E-03	5.646398E-04
2.545455E+03	8.017608E-03	5.803352E-04
2.581818E+03	8.252729E-03	5.966801E-04
2.618182E+03	8.497965E-03	6.137006E-04
2.654545E+03	8.753744E-03	6.314233E-04
2.690909E+03	9.020505E-03	6.498754E-04
2.727273E+03	9.298689E-03	6.690839E-04
2.736364E+03	9.370071E-03	6.740073E-04
2.745455E+03	9.442206E-03	6.789804E-04
2.754545E+03	9.515093E-03	6.840030E-04
2.763636E+03	9.590437E-03	6.891976E-04
2.772727E+03	9.664873E-03	6.943223E-04
2.781818E+03	9.740088E-03	6.994982E-04
2.790909E+03	9.816087E-03	7.047255E-04
2.800000E+03	9.892879E-03	7.100049E-04
2.809091E+03	9.970472E-03	7.153369E-04
2.818182E+03	1.004887E-02	7.207215E-04
2.827273E+03	1.012808E-02	7.261595E-04
2.836364E+03	1.020812E-02	7.316512E-04
2.845455E+03	1.028898E-02	7.371968E-04
2.854545E+03	1.037067E-02	7.427972E-04
2.863636E+03	1.045321E-02	7.484523E-04
2.872727E+03	1.053845E-02	7.542954E-04
2.881818E+03	1.062271E-02	7.600627E-04
2.890909E+03	1.070783E-02	7.658862E-04
2.900000E+03	1.079383E-02	7.717661E-04
2.909091E+03	1.088070E-02	7.777030E-04
2.918182E+03	1.096845E-02	7.836974E-04
2.927273E+03	1.105710E-02	7.897494E-04
2.936364E+03	1.114665E-02	7.958595E-04
2.945455E+03	1.123710E-02	8.020281E-04
2.954545E+03	1.132846E-02	8.082555E-04
2.963636E+03	1.142274E-02	8.146850E-04
2.972727E+03	1.151596E-02	8.210322E-04
2.981818E+03	1.161011E-02	8.274394E-04
2.990909E+03	1.170520E-02	8.339069E-04
3.000000E+03	1.180124E-02	8.404351E-04
3.009091E+03	1.189822E-02	8.470241E-04
3.018182E+03	1.199616E-02	8.536743E-04
3.027273E+03	1.209719E-02	8.605368E-04
3.036364E+03	1.219708E-02	8.673116E-04
3.045455E+03	1.229794E-02	8.741484E-04
3.054545E+03	1.239979E-02	8.810478E-04
3.063636E+03	1.250262E-02	8.880099E-04
3.072727E+03	1.260644E-02	8.950349E-04
3.081818E+03	1.271125E-02	9.021232E-04
3.090909E+03	1.281707E-02	9.092748E-04
3.100000E+03	1.292616E-02	9.166503E-04
3.109091E+03	1.303401E-02	9.239306E-04
3.118182E+03	1.314288E-02	9.312750E-04
3.127273E+03	1.325277E-02	9.386837E-04
3.136364E+03	1.336369E-02	9.461568E-04
3.145455E+03	1.347563E-02	9.536944E-04
3.154545E+03	1.359098E-02	9.614646E-04
3.163636E+03	1.370501E-02	9.691331E-04
3.172727E+03	1.382008E-02	9.768663E-04
3.181818E+03	1.393619E-02	9.846647E-04
3.190909E+03	1.405335E-02	9.925281E-04
3.200000E+03	1.417156E-02	1.000456E-03
3.209091E+03	1.429331E-02	1.008626E-03
3.218182E+03	1.441364E-02	1.016686E-03
3.227273E+03	1.453502E-02	1.024811E-03
3.236364E+03	1.465746E-02	1.033001E-03
3.245455E+03	1.478096E-02	1.041257E-03
3.254545E+03	1.490551E-02	1.049577E-03
3.263636E+03	1.503113E-02	1.057962E-03
3.272727E+03	1.516044E-02	1.066597E-03
3.281818E+03	1.528819E-02	1.075113E-03
3.290909E+03	1.541700E-02	1.083693E-03
3.300000E+03	1.554687E-02	1.092337E-03
3.309091E+03	1.567780E-02	1.101045E-03
3.318182E+03	1.580978E-02	1.109816E-03
3.327273E+03	1.594558E-02	1.118846E-03
3.336364E+03	1.607968E-02	1.127745E-03
3.345455E+03	1.621484E-02	1.136708E-03
3.354545E+03	1.635103E-02	1.145732E-03
3.363636E+03	1.648827E-02	1.154818E-03
3.372727E+03	1.662654E-02	1.163966E-03
3.381818E+03	1.676876E-02	1.173378E-03
3.390909E+03	1.690911E-02	1.182649E-03
3.400000E+03	1.705049E-02	1.191979E-03
3.409091E+03	1.719288E-02	1.201369E-03
3.418182E+03	1.733628E-02	1.210817E-03
3.427273E+03	1.748371E-02	1.220535E-03
3.436364E+03	1.762912E-02	1.230101E-03
3.445455E+03	1.777552E-02	1.239723E-03
3.454545E+03	1.792290E-02	1.249400E-03
3.463636E+03	1.807124E-02	1.259133E-03
3.472727E+03	1.822054E-02	1.268920E-03
3.481818E+03	1.837078E-02	1.278759E-03
3.490909E+03	1.852517E-02	1.288875E-03
3.500000E+03	1.867729E-02	1.298820E-03
3.509091E+03	1.883032E-02	1.308816E-03
3.518182E+03	1.898425E-02	1.318860E-03
3.527273E+03	1.913906E-02	1.328953E-03
3.536364E+03	1.929474E-02	1.339093E-03
3.545455E+03	1.945464E-02	1.349512E-03
3.554545E+03	1.961203E-02	1.359743E-03
3.563636E+03	1.977025E-02	1.370018E-03
3.572727E+03	1.992926E-02	1.380335E-03
3.581818E+03	2.008906E-02	1.390692E-03
3.590909E+03	2.024963E-02	1.401088E-03
3.600000E+03	2.041094E-02	1.411522E-03
3.609091E+03	2.057653E-02	1.422237E-03
3.618182E+03	2.073930E-02	1.432743E-03
3.627273E+03	2.090274E-02	1.443281E-03
3.636364E+03	2.106685E-02	1.453851E-03
3.645455E+03	2.123159E-02	1.464450E-03
3.654545E+03	2.139695E-02	1.475076E-03
3.663636E+03	2.156289E-02	1.485728E-03
3.672727E+03	2.173314E-02	1.496662E-03
3.681818E+03	2.190020E-02	1.507361E-03
3.690909E+03	2.206776E-02	1.518081E-03
3.700000E+03	2.223581E-02	1.528817E-03
3.709091E+03	2.240430E-02	1.539570E-03
3.718182E+03	2.257320E-02	1.550336E-03
3.727273E+03	2.274250E-02	1.561113E-03
3.736364E+03	2.291214E-02	1.571899E-03
3.745455E+03	2.308609E-02	1.582964E-03
3.754545E+03	2.325637E-02	1.593763E-03
3.763636E+03	2.342691E-02	1.604563E-03
3.772727E+03	2.359768E-02	1.615364E-03
3.781818E+03	2.376862E-02	1.626161E-03
3.790909E+03	2.393971E-02	1.636952E-03
3.800000E+03	2.411089E-02	1.647734E-03
3.809091E+03	2.428214E-02	1.658505E-03
3.818182E+03	2.445342E-02	1.669262E-03
3.827273E+03	2.462469E-02	1.680002E-03
3.836364E+03	2.480017E-02	1.691014E-03
3.845455E+03	2.497133E-02	1.701715E-03
3.854545E+03	2.514234E-02	1.712390E-03
3.863636E+03	2.531317E-02	1.723037E-03
3.872727E+03	2.548377E-02	1.733652E-03
3.881818E+03	2.565408E-02	1.744232E-03
3.890909E+03	2.582410E-02	1.754776E-03
3.900000E+03	2.599372E-02	1.765277E-03
3.909091E+03	2.616295E-02	1.775736E-03
3.918182E+03	2.633169E-02	1.786145E-03
3.927273E+03	2.649993E-02	1.796505E-03
3.936364E+03	2.666761E-02	1.806811E-03
3.945455E+03	2.683466E-02	1.817059E-03
3.954545E+03	2.700104E-02	1.827245E-03
3.963636E+03	2.716671E-02	1.837369E-03
3.972727E+03	2.733160E-02	1.847423E-03
3.981818E+03	2.749566E-02	1.857406E-03
3.990909E+03	2.765884E-02	1.867314E-03
4.000000E+03	2.782107E-02	1.877143E-03
4.009091E+03	2.798711E-02	1.887214E-03
4.018182E+03	2.814733E-02	1.896875E-03
4.027273E+03	2.830644E-02	1.906448E-03
4.036364E+03	2.846438E-02	1.915927E-03
4.045455E+03	2.862109E-02	1.925308E-03
4.054545E+03	2.877652E-02	1.934589E-03
4.063636E+03	2.893061E-02	1.943765E-03
4.072727E+03	2.908329E-02	1.952831E-03
4.081818E+03	2.922951E-02	1.961450E-03
4.090909E+03	2.937917E-02	1.970285E-03
4.100000E+03	2.952726E-02	1.979002E-03
4.109091E+03	2.967369E-02	1.987592E-03
4.118182E+03	2.981843E-02	1.996057E-03
4.127273E+03	2.996140E-02	2.004389E-03
4.136364E+03	3.010253E-02	2.012586E-03
4.145455E+03	3.024177E-02	2.020643E-03
4.154545E+03	3.037906E-02	2.028556E-03
4.163636E+03	3.051432E-02	2.036321E-03
4.172727E+03	3.064753E-02	2.043937E-03
4.181818E+03	3.077857E-02	2.051396E-03
4.190909E+03	3.090743E-02	2.058698E-03
4.200000E+03	3.103401E-02	2.065836E-03
4.209091E+03	3.115828E-02	2.072810E-03
4.218182E+03	3.128016E-02	2.079612E-03
4.227273E+03	3.139958E-02	2.086241E-03
4.236364E+03	3.151650E-02	2.092693E-03
4.245455E+03	3.162548E-02	2.098607E-03
4.254545E+03	3.173719E-02	2.104693E-03
4.263636E+03	3.184623E-02	2.110592E-03
4.272727E+03	3.195254E-02	2.116300E-03
4.281818E+03	3.205605E-02	2.121814E-03
4.290909E+03	3.215671E-02	2.127131E-03
4.300000E+03	3.225445E-02	2.132246E-03
4.309091E+03	3.234927E-02	2.137159E-03
4.318182E+03	3.243553E-02	2.141500E-03
4.327273E+03	3.252427E-02	2.145997E-03
4.336364E+03	3.260989E-02	2.150282E-03
4.345455E+03	3.269238E-02	2.154353E-03
4.354545E+03	3.277167E-02	2.158207E-03
4.363636E+03	3.284772E-02	2.161842E-03
4.372727E+03	3.291492E-02	2.164888E-03
4.381818E+03	3.298440E-02	2.168080E-03
4.390909E+03	3.305054E-02	2.171048E-03
4.400000E+03	3.311333E-02	2.173790E-03
4.409091E+03	3.317274E-02	2.176307E-03
4.418182E+03	3.322308E-02	2.178226E-03
4.427273E+03	3.327564E-02	2.180287E-03
4.436364E+03	3.332480E-02	2.182123E-03
4.445455E+03	3.337053E-02	2.183731E-03
4.454545E+03	3.341283E-02	2.185114E-03
4.463636E+03	3.344603E-02	2.185900E-03
4.472727E+03	3.348153E-02	2.186834E-03
4.481818E+03	3.351367E-02	2.187549E-03
4.490909E+03	3.354245E-02	2.188043E-03
4.500000E+03	3.356221E-02	2.187950E-03
4.509091E+03	3.358437E-02	2.188013E-03
4.518182E+03	3.360328E-02	2.187864E-03
4.527273E+03	3.361899E-02	2.187507E-03
4.536364E+03	3.362577E-02	2.186571E-03
4.545455E+03	3.363514E-02	2.185804E-03
4.554545E+03	3.364139E-02	2.184836E-03
4.563636E+03	3.363889E-02	2.183303E-03
4.572727E+03	3.363907E-02	2.181945E-03
4.581818E+03	3.363630E-02	2.180399E-03
4.590909E+03	3.362492E-02	2.178297E-03
4.600000E+03	3.361636E-02	2.176381E-03
4.609091E+03	3.360501E-02	2.174288E-03
4.618182E+03	3.358518E-02	2.171650E-03
4.627273E+03	3.356836E-02	2.169210E-03
4.636364E+03	3.354889E-02	2.166604E-03
4.645455E+03	3.352113E-02	2.163467E-03
4.654545E+03	3.349652E-02	2.160537E-03
4.663636E+03	3.346944E-02	2.157453E-03
4.672727E+03	3.343426E-02	2.153853E-03
4.681818E+03	3.340239E-02	2.150471E-03
4.690909E+03	3.336820E-02	2.146947E-03
4.700000E+03	3.332610E-02	2.142918E-03
4.709091E+03	3.328748E-02	2.139120E-03
4.718182E+03	3.324109E-02	2.134829E-03
4.727273E+03	3.319827E-02	2.130775E-03
4.736364E+03	3.315343E-02	2.126597E-03
4.745455E+03	3.310102E-02	2.121941E-03
4.754545E+03	3.305232E-02	2.117531E-03
4.763636E+03	3.299621E-02	2.112653E-03
4.772727E+03	3.294392E-02	2.108028E-03
4.781818E+03	3.288435E-02	2.102945E-03
4.790909E+03	3.282868E-02	2.098120E-03
4.800000E+03	3.277141E-02	2.093202E-03
4.809091E+03	3.270706E-02	2.087839E-03
4.818182E+03	3.264678E-02	2.082745E-03
4.827273E+03	3.257953E-02	2.077215E-03
4.836364E+03	3.251647E-02	2.071962E-03
4.845455E+03	3.244657E-02	2.066283E-03
4.854545E+03	3.238092E-02	2.060884E-03
4.863636E+03	3.230861E-02	2.055071E-03
4.872727E+03	3.224064E-02	2.049543E-03
4.881818E+03	3.216611E-02	2.043609E-03
4.890909E+03	3.209602E-02	2.037967E-03
4.900000E+03	3.201951E-02	2.031928E-03
4.909091E+03	3.194749E-02	2.026185E-03
4.918182E+03	3.186920E-02	2.020055E-03
4.927273E+03	3.179011E-02	2.013884E-03
4.936364E+03	3.171564E-02	2.008018E-03
4.945455E+03	3.163508E-02	2.001777E-03
4.954545E+03	3.155921E-02	1.995844E-03
4.963636E+03	3.147737E-02	1.989545E-03
4.972727E+03	3.140031E-02	1.983560E-03
4.981818E+03	3.131741E-02	1.977218E-03
4.990909E+03	3.123405E-02	1.970858E-03
5.000000E+03	3.115555E-02	1.964817E-03
5.009091E+03	3.107139E-02	1.958431E-03
5.018182E+03	3.099217E-02	1.952369E-03
5.027273E+03	3.090741E-02	1.945970E-03
5.036364E+03	3.082241E-02	1.939567E-03
5.045455E+03	3.074242E-02	1.933494E-03
5.054545E+03	3.065707E-02	1.927095E-03
5.063636E+03	3.057679E-02	1.921028E-03
5.072727E+03	3.049124E-02	1.914642E-03
5.081818E+03	3.040569E-02	1.908270E-03
5.090909E+03	3.032526E-02	1.902232E-03
5.100000E+03	3.023975E-02	1.895888E-03
5.109091E+03	3.015433E-02	1.889563E-03
5.118182E+03	3.007411E-02	1.883577E-03
5.127273E+03	2.998898E-02	1.877297E-03
5.136364E+03	2.990402E-02	1.871041E-03
5.145455E+03	2.982435E-02	1.865130E-03
5.154545E+03	2.973989E-02	1.858932E-03
5.163636E+03	2.965577E-02	1.852770E-03
5.172727E+03	2.957195E-02	1.846640E-03
5.181818E+03	2.949349E-02	1.840859E-03
5.190909E+03	2.941045E-02	1.834805E-03
5.200000E+03	2.932784E-02	1.828793E-03
5.209091E+03	2.925066E-02	1.823133E-03
5.218182E+03	2.916900E-02	1.817208E-03
5.227273E+03	2.908787E-02	1.811330E-03
5.236364E+03	2.900732E-02	1.805502E-03
5.245455E+03	2.893222E-02	1.800029E-03
5.254545E+03	2.885285E-02	1.794304E-03
5.263636E+03	2.877413E-02	1.788633E-03
5.272727E+03	2.869608E-02	1.783019E-03
5.281818E+03	2.861874E-02	1.777464E-03
5.290909E+03	2.854694E-02	1.772268E-03
5.300000E+03	2.847107E-02	1.766833E-03
5.309091E+03	2.839597E-02	1.761461E-03
5.318182E+03	2.832169E-02	1.756155E-03
5.327273E+03	2.824826E-02	1.750916E-03
5.336364E+03	2.818042E-02	1.746039E-03
5.345455E+03	2.810873E-02	1.740938E-03
5.354545E+03	2.803792E-02	1.735907E-03
5.363636E+03	2.796807E-02	1.730951E-03
5.372727E+03	2.789917E-02	1.726068E-03
5.381818E+03	2.783594E-02	1.721552E-03
5.390909E+03	2.776902E-02	1.716822E-03
5.400000E+03	2.770313E-02	1.712172E-03
5.409091E+03	2.763830E-02	1.707602E-03
5.418182E+03	2.757454E-02	1.703115E-03
5.427273E+03	2.751190E-02	1.698712E-03
5.436364E+03	2.745036E-02	1.694393E-03
5.445455E+03	2.738996E-02	1.690160E-03
5.454545E+03	2.733536E-02	1.686300E-03
5.463636E+03	2.727731E-02	1.682244E-03
5.472727E+03	2.722047E-02	1.678278E-03
5.481818E+03	2.716488E-02	1.674405E-03
5.490909E+03	2.711052E-02	1.670625E-03
5.500000E+03	2.705746E-02	1.666940E-03
5.509091E+03	2.700568E-02	1.663351E-03
5.518182E+03	2.695521E-02	1.659858E-03
5.527273E+03	2.690609E-02	1.656465E-03
5.536364E+03	2.685832E-02	1.653173E-03
5.545455E+03	2.681195E-02	1.649982E-03
5.554545E+03	2.676694E-02	1.646892E-03
5.563636E+03	2.672787E-02	1.644184E-03
5.572727E+03	2.668572E-02	1.641304E-03
5.581818E+03	2.664500E-02	1.638528E-03
5.590909E+03	2.660578E-02	1.635862E-03
5.600000E+03	2.656802E-02	1.633302E-03
5.609091E+03	2.653177E-02	1.630853E-03
5.618182E+03	2.649703E-02	1.628514E-03
5.627273E+03	2.646383E-02	1.626287E-03
5.636364E+03	2.643216E-02	1.624171E-03
5.645455E+03	2.640200E-02	1.622167E-03
5.654545E+03	2.637342E-02	1.620276E-03
5.663636E+03	2.634635E-02	1.618495E-03
5.672727E+03	2.632081E-02	1.616825E-03
5.681818E+03	2.629675E-02	1.615263E-03
5.690909E+03	2.627421E-02	1.613810E-03
5.700000E+03	2.625311E-02	1.612462E-03
5.709091E+03	2.623348E-02	1.611220E-03
5.718182E+03	2.621527E-02	1.610081E-03
5.727273E+03	2.619846E-02	1.609043E-03
5.736364E+03	2.617859E-02	1.607833E-03
5.745455E+03	2.616450E-02	1.606993E-03
5.754545E+03	2.615174E-02	1.606249E-03
5.763636E+03	2.614026E-02	1.605599E-03
5.772727E+03	2.613006E-02	1.605042E-03
5.781818E+03	2.612113E-02	1.604577E-03
5.790909E+03	2.611340E-02	1.604200E-03
5.800000E+03	2.610689E-02	1.603912E-03
5.809091E+03	2.610154E-02	1.603709E-03
5.818182E+03	2.609734E-02	1.603590E-03
5.827273E+03	2.609426E-02	1.603554E-03
5.836364E+03	2.609229E-02	1.603600E-03
5.845455E+03	2.609139E-02	1.603724E-03
5.854545E+03	2.608714E-02	1.603655E-03
5.863636E+03	2.608834E-02	1.603934E-03
5.872727E+03	2.609052E-02	1.604286E-03
5.881818E+03	2.609371E-02	1.604713E-03
5.890909E+03	2.609784E-02	1.605210E-03
5.900000E+03	2.610293E-02	1.605779E-03
5.909091E+03	2.610891E-02	1.606414E-03
5.918182E+03	2.611581E-02	1.607119E-03
5.927273E+03	2.611916E-02	1.607616E-03
5.936364E+03	2.612778E-02	1.608449E-03
5.945455E+03	2.613721E-02	1.609344E-03
5.954545E+03	2.614748E-02	1.610303E-03
5.963636E+03	2.615851E-02	1.611319E-03
5.972727E+03	2.617032E-02	1.612395E-03
5.981818E+03	2.617845E-02	1.613256E-03
5.990909E+03	2.619173E-02	1.614445E-03
6.000000E+03	2.620572E-02	1.615689E-03
6.009091E+03	2.622041E-02	1.616986E-03
6.018182E+03	2.623575E-02	1.618335E-03
6.027273E+03	2.624731E-02	1.619460E-03
6.036364E+03	2.626393E-02	1.620909E-03
6.045455E+03	2.628116E-02	1.622406E-03
6.054545E+03	2.629897E-02	1.623949E-03
6.063636E+03	2.631734E-02	1.625536E-03
6.072727E+03	2.633182E-02	1.626894E-03
6.081818E+03	2.635129E-02	1.628570E-03
6.090909E+03	2.637125E-02	1.630286E-03
6.100000E+03	2.639170E-02	1.632042E-03
6.109091E+03	2.641263E-02	1.633838E-03
6.118182E+03	2.642953E-02	1.635395E-03
6.127273E+03	2.645134E-02	1.637265E-03
6.136364E+03	2.647357E-02	1.639170E-03
6.145455E+03	2.649617E-02	1.641107E-03
6.154545E+03	2.651465E-02	1.642799E-03
6.163636E+03	2.653797E-02	1.644800E-03
6.172727E+03	2.656162E-02	1.646831E-03
6.181818E+03	2.658110E-02	1.648612E-03
6.190909E+03	2.660533E-02	1.650697E-03
6.200000E+03	2.662984E-02	1.652809E-03
6.209091E+03	2.665462E-02	1.654945E-03
6.218182E+03	2.667508E-02	1.656823E-03
6.227273E+03	2.670028E-02	1.659003E-03
6.236364E+03	2.672564E-02	1.661203E-03
6.245455E+03	2.674665E-02	1.663141E-03
6.254545E+03	2.677233E-02	1.665377E-03
6.263636E+03	2.679811E-02	1.667628E-03
6.272727E+03	2.682398E-02	1.669894E-03
6.281818E+03	2.684538E-02	1.671889E-03
6.290909E+03	2.687139E-02	1.674179E-03
6.300000E+03	2.689740E-02	1.676479E-03
6.309091E+03	2.691887E-02	1.678502E-03
6.318182E+03	2.694485E-02	1.680816E-03
6.327273E+03	2.697079E-02	1.683135E-03
6.336364E+03	2.699212E-02	1.685174E-03
6.345455E+03	2.701787E-02	1.687497E-03
6.354545E+03	2.704354E-02	1.689823E-03
6.363636E+03	2.706445E-02	1.691859E-03
6.372727E+03	2.708979E-02	1.694180E-03
6.381818E+03	2.711032E-02	1.696208E-03
6.390909E+03	2.713522E-02	1.698516E-03
6.400000E+03	2.715988E-02	1.700816E-03
6.409091E+03	2.717965E-02	1.702819E-03
6.418182E+03	2.720370E-02	1.705096E-03
6.427273E+03	2.722741E-02	1.707360E-03
6.436364E+03	2.724615E-02	1.709319E-03
6.445455E+03	2.726910E-02	1.711550E-03
6.454545E+03	2.728702E-02	1.713472E-03
6.463636E+03	2.730909E-02	1.715661E-03
6.472727E+03	2.733066E-02	1.717826E-03
6.481818E+03	2.734711E-02	1.719676E-03
6.490909E+03	2.736764E-02	1.721789E-03
6.500000E+03	2.738295E-02	1.723581E-03
6.509091E+03	2.740227E-02	1.725632E-03
6.518182E+03	2.742096E-02	1.727650E-03
6.527273E+03	2.743433E-02	1.729340E-03
6.536364E+03	2.745163E-02	1.731283E-03
6.545455E+03	2.746352E-02	1.732892E-03
6.554545E+03	2.747931E-02	1.734753E-03
6.563636E+03	2.748962E-02	1.736274E-03
6.572727E+03	2.750374E-02	1.738042E-03
6.581818E+03	2.751697E-02	1.739761E-03
6.590909E+03	2.752462E-02	1.741132E-03
6.600000E+03	2.753600E-02	1.742745E-03
6.609091E+03	2.754172E-02	1.744006E-03
6.618182E+03	2.755108E-02	1.745503E-03
6.627273E+03	2.755471E-02	1.746642E-03
6.636364E+03	2.756191E-02	1.748014E-03
6.645455E+03	2.756330E-02	1.749023E-03
6.654545E+03	2.756820E-02	1.750259E-03
6.663636E+03	2.756722E-02	1.751128E-03
6.672727E+03	2.756968E-02	1.752220E-03
6.681818E+03	2.756618E-02	1.752939E-03
6.690909E+03	2.756603E-02	1.753875E-03
6.700000E+03	2.755988E-02	1.754435E-03
6.709091E+03	2.755700E-02	1.755208E-03
6.718182E+03	2.754805E-02	1.755598E-03
6.727273E+03	2.754230E-02	1.756198E-03
6.736364E+03	2.753040E-02	1.756410E-03
6.745455E+03	2.752164E-02	1.756826E-03
6.754545E+03	2.750668E-02	1.756851E-03
6.763636E+03	2.749478E-02	1.757076E-03
6.772727E+03	2.747663E-02	1.756905E-03
6.781818E+03	2.746151E-02	1.756931E-03
6.790909E+03	2.744005E-02	1.756555E-03
6.800000E+03	2.742156E-02	1.756375E-03
6.809091E+03	2.739670E-02	1.755788E-03
6.818182E+03	2.737476E-02	1.755393E-03
6.827273E+03	2.734643E-02	1.754590E-03
6.836364E+03	2.732096E-02	1.753975E-03
6.845455E+03	2.728908E-02	1.752951E-03
6.854545E+03	2.725539E-02	1.751814E-03
6.863636E+03	2.722455E-02	1.750862E-03
6.872727E+03	2.718729E-02	1.749499E-03
6.881818E+03	2.715286E-02	1.748320E-03
6.890909E+03	2.711203E-02	1.746731E-03
6.900000E+03	2.707407E-02	1.745328E-03
6.909091E+03	2.702973E-02	1.743515E-03
6.918182E+03	2.698366E-02	1.741591E-03
6.927273E+03	2.694047E-02	1.739853E-03
6.936364E+03	2.689102E-02	1.737711E-03
6.945455E+03	2.684445E-02	1.735755E-03
6.954545E+03	2.679169E-02	1.733398E-03
6.963636E+03	2.673732E-02	1.730937E-03
6.972727E+03	2.668592E-02	1.728667E-03
6.981818E+03	2.662842E-02	1.726000E-03
6.990909E+03	2.657391E-02	1.723526E-03
7.000000E+03	2.651337E-02	1.720660E-03
7.009091E+03	2.645137E-02	1.717697E-03
7.018182E+03	2.639245E-02	1.714931E-03
7.027273E+03	2.632764E-02	1.711780E-03
7.036364E+03	2.626144E-02	1.708537E-03
7.045455E+03	2.619837E-02	1.705494E-03
7.054545E+03	2.612953E-02	1.702072E-03
